unix_time_s,dt_s,UTC,LOCAL,EMG1_Raw,EMG2_Raw,EMG3_Raw,EMG4_Raw,EMG5_Raw,EMG6_Raw,EMG7_Raw,EMG8_Raw,EMG1_Filtered,EMG2_Filtered,EMG3_Filtered,EMG4_Filtered,EMG5_Filtered,EMG6_Filtered,EMG7_Filtered,EMG8_Filtered,Accel1_Raw,Accel2_Raw,Accel3_Raw,Gyro1_Raw,Gyro2_Raw,Gyro3_Raw,Battery
1774822033.0340111,,2026-03-29T22:07:13.034,2026-03-29T18:07:13.034,-32010.39,-49362.255,-84199.95,-50091.525,-14707.755,-19973.655,4997.97,-53119.125,-0.673548214387731,-0.29517009931573757,-0.4758720715260851,-0.4047894546170219,-0.15494425176606688,0.7477494812224857,-1.4395927163642865,-0.9370577600589465,-0.07482891,-0.313658865,0.95190186,4.0896799999999995,5.05106,1.09872,72.0
1774822033.034024,1.2874603271484375e-05,2026-03-29T22:07:13.034,2026-03-29T18:07:13.034,-31982.579999999998,-49341.645,-84182.31,-50073.57,-14687.189999999999,-19953.675,5016.735,-53102.204999999994,-1.5862352190722395,1.9864749249960647,3.340821493709207,4.449302036682999,6.739675543881942,6.123186361016756,-5.736755231121715,-3.535871214651472,-0.07482891,-0.313658865,0.95190186,4.0896799999999995,5.05106,1.09872,72.0
1774822033.038205,0.004180908203125,2026-03-29T22:07:13.038,2026-03-29T18:07:13.038,-31936.364999999998,-49312.17,-84161.11499999999,-50053.229999999996,-14665.814999999999,-19937.16,5012.505,-53068.185,-1.8596029337745295,3.374128639606315,5.711079807504063,7.358731636684279,10.6410036277631,8.66688475637843,-7.303709801461283,-4.692738646041526,-0.07482891,-0.313658865,0.95190186,4.0896799999999995,5.05106,1.09872,72.0
1774822033.0382323,2.7418136596679688e-05,2026-03-29T22:07:13.038,2026-03-29T18:07:13.038,-31903.92,-49278.465,-84127.905,-50019.705,-14632.74,-19906.335,5028.12,-53056.755,-1.0518133719204281,3.5077729993010434,5.820538898479011,7.24679850285171,9.99226644108518,7.3924817783124706,-5.412182262739928,-3.7431357642901326,-0.07482891,-0.313658865,0.95190186,4.0896799999999995,5.05106,1.09872,72.0
1774822033.0443964,0.006164073944091797,2026-03-29T22:07:13.044,2026-03-29T18:07:13.044,-31932.629999999997,-49311.405,-84167.595,-50065.515,-14684.265,-19960.155,5044.86,-53068.32,0.7053883712291548,2.4973047095180747,3.7531643324402046,4.285445000619774,5.201078060708934,3.0215426998326844,-0.9738719130703456,-0.9563845269517578,-0.07482891,-0.313658865,0.95190186,4.0896799999999995,5.05106,1.09872,72.0
1774822033.0444167,2.0265579223632812e-05,2026-03-29T22:07:13.044,2026-03-29T18:07:13.044,-31945.995,-49323.555,-84170.7,-50066.145,-14689.89,-19978.469999999998,5040.224999999999,-53065.755,2.6457199103567013,0.7821003747307169,0.3830113050252499,-0.2454221464442651,-1.6033754668627398,-2.4147785125292365,3.9071128853581865,2.509425216951186,-0.07482891,-0.313658865,0.95190186,4.0896799999999995,5.05106,1.09872,72.0
1774822033.049173,0.004756450653076172,2026-03-29T22:07:13.049,2026-03-29T18:07:13.049,-31935.015,-49322.295,-84163.995,-50053.545,-14674.455,-19962.585,5066.865,-53038.35,3.683607787229833,-1.078158719018344,-3.007277088937295,-4.522235152976608,-7.529977067695845,-6.534069438739601,6.937800599642782,5.076998218891922,-0.07824687,-0.31066815000000003,0.94677492,6.04296,3.76922,1.4191799999999999,72.0
1774822033.0492127,3.9577484130859375e-05,2026-03-29T22:07:13.049,2026-03-29T18:07:13.049,-31927.815,-49327.83,-84190.635,-50087.205,-14705.055,-19978.695,5049.72,-53027.055,2.9865979708771837,-2.57302297510486,-5.208436801542053,-6.911329898751598,-10.163251083747355,-7.662164070084236,6.713680346010854,5.460234881426504,-0.07824687,-0.31066815000000003,0.94677492,6.04296,3.76922,1.4191799999999999,72.0
1774822033.049243,3.0279159545898438e-05,2026-03-29T22:07:13.049,2026-03-29T18:07:13.049,-31931.774999999998,-49335.299999999996,-84207.375,-50106.015,-14721.615,-19984.905,5007.6449999999995,-53042.354999999996,0.5152154019680997,-3.3258739716966215,-5.488879671183547,-6.576939317916087,-8.544870580520135,-5.515190242389266,3.362939641923589,3.2993608462992006,-0.07824687,-0.31066815000000003,0.94677492,6.04296,3.76922,1.4191799999999999,72.0
1774822033.0492544,1.1444091796875e-05,2026-03-29T22:07:13.049,2026-03-29T18:07:13.049,-31950.945,-49337.325,-84197.745,-50098.545,-14718.33,-19984.364999999998,5010.03,-53062.92,-2.7881486058849996,-3.1207321730185607,-3.802322902670951,-3.746708893093569,-3.5024195647234473,-1.2255457547878434,-1.5348194749513844,-0.5892088423422119,-0.07824687,-0.31066815000000003,0.94677492,6.04296,3.76922,1.4191799999999999,72.0
1774822033.0541198,0.004865407943725586,2026-03-29T22:07:13.054,2026-03-29T18:07:13.054,-31938.704999999998,-49320.494999999995,-84174.165,-50072.895,-14691.914999999999,-19961.594999999998,5039.37,-53050.905,-5.330394777395079,-1.929035889476389,-0.7636537031395478,0.43239754258315644,2.7749972288420577,3.252572687658914,-5.702122350161918,-4.502386399273384,-0.07824687,-0.31066815000000003,0.94677492,6.04296,3.76922,1.4191799999999999,72.0
1774822033.05414,2.0265579223632812e-05,2026-03-29T22:07:13.054,2026-03-29T18:07:13.054,-31928.895,-49318.064999999995,-84179.655,-50073.255,-14689.439999999999,-19965.645,5007.195,-53044.784999999996,-5.6207484325384005,0.03586343564986296,2.5709030608477885,4.360278384804379,7.6958226288928895,6.046693974025189,-7.225201203796214,-6.588276693910113,-0.07824687,-0.31066815000000003,0.94677492,6.04296,3.76922,1.4191799999999999,72.0
1774822033.067336,0.013195991516113281,2026-03-29T22:07:13.067,2026-03-29T18:07:13.067,-31940.19,-49316.4,-84163.31999999999,-50051.205,-14663.34,-19938.645,5000.804999999999,-53064.99,-3.096584985181105,2.273533171540368,5.042401560758294,6.5815824931197575,9.33540500573123,6.154508774836613,-5.426947267142762,-5.717208103347328,-0.07824687,-0.31066815000000003,0.94677492,6.04296,3.76922,1.4191799999999999,72.0
1774822033.06736,2.384185791015625e-05,2026-03-29T22:07:13.067,2026-03-29T18:07:13.067,-31955.219999999998,-49327.695,-84159.315,-50043.33,-14655.24,-19930.41,5014.62,-53078.4,1.419462367571325,4.043302931482301,5.755225731265806,6.300429502177847,7.1752089258561025,3.7825161471172044,-1.1556621760643604,-2.0786573884571884,-0.07824687,-0.31066815000000003,0.94677492,6.04296,3.76922,1.4191799999999999,72.0
1774822033.0674007,4.076957702636719e-05,2026-03-29T22:07:13.067,2026-03-29T18:07:13.067,-31967.37,-49339.799999999996,-84172.31999999999,-50056.695,-14670.09,-19943.415,5038.83,-53081.909999999996,5.93462551164417,4.566452768405484,4.3782335406802,3.6448456603906174,2.236180332042856,0.13311024133423904,3.6268197599240954,2.8059972428983424,-0.07824687,-0.31066815000000003,0.94677492,6.04296,3.76922,1.4191799999999999,72.0
1774822033.0674105,9.775161743164062e-06,2026-03-29T22:07:13.067,2026-03-29T18:07:13.067,-31941.315,-49317.479999999996,-84177.81,-50077.305,-14696.189999999999,-19955.565,5026.995,-53070.93,8.154685055917305,3.358599997079982,1.294803288847393,-0.3936111835219325,-3.406807087909876,-3.206206708589481,6.751929814926239,6.708653261572893,-0.07824687,-0.31066815000000003,0.94677492,6.04296,3.76922,1.4191799999999999,72.0
1774822033.0674217,1.1205673217773438e-05,2026-03-29T22:07:13.067,2026-03-29T18:07:13.067,-31886.55,-49279.994999999995,-84151.125,-50056.515,-14678.64,-19937.7,5006.565,-53033.805,6.633778909392135,0.5563541503573783,-2.463971008527833,-4.3151470969762045,-7.49663336207232,-4.96002183752064,6.823666899991263,7.707052574708807,-0.076354785,-0.300475305,0.944150415,-1.3734,2.09062,3.15882,72.0
1774822033.0674305,8.821487426757812e-06,2026-03-29T22:07:13.067,2026-03-29T18:07:13.067,-31902.975,-49294.395,-84162.33,-50064.075,-14686.289999999999,-19953.675,5021.46,-53038.305,1.63510115711075,-2.9565058493208753,-5.520806194808153,-6.64328066553671,-8.485769852849664,-4.639001696425879,3.8298846600913903,5.126551223837776,-0.076354785,-0.300475305,0.944150415,-1.3734,2.09062,3.15882,72.0
1774822033.0703495,0.0029189586639404297,2026-03-29T22:07:13.070,2026-03-29T18:07:13.070,-31961.745,-49338.99,-84190.905,-50090.939999999995,-14710.949999999999,-19976.895,5055.345,-53060.49,-4.785090672048614,-5.7681895219339445,-6.628448223747784,-6.459682672180745,-6.102588456159714,-2.622199773458384,-0.8756528350530887,-0.048478201239896705,-0.076354785,-0.300475305,0.944150415,-1.3734,2.09062,3.15882,72.0
1774822033.0703754,2.5987625122070312e-05,2026-03-29T22:07:13.070,2026-03-29T18:07:13.070,-31952.969999999998,-49339.935,-84205.08,-50110.965,-14730.345,-19998.585,5037.165,-53050.005,-9.607135261835808,-6.491142504614823,-5.173728232715888,-3.761624589936202,-1.3967401657236709,0.1243025316054278,-5.194285549820144,-5.530939625835966,-0.076354785,-0.300475305,0.944150415,-1.3734,2.09062,3.15882,72.0
1774822033.0746427,0.004267215728759766,2026-03-29T22:07:13.074,2026-03-29T18:07:13.074,-31935.51,-49327.83,-84202.02,-50104.619999999995,-14713.695,-19981.53,5007.33,-53043.03,-10.266596826774819,-4.440920144317706,-1.5093412657546865,0.49362852079562,3.7215040932726273,2.5119283328277677,-7.2169362655777265,-8.737728889586153,-0.076354785,-0.300475305,0.944150415,-1.3734,2.09062,3.15882,72.0
1774822033.0746703,2.765655517578125e-05,2026-03-29T22:07:13.074,2026-03-29T18:07:13.074,-31938.93,-49319.235,-84189.915,-50095.259999999995,-14702.85,-19968.795,4983.84,-53060.759999999995,-5.9963142021191,-0.11209825640543981,3.0630320968858626,4.699004841811302,7.246288751171381,3.7524458807076044,-6.056543374832324,-8.006116639676087,-0.076354785,-0.300475305,0.944150415,-1.3734,2.09062,3.15882,72.0
1774822033.0780585,0.0033881664276123047,2026-03-29T22:07:13.078,2026-03-29T18:07:13.078,-31929.3,-49312.125,-84176.415,-50081.985,-14697.449999999999,-19964.969999999998,4996.9349999999995,-53057.564999999995,1.6028109750113324,4.84264171518715,6.71847464520045,7.180463920094582,7.845345993017488,3.579732808784223,-2.221578264025214,-3.4471681968266945,-0.076354785,-0.300475305,0.944150415,-1.3734,2.09062,3.15882,72.0
1774822033.078073,1.4543533325195312e-05,2026-03-29T22:07:13.078,2026-03-29T18:07:13.078,-31931.28,-49318.11,-84183.56999999999,-50087.07,-14703.57,-19970.73,5036.3099999999995,-53049.915,9.129178966332193,8.217791096416729,7.827485383043011,6.855971235262045,5.34873359886479,2.233891566711716,2.617936406281174,2.998733149134698,-0.076354785,-0.300475305,0.944150415,-1.3734,2.09062,3.15882,72.0
1774822033.0827513,0.004678249359130859,2026-03-29T22:07:13.082,2026-03-29T18:07:13.082,-31925.789999999997,-49308.795,-84177.135,-50080.814999999995,-14695.875,-19955.79,5077.17,-53052.93,12.905481990678386,8.238988214835326,5.690987558674028,3.716337603536497,0.7871575300866519,0.27972029110401536,6.35832390374334,8.380901963244938,-0.076354785,-0.300475305,0.944150415,-1.3734,2.09062,3.15882,72.0
1774822033.0827749,2.3603439331054688e-05,2026-03-29T22:07:13.082,2026-03-29T18:07:13.082,-31927.094999999998,-49324.455,-84196.44,-50098.905,-14713.38,-19971.719999999998,5032.53,-53050.409999999996,10.777272489779799,4.4863983496117035,0.9568229329792687,-1.089359073468489,-4.02231260634554,-1.6241166884991616,7.366356690893214,10.090188830425713,-0.076354785,-0.300475305,0.944150415,-1.3734,2.09062,3.15882,72.0
1774822033.094906,0.012131214141845703,2026-03-29T22:07:13.094,2026-03-29T18:07:13.094,-31945.184999999998,-49336.875,-84202.965,-50101.92,-14716.305,-19977.93,4989.285,-53064.405,3.3042110452504896,-1.7195228980119723,-4.521677398130617,-5.644529384280804,-7.182788252002343,-2.9138901235908516,5.176722117440214,7.123850432480811,-0.07482891,-0.29931564,0.9478735500000001,-8.2404,2.1669199999999997,6.4397199999999994,72.0
1774822033.09493,2.384185791015625e-05,2026-03-29T22:07:13.094,2026-03-29T18:07:13.094,-31971.015,-49334.4,-84179.06999999999,-50066.28,-14676.119999999999,-19942.965,5000.985,-53094.645,-6.301558240670233,-7.739500195976028,-8.394716947716203,-8.017970741053377,-7.452050824720849,-3.2358979941170487,0.6937805681400416,0.6499495649107108,-0.07482891,-0.29931564,0.9478735500000001,-8.2404,2.1669199999999997,6.4397199999999994,72.0
1774822033.0950737,0.0001437664031982422,2026-03-29T22:07:13.095,2026-03-29T18:07:13.095,-31977.405,-49315.32,-84149.325,-50036.445,-14649.885,-19924.469999999998,4999.995,-53112.015,-13.554881864714627,-10.73747511666992,-8.831793597027762,-7.090610590046638,-4.729246862897393,-2.5033578901036764,-4.182988849391726,-6.438057826042461,-0.07482891,-0.29931564,0.9478735500000001,-8.2404,2.1669199999999997,6.4397199999999994,72.0
1774822033.0950851,1.1444091796875e-05,2026-03-29T22:07:13.095,2026-03-29T18:07:13.095,-31958.235,-49311.494999999995,-84153.95999999999,-50046.705,-14662.08,-19937.88,5009.175,-53091.36,-14.804082188754213,-9.027489892589433,-5.402233731450487,-3.0991842107786645,-0.10470968387141023,-0.9173785586032042,-7.353922770304666,-10.815200981634337,-0.07482891,-0.29931564,0.9478735500000001,-8.2404,2.1669199999999997,6.4397199999999994,72.0
1774822033.0950975,1.239776611328125e-05,2026-03-29T22:07:13.095,2026-03-29T18:07:13.095,-31949.64,-49315.994999999995,-84167.73,-50063.805,-14678.82,-19947.195,5031.405,-53079.75,-9.069601393091398,-3.001162909670322,0.6093416293232037,2.373600818616958,4.557330227862938,1.052200657193469,-7.407536060208503,-10.288648558362858,-0.07482891,-0.29931564,0.9478735500000001,-8.2404,2.1669199999999997,6.4397199999999994,72.0
1774822033.0951068,9.298324584960938e-06,2026-03-29T22:07:13.095,2026-03-29T18:07:13.095,-31943.114999999998,-49313.655,-84165.795,-50061.104999999996,-14671.98,-19935.945,5063.8949999999995,-53069.04,1.3116700527503948,4.866895197270833,6.658014846397037,7.009531696369009,7.354895373520759,2.7562905678319276,-4.235487934459653,-4.89390265638859,-0.07482891,-0.29931564,0.9478735500000001,-8.2404,2.1669199999999997,6.4397199999999994,72.0
1774822033.098011,0.002904176712036133,2026-03-29T22:07:13.098,2026-03-29T18:07:13.098,-31952.52,-49327.74,-84180.42,-50074.965,-14685.21,-19953.405,5061.0599999999995,-53070.075,11.626995453045884,11.02715604750719,10.019397065854493,8.741183831655322,7.1220778365182635,3.548105105044476,0.8864251100509223,3.023713984311877,-0.07482891,-0.29931564,0.9478735500000001,-8.2404,2.1669199999999997,6.4397199999999994,72.0
1774822033.0980277,1.6689300537109375e-05,2026-03-29T22:07:13.098,2026-03-29T18:07:13.098,-31931.145,-49310.775,-84169.845,-50069.97,-14688.045,-19963.844999999998,5025.33,-53062.829999999994,16.941848996215604,12.47144536340668,9.036646586070356,6.6933804645359345,3.9279079862960034,3.0283421205377454,5.799436356550178,9.826517867622973,-0.07482891,-0.29931564,0.9478735500000001,-8.2404,2.1669199999999997,6.4397199999999994,72.0
1774822033.1023824,0.004354715347290039,2026-03-29T22:07:13.102,2026-03-29T18:07:13.102,-31915.62,-49306.59,-84174.075,-50077.08,-14697.63,-19974.6,5009.849999999999,-53051.985,14.476279072218903,8.214930456754422,3.954265535227646,1.6426870638259277,-0.9191822279969426,1.2616933842058289,8.35540187639015,12.260805194753981,-0.07482891,-0.29931564,0.9478735500000001,-8.2404,2.1669199999999997,6.4397199999999994,72.0
1774822033.1023977,1.52587890625e-05,2026-03-29T22:07:13.102,2026-03-29T18:07:13.102,-31918.725,-49312.665,-84181.905,-50083.02,-14701.68,-19974.87,5006.025,-53050.365,5.051827101843978,-0.09193049266184404,-3.087629495521238,-4.252166136433834,-5.388412610830658,-1.1573776287077202,7.34267857770027,9.017275212878271,-0.07482891,-0.29931564,0.9478735500000001,-8.2404,2.1669199999999997,6.4397199999999994,72.0
1774822033.1059833,0.0035855770111083984,2026-03-29T22:07:13.105,2026-03-29T18:07:13.105,-31949.414999999997,-49328.055,-84185.055,-50079.06,-14691.105,-19960.559999999998,5005.17,-53071.47,-7.1416498599358365,-8.78273949547828,-8.951250826776974,-8.371387707331769,-7.572121019714001,-3.2716143381281784,3.0529617118879435,1.4252034086262029,-0.07397442,-0.302794635,0.9520849650000001,-7.3705799999999995,3.4792799999999997,5.81406,72.0
1774822033.1060026,1.9311904907226562e-05,2026-03-29T22:07:13.106,2026-03-29T18:07:13.106,-31956.03,-49309.74,-84153.645,-50044.95,-14658.345,-19931.625,5022.45,-53091.99,-16.42009605687759,-13.80591046777673,-10.91724467041301,-8.815551314744829,-6.511505052252261,-4.137087923529231,-2.7726304977724796,-7.083745733118066,-0.07397442,-0.302794635,0.9520849650000001,-7.3705799999999995,3.4792799999999997,5.81406,72.0
1774822033.1100333,0.004030704498291016,2026-03-29T22:07:13.110,2026-03-29T18:07:13.110,-31938.344999999998,-49306.994999999995,-84162.23999999999,-50058.045,-14673.689999999999,-19947.825,5034.6449999999995,-53069.895,-18.276777429242344,-12.636021716601011,-7.97204907741704,-5.307185941585628,-2.64024993529854,-3.2629305589074793,-7.631216745903162,-12.530525112450983,-0.07397442,-0.302794635,0.9520849650000001,-7.3705799999999995,3.4792799999999997,5.81406,72.0
1774822033.1100497,1.6450881958007812e-05,2026-03-29T22:07:13.110,2026-03-29T18:07:13.110,-31960.079999999998,-49337.775,-84200.805,-50100.57,-14719.814999999999,-20003.175,4987.98,-53079.884999999995,-11.585410226997688,-5.553954243016924,-1.3456206050893613,0.6265001337020198,2.3694807973379866,-0.9018665539470013,-9.319691811667584,-12.256169730272719,-0.07397442,-0.302794635,0.9520849650000001,-7.3705799999999995,3.4792799999999997,5.81406,72.0
1774822033.117295,0.007245302200317383,2026-03-29T22:07:13.117,2026-03-29T18:07:13.117,-31957.965,-49320.134999999995,-84170.83499999999,-50067.09,-14693.13,-19998.18,4987.035,-53094.869999999995,0.748600091977856,4.357452709152983,5.990960491949111,6.309267951146146,6.3183579217231065,1.9823339747870619,-6.928249421002984,-6.222220618806103,-0.07397442,-0.302794635,0.9520849650000001,-7.3705799999999995,3.4792799999999997,5.81406,72.0
1774822033.11731,1.5020370483398438e-05,2026-03-29T22:07:13.117,2026-03-29T18:07:13.117,-31921.695,-49285.485,-84135.15,-50030.955,-14659.56,-19963.98,4981.41,-53073.99,13.054065621532375,12.561697251014786,10.669542361821817,9.133644117581689,7.452207184661252,4.101831506887092,-1.3208366668945377,2.8929013396108307,-0.07397442,-0.302794635,0.9520849650000001,-7.3705799999999995,3.4792799999999997,5.81406,72.0
1774822033.117324,1.4066696166992188e-05,2026-03-29T22:07:13.117,2026-03-29T18:07:13.117,-31849.829999999998,-49231.125,-84085.56,-49982.625,-14608.439999999999,-19898.145,4973.22,-53023.185,19.523353934434468,15.168480373493711,10.497443735510336,7.782180900816905,5.262792095730195,4.435057118151498,5.1480078379192,10.88361050254419,-0.07397442,-0.302794635,0.9520849650000001,-7.3705799999999995,3.4792799999999997,5.81406,72.0
1774822033.11733,5.9604644775390625e-06,2026-03-29T22:07:13.117,2026-03-29T18:07:13.117,-31828.14,-49240.575,-84107.205,-50011.695,-14636.654999999999,-19911.915,5015.97,-52982.235,16.975748525212843,10.802312871603592,5.512544930913863,2.8692246730453093,0.7416791602786325,2.743046404547004,9.606317932798598,13.964184230702843,-0.07397442,-0.302794635,0.9520849650000001,-7.3705799999999995,3.4792799999999997,5.81406,72.0
1774822033.123444,0.006114006042480469,2026-03-29T22:07:13.123,2026-03-29T18:07:13.123,-31897.125,-49308.615,-84176.28,-50087.744999999995,-14708.205,-19962.405,5039.91,-53012.564999999995,6.429577016562417,1.3316248162254951,-1.9987294089022631,-3.3210080882593536,-4.050715760159994,-0.2587078809563334,9.935244818200337,10.568697022902555,-0.07397442,-0.302794635,0.9520849650000001,-7.3705799999999995,3.4792799999999997,5.81406,72.0
1774822033.1234813,3.719329833984375e-05,2026-03-29T22:07:13.123,2026-03-29T18:07:13.123,-32001.795,-49373.955,-84231.675,-50132.34,-14733.945,-19972.665,5045.58,-53093.7,-7.297505139746716,-8.928985890150416,-8.552861601396154,-7.897080455601217,-6.922596483214925,-3.191323930177621,5.777789946690018,2.1453291745450866,-0.07397442,-0.302794635,0.9520849650000001,-7.3705799999999995,3.4792799999999997,5.81406,72.0
1774822033.1282194,0.0047380924224853516,2026-03-29T22:07:13.128,2026-03-29T18:07:13.128,-32010.164999999997,-49385.205,-84241.305,-50136.119999999995,-14736.869999999999,-19989.63,5027.355,-53113.409999999996,-17.806833453083687,-15.203825018185078,-11.105369030612502,-8.729025937132397,-6.569072649842416,-4.654872526170578,-1.1957353877926649,-7.456904082750973,-0.073547175,-0.3124992,0.9551977500000001,-1.63282,3.9981199999999997,4.15072,72.0
1774822033.128249,2.956390380859375e-05,2026-03-29T22:07:13.128,2026-03-29T18:07:13.128,-31945.77,-49350.645,-84216.78,-50116.365,-14722.38,-19984.68,5012.099999999999,-53058.104999999996,-20.125458511696948,-14.505932393196465,-8.493787254480967,-5.467094225321708,-3.1909673270910486,-3.9188464355134296,-7.938696997788721,-13.751485951043879,-0.073547175,-0.3124992,0.9551977500000001,-1.63282,3.9981199999999997,4.15072,72.0
1774822033.1347456,0.0064966678619384766,2026-03-29T22:07:13.134,2026-03-29T18:07:13.134,-31945.14,-49350.555,-84216.33,-50116.545,-14722.965,-19986.704999999998,4995.2699999999995,-53049.689999999995,-13.07695863652433,-7.07928713720432,-1.9906718566921984,0.28871443853226103,1.5909590764233645,-1.3108559783607383,-11.354492903373096,-13.71786811924749,-0.073547175,-0.3124992,0.9551977500000001,-1.63282,3.9981199999999997,4.15072,72.0
1774822033.134766,2.0503997802734375e-05,2026-03-29T22:07:13.134,2026-03-29T18:07:13.134,-31981.094999999998,-49351.68,-84198.23999999999,-50095.979999999996,-14705.73,-19969.335,4987.485,-53094.465,0.12185536946580619,3.6718603302506114,5.3069820497787425,5.761044450233289,5.5008962077315395,1.912021623127679,-9.724112299895587,-7.255756195831211,-0.073547175,-0.3124992,0.9551977500000001,-1.63282,3.9981199999999997,4.15072,72.0
1774822033.1347857,1.9550323486328125e-05,2026-03-29T22:07:13.134,2026-03-29T18:07:13.134,-31975.695,-49301.865,-84134.34,-50026.68,-14637.195,-19909.17,5026.139999999999,-53137.125,13.34035283971289,12.755850053391013,9.96245184723543,8.34122363799243,6.696081599746838,4.1682344160498745,-3.574062788121087,2.7118346080081084,-0.073547175,-0.3124992,0.9551977500000001,-1.63282,3.9981199999999997,4.15072,72.0
1774822033.1347923,6.67572021484375e-06,2026-03-29T22:07:13.134,2026-03-29T18:07:13.134,-31928.355,-49295.79,-84156.3,-50055.795,-14668.154999999999,-19946.07,5053.1849999999995,-53082.63,20.40307522562732,15.935680480776696,9.841482426389003,6.853481963357793,4.655208080713557,4.342064965711069,4.455584674748747,11.561927814702608,-0.073547175,-0.3124992,0.9551977500000001,-1.63282,3.9981199999999997,4.15072,72.0
1774822033.1403344,0.00554203987121582,2026-03-29T22:07:13.140,2026-03-29T18:07:13.140,-31922.1,-49319.055,-84197.52,-50105.97,-14724.18,-20001.87,5031.315,-53054.685,17.995129785352443,11.729746175786076,5.116436845237791,2.115496787782118,0.42990033880102324,2.3582209341944202,10.738130651959375,15.121626058609747,-0.073547175,-0.3124992,0.9551977500000001,-1.63282,3.9981199999999997,4.15072,72.0
1774822033.1403587,2.4318695068359375e-05,2026-03-29T22:07:13.140,2026-03-29T18:07:13.140,-31956.66,-49328.505,-84184.65,-50086.665,-14703.93,-19980.27,5025.51,-53079.975,7.227636509067262,2.11530054747314,-1.8517025438317696,-3.483044748521554,-3.8732048279475273,-0.7642611589231231,12.305493852453868,11.642332140655578,-0.073547175,-0.3124992,0.9551977500000001,-1.63282,3.9981199999999997,4.15072,72.0
1774822033.1442904,0.003931760787963867,2026-03-29T22:07:13.144,2026-03-29T18:07:13.144,-31946.445,-49312.53,-84155.175,-50043.509999999995,-14651.279999999999,-19926.405,5060.745,-53072.82,-6.879856038061869,-8.404838298813816,-7.687610640038274,-7.175804904691319,-6.133391706322315,-3.4225158765382924,8.262124446089699,2.6614099782466982,-0.073547175,-0.3124992,0.9551977500000001,-1.63282,3.9981199999999997,4.15072,72.0
1774822033.1443214,3.0994415283203125e-05,2026-03-29T22:07:13.144,2026-03-29T18:07:13.144,-31949.28,-49314.78,-84154.095,-50042.97,-14653.664999999999,-19931.445,5049.99,-53075.7,-17.755585362306455,-14.929269060716372,-9.64931012072129,-7.194053300566838,-5.268307580106501,-4.253519233328399,0.2880323356695677,-7.67412711338545,-0.073547175,-0.3124992,0.9551977500000001,-1.63282,3.9981199999999997,4.15072,72.0
1774822033.151177,0.006855487823486328,2026-03-29T22:07:13.151,2026-03-29T18:07:13.151,-31968.18,-49332.06,-84181.77,-50077.08,-14692.095,-19970.954999999998,5006.429999999999,-53098.875,-20.35595792506769,-14.464927076016139,-6.938695427247461,-3.6332938738575926,-1.7718532163411025,-2.8467255163205185,-8.048869750787617,-14.525783241878433,-0.070373355,-0.31774821000000003,0.95715087,5.84458,5.4020399999999995,1.23606,72.0
1774822033.151199,2.2172927856445312e-05,2026-03-29T22:07:13.151,2026-03-29T18:07:13.151,-31947.93,-49333.32,-84198.51,-50100.884999999995,-14713.92,-19985.625,5010.3,-53079.39,-13.517065738704112,-7.317158608875333,-1.0383977710057621,1.6208815160827796,2.5382676762790686,0.03242136889217567,-12.896373001875528,-14.634953261795818,-0.070373355,-0.31774821000000003,0.95715087,5.84458,5.4020399999999995,1.23606,72.0
1774822033.1512263,2.7179718017578125e-05,2026-03-29T22:07:13.151,2026-03-29T18:07:13.151,-31944.015,-49321.755,-84187.17,-50091.255,-14699.34,-19964.34,5042.835,-53081.235,-0.47557037463982915,3.090236096853211,5.073722260538069,5.867351783943463,5.444000215313583,2.8373792378525944,-11.913726126673925,-7.8786234380712274,-0.070373355,-0.31774821000000003,0.95715087,5.84458,5.4020399999999995,1.23606,72.0
1774822033.151236,9.775161743164062e-06,2026-03-29T22:07:13.151,2026-03-29T18:07:13.151,-31943.07,-49330.979999999996,-84199.095,-50100.255,-14704.47,-19964.7,5022.495,-53080.064999999995,12.673017657820337,11.864272237646059,8.424440014787644,6.968599550957579,5.459438676245764,4.057379023851669,-5.414649391863489,2.635658206627956,-0.070373355,-0.31774821000000003,0.95715087,5.84458,5.4020399999999995,1.23606,72.0
1774822033.1551611,0.0039250850677490234,2026-03-29T22:07:13.155,2026-03-29T18:07:13.155,-31938.57,-49337.369999999995,-84206.11499999999,-50103.314999999995,-14702.984999999999,-19954.98,5012.37,-53070.704999999994,19.838647659866623,14.961674716048917,7.503958846827127,4.432793060658374,2.5964597759588113,3.0291368155617544,3.7070210537738597,11.999073427433393,-0.070373355,-0.31774821000000003,0.95715087,5.84458,5.4020399999999995,1.23606,72.0
1774822033.155178,1.6927719116210938e-05,2026-03-29T22:07:13.155,2026-03-29T18:07:13.155,-31927.59,-49324.005,-84190.36499999999,-50090.715,-14693.49,-19945.98,5018.264999999999,-53060.13,17.769936273025117,11.069307733128118,2.9617939554297013,-0.35214844958447405,-1.633948011604313,0.30758551159529585,11.271265338221692,15.797770790752228,-0.070373355,-0.31774821000000003,0.95715087,5.84458,5.4020399999999995,1.23606,72.0
1774822033.1582315,0.003053426742553711,2026-03-29T22:07:13.158,2026-03-29T18:07:13.158,-31960.485,-49324.32,-84177.72,-50069.61,-14671.529999999999,-19933.605,5033.835,-53096.939999999995,7.532564181731707,2.1636137648597096,-2.7883966120118915,-4.8507086782065105,-4.995912130830408,-2.6148309885210033,13.744789200063359,12.200095555320166,-0.070373355,-0.31774821000000003,0.95715087,5.84458,5.4020399999999995,1.23606,72.0
1774822033.158255,2.3603439331054688e-05,2026-03-29T22:07:13.158,2026-03-29T18:07:13.158,-31981.86,-49331.43,-84178.665,-50069.744999999995,-14675.58,-19945.44,5037.885,-53118.99,-6.039875485856296,-7.490014690502883,-6.831325761001083,-6.701013207694954,-5.689743891573389,-4.10509637528343,9.910745933491784,2.8450851458082838,-0.070373355,-0.31774821000000003,0.95715087,5.84458,5.4020399999999995,1.23606,72.0
1774822033.1623578,0.0041027069091796875,2026-03-29T22:07:13.162,2026-03-29T18:07:13.162,-31972.5,-49330.08,-84172.41,-50067.0,-14676.525,-19953.0,5042.5199999999995,-53107.65,-16.63846982142297,-13.391332331489147,-7.2259185655567455,-4.943843810286981,-3.3034629292207014,-3.284236059729233,1.4766353827398753,-7.900894146157846,-0.070373355,-0.31774821000000003,0.95715087,5.84458,5.4020399999999995,1.23606,72.0
1774822033.1623807,2.288818359375e-05,2026-03-29T22:07:13.162,2026-03-29T18:07:13.162,-31939.289999999997,-49320.54,-84159.18,-50054.22,-14668.515,-19950.3,5046.075,-53082.314999999995,-19.421999879550103,-12.917548133453844,-3.947019743985498,-0.5230180379106668,0.9449567610292267,-0.5352270498026684,-7.688016045495717,-14.983933959264519,-0.070373355,-0.31774821000000003,0.95715087,5.84458,5.4020399999999995,1.23606,72.0
1774822033.168295,0.005914211273193359,2026-03-29T22:07:13.168,2026-03-29T18:07:13.168,-31936.995,-49325.805,-84154.23,-50045.805,-14661.269999999999,-19943.145,5046.03,-53072.64,-13.23253693602348,-6.495324937994483,1.1687312819869062,4.205579754207055,4.81608072641653,2.665550283928808,-13.343582878405678,-15.045273719739438,-0.069885075,-0.312804375,0.95531982,6.50076,4.56274,0.48832,72.0
1774822033.1683135,1.8596649169921875e-05,2026-03-29T22:07:13.168,2026-03-29T18:07:13.168,-31966.335,-49336.965,-84189.06,-50086.979999999996,-14703.615,-19987.559999999998,5001.03,-53092.53,-1.0683607157687702,2.6938765459567597,5.420107933314002,6.706581575160785,6.209329786794439,4.524561482296219,-12.864273570618352,-8.021156821049285,-0.069885075,-0.312804375,0.95531982,6.50076,4.56274,0.48832,72.0
1774822033.1683316,1.811981201171875e-05,2026-03-29T22:07:13.168,2026-03-29T18:07:13.168,-31942.754999999997,-49316.22,-84198.42,-50106.104999999996,-14723.955,-20004.21,5008.545,-53086.59,11.373052550552792,10.29184259941404,6.650586677525085,5.602092471458077,4.280604349208512,3.9126047079157664,-6.4746629746959075,2.8052986958430317,-0.069885075,-0.312804375,0.95531982,6.50076,4.56274,0.48832,72.0
1774822033.1683404,8.821487426757812e-06,2026-03-29T22:07:13.168,2026-03-29T18:07:13.168,-31945.995,-49326.345,-84191.805,-50096.88,-14711.039999999999,-19980.675,5018.58,-53082.18,18.370988761026524,12.840214904333102,4.339724824868378,1.4151950090603098,-0.07046807565370569,1.0220806428054692,2.852215740026521,12.337535245421954,-0.069885075,-0.312804375,0.95531982,6.50076,4.56274,0.48832,72.0
1774822033.1746652,0.00632476806640625,2026-03-29T22:07:13.174,2026-03-29T18:07:13.174,-31933.98,-49309.29,-84173.715,-50078.7,-14688.494999999999,-19951.515,5019.705,-53075.295,16.815861704354454,9.361043628032448,-0.17575338666200094,-3.6764143743605775,-4.617604759911238,-2.6732754655525395,10.791060341875422,16.068877884712002,-0.069885075,-0.312804375,0.95531982,6.50076,4.56274,0.48832,72.0
1774822033.1746833,1.811981201171875e-05,2026-03-29T22:07:13.174,2026-03-29T18:07:13.174,-31924.8,-49305.645,-84174.20999999999,-50077.89,-14689.845,-19967.399999999998,5013.585,-53069.85,7.587499244116877,1.715928850630138,-4.445886457604443,-6.961726034680571,-6.937744365611496,-5.164467948417924,13.69323447320192,12.220812477325302,-0.069885075,-0.312804375,0.95531982,6.50076,4.56274,0.48832,72.0
1774822033.1790023,0.004318952560424805,2026-03-29T22:07:13.179,2026-03-29T18:07:13.179,-31931.954999999998,-49318.29,-84186.36,-50092.65,-14706.63,-19988.505,5018.76,-53068.14,-4.930845061812718,-6.378085197058032,-6.212365686679973,-6.619282085466337,-5.683527555774193,-4.983457596812651,10.28568256163649,2.5982923802520084,-0.069885075,-0.312804375,0.95531982,6.50076,4.56274,0.48832,72.0
1774822033.1790216,1.9311904907226562e-05,2026-03-29T22:07:13.179,2026-03-29T18:07:13.179,-31940.73,-49321.935,-84182.22,-50081.445,-14692.41,-19977.57,4994.505,-53081.369999999995,-14.938199625779335,-11.159363682732627,-4.587522143394404,-2.7016126998387877,-1.3361486927322264,-2.0383023191445506,2.237952448939638,-8.252811616441296,-0.069885075,-0.312804375,0.95531982,6.50076,4.56274,0.48832,72.0
1774822033.1838279,0.0048062801361083984,2026-03-29T22:07:13.183,2026-03-29T18:07:13.183,-31922.37,-49325.04,-84192.3,-50092.02,-14698.26,-19970.37,4970.88,-53066.204999999994,-17.906770028198025,-10.574465981428784,-0.49660045487772314,2.8427008795885613,3.972895699657664,2.2580809864551004,-6.659900603902169,-15.195070627434959,-0.069885075,-0.312804375,0.95531982,6.50076,4.56274,0.48832,72.0
1774822033.183848,2.002716064453125e-05,2026-03-29T22:07:13.183,2026-03-29T18:07:13.183,-31929.254999999997,-49329.54,-84196.125,-50097.104999999996,-14703.975,-19970.594999999998,4918.635,-53081.415,-12.628828176031819,-5.153654346992606,3.8363219825632666,7.140943254867109,7.509869465304106,5.668943867400539,-12.301945522217505,-14.93890783345349,-0.069885075,-0.312804375,0.95531982,6.50076,4.56274,0.48832,72.0
1774822033.1863694,0.002521514892578125,2026-03-29T22:07:13.186,2026-03-29T18:07:13.186,-31898.835,-49264.2,-84121.785,-50021.82,-14631.615,-19904.805,4944.285,-53101.53,-1.6958750142832693,2.360334006254146,6.078130241461325,7.876432713529485,7.340284884190404,6.295292835115039,-12.185055990331724,-7.610596548625961,-0.06970197,-0.29968185,0.950620125,-0.15259999999999999,3.18934,1.26658,72.0
1774822033.1863997,3.0279159545898438e-05,2026-03-29T22:07:13.186,2026-03-29T18:07:13.186,-31845.015,-49226.174999999996,-84100.31999999999,-50010.795,-14629.545,-19913.265,5027.67,-53063.46,9.77258936855213,8.396365031577748,5.022507758768268,4.516979935539349,3.367144865701695,3.615587987860626,-6.533555243377633,3.3029678242734892,-0.06970197,-0.29968185,0.950620125,-0.15259999999999999,3.18934,1.26658,72.0
1774822033.197185,0.010785341262817383,2026-03-29T22:07:13.197,2026-03-29T18:07:13.197,-31862.699999999997,-49279.005,-84170.025,-50081.31,-14698.98,-19982.969999999998,5070.96,-53017.74,16.52733313992307,10.253993421889406,1.2239678143385593,-1.3531580339097962,-2.5449518100130684,-1.1597578522573555,1.8825691845125465,12.612325679086215,-0.06970197,-0.29968185,0.950620125,-0.15259999999999999,3.18934,1.26658,72.0
1774822033.1972072,2.2172927856445312e-05,2026-03-29T22:07:13.197,2026-03-29T18:07:13.197,-31960.215,-49343.13,-84202.11,-50105.655,-14719.32,-19994.67,5100.389999999999,-53051.759999999995,15.591024835110693,7.307760755372605,-3.298504686937065,-6.791116728521796,-7.454597670561535,-5.639997935269106,9.115605965278714,15.898784313959759,-0.06970197,-0.29968185,0.950620125,-0.15259999999999999,3.18934,1.26658,72.0
1774822033.1972277,2.0503997802734375e-05,2026-03-29T22:07:13.197,2026-03-29T18:07:13.197,-31997.024999999998,-49360.59,-84209.355,-50108.265,-14718.195,-19995.84,5069.61,-53090.415,7.565608025809287,1.1817605888974958,-6.128625611416338,-8.976379469994228,-8.813731488188152,-7.458813809222499,11.913939892006807,11.621754278161522,-0.06970197,-0.29968185,0.950620125,-0.15259999999999999,3.18934,1.26658,72.0
1774822033.1972358,8.106231689453125e-06,2026-03-29T22:07:13.197,2026-03-29T18:07:13.197,-31967.28,-49339.935,-84197.79,-50095.845,-14707.439999999999,-19990.755,5033.655,-53093.475,-3.7255109169593137,-5.129255363105186,-5.72914241008724,-6.667221634835409,-5.785461155543481,-5.521815352710654,9.202015267071737,1.8503030374513108,-0.06970197,-0.29968185,0.950620125,-0.15259999999999999,3.18934,1.26658,72.0
1774822033.198494,0.0012581348419189453,2026-03-29T22:07:13.198,2026-03-29T18:07:13.198,-31942.215,-49312.979999999996,-84172.455,-50074.2,-14690.564999999999,-19976.895,4999.995,-53089.02,-13.057381859468522,-8.722481773350916,-2.258266205218171,-0.8825450795109504,0.27083529979595883,-0.6396699058171396,2.484090155687787,-8.733262701833187,-0.06970197,-0.29968185,0.950620125,-0.15259999999999999,3.18934,1.26658,72.0
1774822033.1985085,1.4543533325195312e-05,2026-03-29T22:07:13.198,2026-03-29T18:07:13.198,-31932.765,-49292.505,-84143.34,-50039.595,-14649.84,-19935.135,4995.495,-53100.27,-16.220311513827266,-8.119136995817707,2.501263115250782,5.557628248580051,6.419047714666544,4.81081718731544,-4.974409836798003,-15.080402992536223,-0.06970197,-0.29968185,0.950620125,-0.15259999999999999,3.18934,1.26658,72.0
1774822033.202226,0.0037174224853515625,2026-03-29T22:07:13.202,2026-03-29T18:07:13.202,-31927.23,-49287.015,-84131.145,-50022.854999999996,-14626.619999999999,-19905.84,5030.19,-53095.68,-11.916839419842482,-3.8562484026581374,6.064556260859202,9.421608355648393,9.584491803453338,8.056847609962732,-9.748148477234396,-14.194327755975236,-0.06970197,-0.29968185,0.950620125,-0.15259999999999999,3.18934,1.26658,72.0
1774822033.2022395,1.3589859008789062e-05,2026-03-29T22:07:13.202,2026-03-29T18:07:13.202,-31971.824999999997,-49326.795,-84166.02,-50052.195,-14651.324999999999,-19918.305,5056.605,-53114.67,-2.2856887752333193,1.8888656940820179,6.538925406915998,8.694879118952606,8.100183598616256,7.3494208993553585,-9.844190058159425,-6.55628121941103,-0.06970197,-0.29968185,0.950620125,-0.15259999999999999,3.18934,1.26658,72.0
1774822033.207414,0.005174398422241211,2026-03-29T22:07:13.207,2026-03-29T18:07:13.207,-31987.844999999998,-49341.825,-84183.75,-50067.54,-14667.255,-19931.265,5037.345,-53123.715,8.154443526062003,6.404569479333162,3.6171926957186233,3.624278743003369,2.5798162321715337,2.901870703692445,-5.536243835531171,4.124401222922979,-0.072936825,-0.292052475,0.94701906,-7.7063,1.09872,2.38056,72.0
1774822033.207433,1.9073486328125e-05,2026-03-29T22:07:13.207,2026-03-29T18:07:13.207,-31935.96,-49299.345,-84151.215,-50045.13,-14653.17,-19921.68,5022.2699999999995,-53101.575,14.622901773376803,7.721843568419707,-1.2470693525743761,-3.3617324880054387,-4.338252930615209,-3.155054716602325,0.9093183024737238,12.711468148031267,-0.072936825,-0.292052475,0.94701906,-7.7063,1.09872,2.38056,72.0
1774822033.210857,0.003423929214477539,2026-03-29T22:07:13.210,2026-03-29T18:07:13.210,-31892.265,-49282.83,-84144.87,-50044.814999999995,-14656.68,-19930.005,5037.57,-53055.854999999996,14.26580134141191,5.462228438289325,-5.575779454922809,-8.833240720186865,-9.268447523240031,-7.806811605246755,6.419553549614746,15.119921768598632,-0.072936825,-0.292052475,0.94701906,-7.7063,1.09872,2.38056,72.0
1774822033.2108912,3.4332275390625e-05,2026-03-29T22:07:13.210,2026-03-29T18:07:13.210,-31911.524999999998,-49306.005,-84174.20999999999,-50076.854999999996,-14691.06,-19969.469999999998,5007.69,-53073.63,7.4141982189528015,0.8975261387785378,-7.1361822182211565,-10.058854133944607,-9.751421776659281,-8.670353138707934,8.59469607626786,10.271699723650688,-0.072936825,-0.292052475,0.94701906,-7.7063,1.09872,2.38056,72.0
1774822033.2349176,0.02402639389038086,2026-03-29T22:07:13.234,2026-03-29T18:07:13.234,-31906.305,-49307.354999999996,-84180.285,-50083.604999999996,-14690.025,-19965.555,4999.86,-53089.965,-2.642460447831387,-3.7485055782185417,-5.090922914743505,-6.376321110512663,-5.489349109310494,-5.223025513261671,6.7624440422686725,0.5864686969093781,-0.072936825,-0.292052475,0.94701906,-7.7063,1.09872,2.38056,72.0
1774822033.2349815,6.389617919921875e-05,2026-03-29T22:07:13.234,2026-03-29T18:07:13.234,-31917.329999999998,-49313.295,-84175.515,-50080.275,-14686.38,-19966.005,5022.315,-53084.564999999995,-11.230863719958432,-6.379905029431976,-0.436705126322367,0.4569564201469816,1.481023853539168,0.891907010384723,2.139359388091869,-9.220642092632383,-0.072936825,-0.292052475,0.94701906,-7.7063,1.09872,2.38056,72.0
1774822033.2350678,8.630752563476562e-05,2026-03-29T22:07:13.235,2026-03-29T18:07:13.235,-31958.28,-49337.595,-84188.52,-50089.455,-14701.005,-19979.145,5042.745,-53092.305,-14.465511807417478,-5.967141794925757,4.494341222678304,7.11642655152727,7.774648244640313,6.657431111039424,-2.9072078660682195,-14.43959347531701,-0.072936825,-0.292052475,0.94701906,-7.7063,1.09872,2.38056,72.0
1774822033.235098,3.0040740966796875e-05,2026-03-29T22:07:13.235,2026-03-29T18:07:13.235,-31985.145,-49333.994999999995,-84168.54,-50063.715,-14677.019999999999,-19955.925,5017.095,-53113.994999999995,-11.008965041193798,-2.928105511616981,7.2158469693507925,10.346455517452036,10.32058003423401,9.186562374591942,-6.0708781005976205,-12.639491654256764,-0.072936825,-0.292052475,0.94701906,-7.7063,1.09872,2.38056,72.0
1774822033.235133,3.504753112792969e-05,2026-03-29T22:07:13.235,2026-03-29T18:07:13.235,-31991.895,-49353.39,-84196.575,-50084.369999999995,-14688.63,-19960.335,5015.7,-53109.81,-2.622132184303487,1.1763980697597423,6.3478409821325865,8.567037230628491,7.876208993488358,7.181421656037736,-6.171553679648095,-4.812346343280584,-0.072936825,-0.292052475,0.94701906,-7.7063,1.09872,2.38056,72.0
1774822033.2351615,2.86102294921875e-05,2026-03-29T22:07:13.235,2026-03-29T18:07:13.235,-31960.754999999997,-49344.795,-84199.31999999999,-50087.115,-14691.42,-19966.23,5009.76,-53094.555,6.721147734350421,4.437342121168392,2.3151900457733277,2.6519667017039494,1.6400378668942333,1.6045403399845726,-3.577123075681144,5.157631427062803,-0.072936825,-0.292052475,0.94701906,-7.7063,1.09872,2.38056,72.0
1774822033.2351935,3.1948089599609375e-05,2026-03-29T22:07:13.235,2026-03-29T18:07:13.235,-31927.77,-49332.33,-84199.68,-50091.345,-14699.43,-19983.42,4961.835,-53074.305,12.715484218107578,5.480932926872875,-2.8688448863442533,-4.50681638429407,-5.341640849567873,-4.786549126878618,0.15837841546985454,12.421686812140832,-0.075500295,-0.30114669,0.946958025,-7.6452599999999995,2.0295799999999997,2.39582,72.0
1774822033.235219,2.5510787963867188e-05,2026-03-29T22:07:13.235,2026-03-29T18:07:13.235,-31922.37,-49333.545,-84204.81,-50103.18,-14715.945,-19999.665,4946.22,-53065.125,12.711769851277586,4.034544745514637,-6.6199974823271575,-9.428541956046818,-9.677739208640553,-8.814299264871783,3.18297612090075,13.534353783005665,-0.075500295,-0.30114669,0.946958025,-7.6452599999999995,2.0295799999999997,2.39582,72.0
1774822033.2380402,0.002821207046508789,2026-03-29T22:07:13.238,2026-03-29T18:07:13.238,-31954.23,-49333.905,-84190.14,-50086.53,-14695.335,-19969.515,5007.69,-53088.435,6.891908709410919,0.9493525737866183,-7.082228957035548,-9.753522312890427,-9.296898627312975,-8.47455147428367,4.26858833386318,8.100376131375794,-0.075500295,-0.30114669,0.946958025,-7.6452599999999995,2.0295799999999997,2.39582,72.0
1774822033.2380831,4.291534423828125e-05,2026-03-29T22:07:13.238,2026-03-29T18:07:13.238,-31963.5,-49311.405,-84151.44,-50043.689999999995,-14650.244999999999,-19924.11,5078.79,-53106.84,-1.8929813109837677,-2.2798933157212073,-4.051415205684618,-5.386323127783752,-4.449041035762848,-3.9433077744836083,3.306009736641818,-1.092955611857541,-0.075500295,-0.30114669,0.946958025,-7.6452599999999995,2.0295799999999997,2.39582,72.0
1774822033.2381082,2.5033950805664062e-05,2026-03-29T22:07:13.238,2026-03-29T18:07:13.238,-31958.28,-49324.59,-84173.22,-50064.119999999995,-14671.935,-19945.844999999998,5064.929999999999,-53098.92,-9.51339714507364,-4.2350491579376754,0.9379308086011451,1.4863989970004456,2.445256068447105,2.512576298306987,1.1755235837905806,-9.498534275682074,-0.075500295,-0.30114669,0.946958025,-7.6452599999999995,2.0295799999999997,2.39582,72.0
1774822033.2381213,1.3113021850585938e-05,2026-03-29T22:07:13.238,2026-03-29T18:07:13.238,-31944.87,-49327.064999999995,-84178.26,-50068.979999999996,-14677.47,-19949.13,5044.7699999999995,-53085.915,-12.50581977766389,-4.190030605710769,5.397308921331265,7.4983359139972325,8.01046609569527,7.675346222355982,-0.8637025354538878,-13.063893425043346,-0.075500295,-0.30114669,0.946958025,-7.6452599999999995,2.0295799999999997,2.39582,72.0
1774822033.2381363,1.5020370483398438e-05,2026-03-29T22:07:13.238,2026-03-29T18:07:13.238,-31940.46,-49325.22,-84174.885,-50067.405,-14682.42,-19960.38,5038.83,-53080.064999999995,-9.653670602673127,-2.358740285570648,7.135676319594994,9.766871181475121,9.582775265693721,8.99016191604166,-1.8868002629609881,-10.196783245672808,-0.075500295,-0.30114669,0.946958025,-7.6452599999999995,2.0295799999999997,2.39582,72.0
1774822033.2381475,1.1205673217773438e-05,2026-03-29T22:07:13.238,2026-03-29T18:07:13.238,-31944.015,-49327.064999999995,-84183.66,-50080.32,-14701.365,-19982.925,5023.98,-53081.415,-2.4795494823937325,0.2957556231540933,5.344175748272801,7.289119673461449,6.498535281779579,5.838441547465753,-1.7258994495895772,-2.4824935387307607,-0.075500295,-0.30114669,0.946958025,-7.6452599999999995,2.0295799999999997,2.39582,72.0
1774822033.2425263,0.004378795623779297,2026-03-29T22:07:13.242,2026-03-29T18:07:13.242,-31932.989999999998,-49316.04,-84184.785,-50087.79,-14708.925,-19983.915,5020.155,-53075.43,5.550120021988305,2.559034645740972,0.9741058988161159,1.3887851193577871,0.3756538358001894,-0.16775671065721284,-0.9074510797184501,6.173886411722783,-0.075500295,-0.30114669,0.946958025,-7.6452599999999995,2.0295799999999997,2.39582,72.0
1774822033.2425492,2.288818359375e-05,2026-03-29T22:07:13.242,2026-03-29T18:07:13.242,-31910.94,-49322.43,-84205.26,-50105.205,-14718.33,-19989.09,5029.335,-53054.775,10.699695416597114,3.5167885241425476,-3.768461856220058,-4.986220527514644,-5.731280144603739,-6.0111161401292685,-0.19817618258201875,11.52350285555726,-0.075500295,-0.30114669,0.946958025,-7.6452599999999995,2.0295799999999997,2.39582,72.0
1774822033.246443,0.0038938522338867188,2026-03-29T22:07:13.246,2026-03-29T18:07:13.246,-31895.55,-49328.955,-84216.105,-50118.165,-14732.91,-20015.37,5021.054999999999,-53037.27,10.709222015206517,2.9121212812722996,-6.5423951187350085,-8.743916047615684,-8.861581628245677,-8.789997370221045,-0.06872378004047307,11.068013038172213,-0.07910136,-0.311705745,0.945615255,2.99096,0.6867,2.48738,72.0
1774822033.246477,3.3855438232421875e-05,2026-03-29T22:07:13.246,2026-03-29T18:07:13.246,-31914.809999999998,-49337.64,-84211.92,-50114.52,-14732.279999999999,-20017.53,4999.05,-53052.165,5.790912580917937,1.1761506659210073,-6.034460583095211,-8.15937040313651,-7.594284553849152,-7.164951932954405,-0.4092283138698742,5.235176499299102,-0.07910136,-0.311705745,0.945615255,2.99096,0.6867,2.48738,72.0
1774822033.2535715,0.007094621658325195,2026-03-29T22:07:13.253,2026-03-29T18:07:13.253,-31957.92,-49338.36,-84194.55,-50094.54,-14712.48,-19988.594999999998,5002.514999999999,-53091.81,-1.5651507332129728,-0.8404353904347398,-2.5849044942310515,-3.673250181589381,-2.6984555191366875,-2.006813003023381,-0.6602560730862976,-2.922174463609197,-0.07910136,-0.311705745,0.945615255,2.99096,0.6867,2.48738,72.0
1774822033.2535985,2.6941299438476562e-05,2026-03-29T22:07:13.253,2026-03-29T18:07:13.253,-31975.245,-49332.42,-84175.73999999999,-50068.89,-14682.105,-19951.11,4999.905,-53124.345,-7.8438094939808,-2.2796112092236402,2.02345016004928,2.3944276661064183,3.311462967286204,4.067798828583241,-0.26076101720785666,-9.315355398217012,-0.07910136,-0.311705745,0.945615255,2.99096,0.6867,2.48738,72.0
1774822033.2536192,2.0742416381835938e-05,2026-03-29T22:07:13.253,2026-03-29T18:07:13.253,-31977.719999999998,-49330.799999999996,-84156.03,-50046.165,-14658.975,-19932.57,4981.005,-53133.255,-10.188889403462177,-2.63478449588763,5.486927710245737,7.04178295096848,7.464971019122504,8.025534694065636,0.8838716450437005,-10.873078239477097,-0.07910136,-0.311705745,0.945615255,2.99096,0.6867,2.48738,72.0
1774822033.2536266,7.3909759521484375e-06,2026-03-29T22:07:13.253,2026-03-29T18:07:13.253,-31957.605,-49331.7,-84158.55,-50044.545,-14655.689999999999,-19928.61,5016.6449999999995,-53103.869999999995,-7.709205088238117,-1.9099072727074407,6.136301837317112,8.075779378815787,7.808135786327942,7.932725583801565,2.2290061285959646,-7.025113925637233,-0.07910136,-0.311705745,0.945615255,2.99096,0.6867,2.48738,72.0
1774822033.2585216,0.00489497184753418,2026-03-29T22:07:13.258,2026-03-29T18:07:13.258,-31969.754999999997,-49323.33,-84155.22,-50041.53,-14659.47,-19948.23,5050.845,-53109.854999999996,-1.8055045815066104,-0.5410839250959275,3.7444534156928637,5.1529437417451405,4.326915336606357,3.89933575592758,2.8537385384196474,0.10486209243261291,-0.07910136,-0.311705745,0.945615255,2.99096,0.6867,2.48738,72.0
1774822033.2585557,3.409385681152344e-05,2026-03-29T22:07:13.258,2026-03-29T18:07:13.258,-31952.789999999997,-49309.2,-84152.655,-50047.244999999995,-14671.98,-19970.774999999998,5026.1849999999995,-53107.11,4.595545934353773,0.848347189460594,-0.4055347997568902,-0.12627025327122784,-1.116820205858091,-2.01003018508715,2.0315550087397627,6.853024171839792,-0.07910136,-0.311705745,0.945615255,2.99096,0.6867,2.48738,72.0
1774822033.2624235,0.0038678646087646484,2026-03-29T22:07:13.262,2026-03-29T18:07:13.262,-31925.25,-49308.435,-84159.98999999999,-50053.994999999995,-14673.24,-19963.44,4998.24,-53080.02,8.490577019005606,1.7279365500573196,-4.2038944926579935,-5.081190207730768,-5.77149461391551,-6.834731993176696,-0.22550061153643608,9.895960636051438,-0.07910136,-0.311705745,0.945615255,2.99096,0.6867,2.48738,72.0
1774822033.2624364,1.2874603271484375e-05,2026-03-29T22:07:13.262,2026-03-29T18:07:13.262,-31891.41,-49291.38,-84161.79,-50057.64,-14666.76,-19932.3,5025.825,-53046.765,8.2142817464916,1.851793003530704,-5.786404602613981,-7.310577678774923,-7.384526628159522,-8.201425902499398,-3.000686322303654,7.892888438919939,-0.07910136,-0.311705745,0.945615255,2.99096,0.6867,2.48738,72.0
1774822033.2665749,0.004138469696044922,2026-03-29T22:07:13.266,2026-03-29T18:07:13.266,-31920.03,-49323.104999999996,-84207.645,-50102.865,-14707.305,-19962.765,5030.415,-53060.445,4.149976161504768,1.2991219182956255,-4.449899528037232,-5.858270681594658,-5.292422441503795,-5.487605334226756,-4.842514353334939,2.0746833176042365,-0.083312775,-0.3100578,0.945371115,5.81406,0.18312,3.5860999999999996,72.0
1774822033.2666008,2.5987625122070312e-05,2026-03-29T22:07:13.266,2026-03-29T18:07:13.266,-31959.27,-49338.09,-84199.815,-50084.28,-14685.84,-19947.465,5037.12,-53101.979999999996,-1.5668810341711115,0.37828667557293505,-0.9609695200966362,-1.617671767608251,-0.6843033194292716,-0.09603334282064957,-4.523349572135527,-4.478518554220535,-0.083312775,-0.3100578,0.945371115,5.81406,0.18312,3.5860999999999996,72.0
1774822033.2706184,0.00401759147644043,2026-03-29T22:07:13.270,2026-03-29T18:07:13.270,-31941.495,-49325.265,-84185.09999999999,-50072.265,-14678.279999999999,-19942.559999999998,5048.37,-53094.195,-6.158963621720907,-0.5356424195217115,2.875313739081566,3.1925598802272366,4.059879362616649,5.275746149945961,-1.7911609822450552,-8.459627683903994,-0.083312775,-0.3100578,0.945371115,5.81406,0.18312,3.5860999999999996,72.0
1774822033.2706397,2.1219253540039062e-05,2026-03-29T22:07:13.270,2026-03-29T18:07:13.270,-31917.87,-49325.67,-84194.415,-50088.78,-14701.859999999999,-19969.425,5029.335,-53061.795,-7.557841631255696,-1.1478640490591334,5.146894792077802,6.182390898138658,6.592793064087898,7.987367053392694,2.3236575049510186,-8.005160744413388,-0.083312775,-0.3100578,0.945371115,5.81406,0.18312,3.5860999999999996,72.0
1774822033.2745528,0.003913164138793945,2026-03-29T22:07:13.274,2026-03-29T18:07:13.274,-31927.32,-49333.77,-84197.655,-50091.345,-14703.57,-19976.67,5010.165,-53067.42,-5.336668198709114,-1.3212734427854331,4.786007617699609,5.975521896250571,5.757042024425403,6.74921888924502,5.879901213804073,-3.568464947064331,-0.083312775,-0.3100578,0.945371115,5.81406,0.18312,3.5860999999999996,72.0
1774822033.2745788,2.5987625122070312e-05,2026-03-29T22:07:13.274,2026-03-29T18:07:13.274,-31941.315,-49336.604999999996,-84200.805,-50095.395,-14707.35,-19979.055,5004.2699999999995,-53084.115,-0.8032708019186416,-1.0759304983499298,2.067028922216629,2.838182173671121,2.1065598179228955,2.224776738895754,6.951967814468351,2.4146725778401437,-0.083312775,-0.3100578,0.945371115,5.81406,0.18312,3.5860999999999996,72.0
1774822033.2791076,0.00452876091003418,2026-03-29T22:07:13.279,2026-03-29T18:07:13.279,-31947.84,-49322.475,-84177.18,-50068.395,-14679.269999999999,-19952.415,5010.345,-53103.329999999994,3.7395648691771965,-0.5389165123993456,-1.5794538638936262,-1.533526237918589,-2.4391689681431843,-3.3346098245415075,4.664787774367388,6.84939195822263,-0.083312775,-0.3100578,0.945371115,5.81406,0.18312,3.5860999999999996,72.0
1774822033.2791355,2.7894973754882812e-05,2026-03-29T22:07:13.279,2026-03-29T18:07:13.279,-31922.82,-49304.34,-84158.09999999999,-50051.52,-14668.019999999999,-19950.795,5010.885,-53092.53,6.158635416778709,0.11578370618386613,-4.318125994778709,-4.922204612531532,-5.600081185378023,-7.2179535121555904,-0.21513119786632917,7.580498967532386,-0.083312775,-0.3100578,0.945371115,5.81406,0.18312,3.5860999999999996,72.0
1774822033.2823417,0.0032062530517578125,2026-03-29T22:07:13.282,2026-03-29T18:07:13.282,-31918.59,-49298.13,-84152.83499999999,-50048.865,-14667.029999999999,-19948.32,5035.95,-53079.03,5.491856989076545,0.7112873739505782,-4.831333707790407,-5.709681929005149,-5.874495027428792,-7.5762074903368655,-5.498078824022111,4.4407115667194805,-0.083312775,-0.3100578,0.945371115,5.81406,0.18312,3.5860999999999996,72.0
1774822033.2823548,1.3113021850585938e-05,2026-03-29T22:07:13.282,2026-03-29T18:07:13.282,-31954.995,-49311.99,-84156.84,-50046.525,-14662.619999999999,-19943.55,5042.025,-53111.07,2.315918907573225,1.0933733147878084,-2.9486225605702105,-3.643957528156091,-3.2439958472311137,-4.292166578166703,-8.562641251939816,-0.7626795638873969,-0.083312775,-0.3100578,0.945371115,5.81406,0.18312,3.5860999999999996,72.0
1774822033.2868497,0.004494905471801758,2026-03-29T22:07:13.286,2026-03-29T18:07:13.286,-31951.98,-49332.689999999995,-84191.44499999999,-50083.29,-14700.105,-19979.415,5005.349999999999,-53105.67,-1.6517947243404902,1.1511943925059276,0.3159444867982431,0.10902082114158695,0.8833115048843599,1.0061601008063652,-7.66768811414928,-5.268890059322424,-0.08569314,-0.30255049500000003,0.94653078,1.4497,0.57988,4.440659999999999,72.0
1774822033.2868807,3.0994415283203125e-05,2026-03-29T22:07:13.286,2026-03-29T18:07:13.286,-31938.3,-49338.27,-84205.89,-50100.75,-14715.72,-19991.34,4979.925,-53092.259999999995,-4.467730804927194,0.8448096692639849,3.3117686916927482,3.6165572176795537,4.427409098900539,5.7669759376532825,-2.9239263385307703,-6.823455757685478,-0.08569314,-0.30255049500000003,0.94653078,1.4497,0.57988,4.440659999999999,72.0
1774822033.290444,0.0035631656646728516,2026-03-29T22:07:13.290,2026-03-29T18:07:13.290,-31934.295,-49340.295,-84207.105,-50103.854999999996,-14715.09,-19985.04,4985.235,-53079.93,-4.9107448007429415,0.23491309706061828,4.588571282931627,5.1728167445349085,5.68423804592226,7.750125853604612,3.6096745419371765,-4.806418432608548,-0.08569314,-0.30255049500000003,0.94653078,1.4497,0.57988,4.440659999999999,72.0
1774822033.2904675,2.3603439331054688e-05,2026-03-29T22:07:13.290,2026-03-29T18:07:13.290,-31926.735,-49319.28,-84171.645,-50063.715,-14677.019999999999,-19949.67,5012.6849999999995,-53072.325,-3.0022918823387545,-0.5065658782264022,3.5964412547893367,4.124083023528566,4.138339585749504,6.0749495945362435,8.821927674589864,-0.4633020406169268,-0.08569314,-0.30255049500000003,0.94653078,1.4497,0.57988,4.440659999999999,72.0
1774822033.3012643,0.010796785354614258,2026-03-29T22:07:13.301,2026-03-29T18:07:13.301,-31936.77,-49317.705,-84166.965,-50051.25,-14662.755,-19933.469999999998,5045.58,-53090.595,0.1185576528815931,-1.128598532178901,0.9113728839665516,1.1274569635418406,0.654943529720449,1.5928878411925242,10.047367622531855,3.8375184958995647,-0.08569314,-0.30255049500000003,0.94653078,1.4497,0.57988,4.440659999999999,72.0
1774822033.3012989,3.457069396972656e-05,2026-03-29T22:07:13.301,2026-03-29T18:07:13.301,-31920.254999999997,-49332.42,-84204.315,-50098.185,-14712.795,-19979.28,5018.535,-53070.39,2.848605836641827,-1.3817957812456625,-2.1003834008019213,-2.250666818410422,-3.008689691799519,-3.563044790395979,6.4378060571996745,5.889200834759025,-0.08569314,-0.30255049500000003,0.94653078,1.4497,0.57988,4.440659999999999,72.0
1774822033.3013272,2.8371810913085938e-05,2026-03-29T22:07:13.301,2026-03-29T18:07:13.301,-31914.045,-49321.53,-84192.66,-50086.53,-14700.689999999999,-19967.805,5012.325,-53073.18,3.936642949307631,-1.1239390470480302,-3.9848070993953746,-4.356830161061008,-5.0965617447876665,-7.007040285810536,-0.5014287805561579,4.778978959920839,-0.08569314,-0.30255049500000003,0.94653078,1.4497,0.57988,4.440659999999999,72.0
1774822033.3013391,1.1920928955078125e-05,2026-03-29T22:07:13.301,2026-03-29T18:07:13.301,-31919.895,-49310.955,-84169.305,-50055.975,-14666.984999999999,-19932.12,5017.815,-53083.079999999994,3.048794187349422,-0.40266579951971604,-3.9054164761231442,-4.26065840648571,-4.694845991105053,-7.205100408187192,-7.532544097098918,1.2868989782723337,-0.08569314,-0.30255049500000003,0.94653078,1.4497,0.57988,4.440659999999999,72.0
1774822033.3013537,1.4543533325195312e-05,2026-03-29T22:07:13.301,2026-03-29T18:07:13.301,-31950.945,-49299.435,-84136.14,-50017.049999999996,-14628.644999999999,-19899.54,5020.695,-53131.725,0.8312092756637552,0.5332445311443433,-2.007369368715863,-2.1550227163640576,-2.1175227121427613,-4.14364734858035,-11.211517316255666,-2.6198981288545475,-0.08569314,-0.30255049500000003,0.94653078,1.4497,0.57988,4.440659999999999,72.0
1774822033.3013642,1.049041748046875e-05,2026-03-29T22:07:13.301,2026-03-29T18:07:13.301,-31937.219999999998,-49278.195,-84113.19,-49995.9,-14611.904999999999,-19890.405,4999.005,-53131.365,-1.5096738348308216,1.315072534393556,0.7149017932930002,0.8207412103846476,1.318723783791762,0.7217422855267362,-9.593091365441392,-4.8854080636222825,-0.08569314,-0.30255049500000003,0.94653078,1.4497,0.57988,4.440659999999999,72.0
1774822033.3075743,0.0062100887298583984,2026-03-29T22:07:13.307,2026-03-29T18:07:13.307,-31952.385,-49312.125,-84156.705,-50046.165,-14664.465,-19938.69,5001.12,-53119.079999999994,-2.8525693228518256,1.6040139130998912,2.9483614246921794,3.2035764031833813,3.9797373879475617,5.177046174749104,-3.262612455323455,-4.447010346790326,-0.08801247,-0.298033905,0.9473852700000001,-6.790699999999999,0.8392999999999999,5.4173,72.0
1774822033.3075972,2.288818359375e-05,2026-03-29T22:07:13.307,2026-03-29T18:07:13.307,-31941.719999999998,-49314.869999999995,-84167.37,-50058.63,-14676.21,-19946.745,5017.005,-53108.415,-2.6906822104954218,1.2462723886422669,3.7043844270468864,3.933958774089679,4.698291238433231,7.2650389697028475,4.853651216073712,-1.731702959950364,-0.08801247,-0.298033905,0.9473852700000001,-6.790699999999999,0.8392999999999999,5.4173,72.0
1774822033.3117137,0.004116535186767578,2026-03-29T22:07:13.311,2026-03-29T18:07:13.311,-31921.605,-49304.295,-84162.015,-50050.395,-14665.32,-19932.93,5046.615,-53092.305,-1.2980299774434183,0.3584920513798398,2.755036364191272,2.8227842522077298,3.2778753413665984,6.136135625449853,10.852760722800404,1.66470410035026,-0.08801247,-0.298033905,0.9473852700000001,-6.790699999999999,0.8392999999999999,5.4173,72.0
1774822033.3117433,2.956390380859375e-05,2026-03-29T22:07:13.311,2026-03-29T18:07:13.311,-31919.715,-49310.28,-84167.055,-50052.15,-14665.635,-19935.719999999998,5065.245,-53085.509999999995,0.5052608234957291,-0.7050233893637703,0.6705143205308598,0.5540555182157715,0.5025880069384362,2.369920604113107,11.75255614368226,3.9000859498270417,-0.08801247,-0.298033905,0.9473852700000001,-6.790699999999999,0.8392999999999999,5.4173,72.0
1774822033.3153036,0.003560304641723633,2026-03-29T22:07:13.315,2026-03-29T18:07:13.315,-31955.489999999998,-49339.305,-84194.86499999999,-50081.67,-14694.795,-19962.63,5058.135,-53101.845,1.8219201798954003,-1.4976845491430788,-1.52294142412245,-1.7313552563106782,-2.3055947290169096,-2.33987557556411,6.990433852771609,3.8841365449079293,-0.08801247,-0.298033905,0.9473852700000001,-6.790699999999999,0.8392999999999999,5.4173,72.0
1774822033.3153389,3.528594970703125e-05,2026-03-29T22:07:13.315,2026-03-29T18:07:13.315,-31957.92,-49354.38,-84223.98,-50116.545,-14733.045,-20001.51,5032.035,-53102.79,2.117667282134587,-1.676910323836565,-2.862193061090762,-3.022391047875794,-3.930636129751492,-5.9602607323054935,-1.2370198130731098,1.812037943448109,-0.08801247,-0.298033905,0.9473852700000001,-6.790699999999999,0.8392999999999999,5.4173,72.0
1774822033.3185756,0.0032367706298828125,2026-03-29T22:07:13.318,2026-03-29T18:07:13.318,-31928.579999999998,-49350.195,-84224.565,-50121.63,-14742.314999999999,-20022.48,4990.32,-53077.725,1.4188316781489971,-1.160743273504671,-2.8755962712892047,-2.888688941474436,-3.7880864511235846,-6.993490089773651,-8.99357560675303,-1.0286256291146227,-0.08801247,-0.298033905,0.9473852700000001,-6.790699999999999,0.8392999999999999,5.4173,72.0
1774822033.3186045,2.8848648071289062e-05,2026-03-29T22:07:13.318,2026-03-29T18:07:13.318,-31930.92,-49343.805,-84205.485,-50099.58,-14722.92,-20011.274999999998,4973.58,-53083.575,0.20618328998002097,-0.1690468071020355,-1.7274436132925237,-1.5929631925373773,-2.106127805970212,-5.077312089371261,-12.505941866632549,-3.0326559818492056,-0.08801247,-0.298033905,0.9473852700000001,-6.790699999999999,0.8392999999999999,5.4173,72.0
1774822033.3280668,0.009462356567382812,2026-03-29T22:07:13.328,2026-03-29T18:07:13.328,-31940.37,-49329.854999999996,-84186.855,-50069.295,-14684.445,-19957.95,4995.585,-53101.034999999996,-0.8930885013944193,0.873137880396717,-0.048269378213079535,0.14239816636641625,0.2746213960760713,-1.0816933278415501,-10.020704204884956,-3.178452259132033,-0.08801247,-0.298033905,0.9473852700000001,-6.790699999999999,0.8392999999999999,5.4173,72.0
1774822033.328088,2.1219253540039062e-05,2026-03-29T22:07:13.328,2026-03-29T18:07:13.328,-31953.69,-49321.17,-84172.455,-50048.145,-14658.39,-19918.71,5049.0,-53118.63,-1.4265068934597196,1.526311749777992,1.4203861649316154,1.546002008811882,2.33712898383509,3.301914774035372,-2.691891962354369,-1.552890389268853,-0.08801247,-0.298033905,0.9473852700000001,-6.790699999999999,0.8392999999999999,5.4173,72.0
1774822033.328108,2.002716064453125e-05,2026-03-29T22:07:13.328,2026-03-29T18:07:13.328,-31958.82,-49339.89,-84193.515,-50071.005,-14687.55,-19957.005,5040.405,-53128.619999999995,-1.2872457060811668,1.5316884206216184,2.1651958698681377,2.151220410149051,3.3283097614025117,6.278280442142488,5.955588073392275,0.7715130671012008,-0.090026625,-0.30432051,0.943295925,-8.6219,-0.6103999999999999,6.97382,72.0
1774822033.328116,7.867813110351562e-06,2026-03-29T22:07:13.328,2026-03-29T18:07:13.328,-31921.155,-49328.28,-84193.92,-50077.935,-14701.859999999999,-19989.675,4996.98,-53099.505,-0.6796987553616625,0.9192289098554536,2.0637697423723864,1.926086825686114,3.010605830178949,6.668577745276251,11.737000790333118,2.406101244199293,-0.090026625,-0.30432051,0.943295925,-8.6219,-0.6103999999999999,6.97382,72.0
1774822033.330844,0.002727985382080078,2026-03-29T22:07:13.330,2026-03-29T18:07:13.330,-31918.68,-49318.11,-84175.56,-50064.479999999996,-14687.189999999999,-19971.54,4995.179999999999,-53088.704999999994,0.056000381727179124,-0.01975419999030409,1.3296824010241832,1.1603125555474405,1.6557045446768996,4.353279779723098,11.855376865318938,2.4591424159482598,-0.090026625,-0.30432051,0.943295925,-8.6219,-0.6103999999999999,6.97382,72.0
1774822033.3308656,2.1696090698242188e-05,2026-03-29T22:07:13.330,2026-03-29T18:07:13.330,-31920.704999999998,-49299.075,-84149.45999999999,-50046.795,-14666.715,-19939.68,5020.065,-53087.22,0.6337761533811747,-0.8771510376243155,0.3212010645461529,0.22725265734885303,-0.15613218780777807,0.2857574181866916,6.273181482579482,1.0239720575139677,-0.090026625,-0.30432051,0.943295925,-8.6219,-0.6103999999999999,6.97382,72.0
1774822033.3369565,0.006090879440307617,2026-03-29T22:07:13.336,2026-03-29T18:07:13.336,-31936.454999999998,-49320.854999999996,-84173.12999999999,-50065.064999999995,-14678.64,-19945.98,5035.59,-53102.295,0.9204685461002701,-1.3156464406260255,-0.6480183925459702,-0.6126163487733006,-1.7959009753063402,-3.9046511906479924,-2.2734078919123344,-0.9251424014014413,-0.090026625,-0.30432051,0.943295925,-8.6219,-0.6103999999999999,6.97382,72.0
1774822033.3369782,2.1696090698242188e-05,2026-03-29T22:07:13.336,2026-03-29T18:07:13.336,-31952.16,-49352.805,-84202.11,-50085.54,-14702.039999999999,-19976.04,5019.255,-53110.395,0.9179588001182265,-1.2082600170565976,-1.3914017651339765,-1.2585047178636164,-2.7835757370154006,-6.553374200626642,-9.625419291834339,-2.149337988374615,-0.090026625,-0.30432051,0.943295925,-8.6219,-0.6103999999999999,6.97382,72.0
1774822033.3400917,0.0031135082244873047,2026-03-29T22:07:13.340,2026-03-29T18:07:13.340,-31974.704999999998,-49345.515,-84184.245,-50063.354999999996,-14681.25,-19962.315,5014.215,-53143.47,0.6825643481898905,-0.6681366229761108,-1.8129460899010177,-1.6773080021785651,-2.874966855471853,-6.600832143841347,-12.245742117825898,-1.900058801497658,-0.090026625,-0.30432051,0.943295925,-8.6219,-0.6103999999999999,6.97382,72.0
1774822033.3401136,2.193450927734375e-05,2026-03-29T22:07:13.340,2026-03-29T18:07:13.340,-31950.449999999997,-49311.765,-84169.08,-50058.314999999995,-14678.414999999999,-19963.71,4982.535,-53141.715,0.26465197475466157,0.034326828069274694,-1.8269606511666856,-1.7829769730645921,-2.063946727970736,-3.9985368141860245,-8.942558954296826,-0.36553175855197206,-0.090026625,-0.30432051,0.943295925,-8.6219,-0.6103999999999999,6.97382,72.0
1774822033.3426945,0.002580881118774414,2026-03-29T22:07:13.342,2026-03-29T18:07:13.342,-31912.829999999998,-49304.655,-84169.34999999999,-50063.67,-14685.39,-19972.079999999998,4963.995,-53102.475,-0.2836530542415989,0.6137410756872238,-1.3338403632211764,-1.4123890967802495,-0.5561292770679949,0.2644254112513744,-1.4214153994580763,1.452232591856199,-0.090026625,-0.30432051,0.943295925,-8.6219,-0.6103999999999999,6.97382,72.0
1774822033.3427184,2.384185791015625e-05,2026-03-29T22:07:13.342,2026-03-29T18:07:13.342,-31903.245,-49308.165,-84173.355,-50078.744999999995,-14704.244999999999,-19976.67,4999.95,-53081.189999999995,-0.8531806002391595,0.8939535773064786,-0.29854474261755476,-0.44460872446062977,1.2552949515882241,4.525866299602593,6.5951243355779,2.354778121842731,-0.090026625,-0.30432051,0.943295925,-8.6219,-0.6103999999999999,6.97382,72.0
1774822033.348232,0.005513668060302734,2026-03-29T22:07:13.348,2026-03-29T18:07:13.348,-31926.735,-49313.34,-84168.045,-50066.415,-14685.525,-19948.364999999998,5048.595,-53101.979999999996,-1.24483150554758,0.8556721511778829,1.1153606333705544,1.0087836795778806,2.831090103030418,7.079132860274784,11.22601064867791,1.6917837471335313,-0.090270765,-0.312438165,0.939877965,-6.134519999999999,-0.59514,7.9199399999999995,72.0
1774822033.3482592,2.7179718017578125e-05,2026-03-29T22:07:13.348,2026-03-29T18:07:13.348,-31961.43,-49333.95,-84187.845,-50073.615,-14685.66,-19949.265,5031.495,-53141.445,-1.2214103514133248,0.5975599063721486,2.471873048411364,2.493432554295574,3.591782417256658,6.8401109822593575,10.333185268290368,-0.21292862761536738,-0.090270765,-0.312438165,0.939877965,-6.134519999999999,-0.59514,7.9199399999999995,72.0
1774822033.3509865,0.0027272701263427734,2026-03-29T22:07:13.350,2026-03-29T18:07:13.350,-31958.055,-49331.475,-84186.54,-50066.415,-14678.189999999999,-19947.465,4994.505,-53149.365,-0.6437117390823832,0.25005006857859924,3.1548113308603702,3.311851961236541,3.108564132403038,3.8014137321827226,4.52369263676547,-2.2181036539563808,-0.090270765,-0.312438165,0.939877965,-6.134519999999999,-0.59514,7.9199399999999995,72.0
1774822033.351018,3.147125244140625e-05,2026-03-29T22:07:13.351,2026-03-29T18:07:13.351,-31943.16,-49296.78,-84139.47,-50020.65,-14635.845,-19907.864999999998,5011.83,-53156.655,0.3854094992487391,-0.09752024142828872,2.6383939031162216,2.8426790011260477,1.3301998437073286,-0.9137955917398137,-3.22497002451585,-3.028870723992585,-0.090270765,-0.312438165,0.939877965,-6.134519999999999,-0.59514,7.9199399999999995,72.0
1774822033.3546648,0.0036468505859375,2026-03-29T22:07:13.354,2026-03-29T18:07:13.354,-31934.699999999997,-49302.314999999995,-84152.655,-50034.825,-14653.08,-19929.285,5008.679999999999,-53146.935,1.478662183569767,-0.4133135125487689,0.8214881239005969,0.9365331194605925,-1.2700757266179845,-5.44601739415345,-9.097457131067735,-1.9888653596384682,-0.090270765,-0.312438165,0.939877965,-6.134519999999999,-0.59514,7.9199399999999995,72.0
1774822033.354696,3.123283386230469e-05,2026-03-29T22:07:13.354,2026-03-29T18:07:13.354,-31933.215,-49307.445,-84162.645,-50049.405,-14670.269999999999,-19958.535,4979.97,-53137.305,2.092462593266912,-0.683414881190456,-1.7694613380300968,-1.8443766789186316,-3.752337218967731,-7.91647556579592,-10.339470619821107,0.467940942513122,-0.090270765,-0.312438165,0.939877965,-6.134519999999999,-0.59514,7.9199399999999995,72.0
1774822033.358762,0.004065990447998047,2026-03-29T22:07:13.358,2026-03-29T18:07:13.358,-31918.905,-49282.47,-84128.355,-50016.465,-14634.765,-19921.184999999998,5049.945,-53116.74,1.7947714003334254,-0.8579745563019517,-4.0756666708087135,-4.334480949830202,-5.021291198618018,-7.2000656100135165,-6.568553147951675,2.992998442848941,-0.090270765,-0.312438165,0.939877965,-6.134519999999999,-0.59514,7.9199399999999995,72.0
1774822033.35878,1.7881393432617188e-05,2026-03-29T22:07:13.358,2026-03-29T18:07:13.358,-31941.405,-49317.795,-84176.19,-50073.21,-14682.465,-19950.524999999998,5091.21,-53115.345,0.5407991689890471,-0.8363957166933359,-4.926274735015857,-5.243767628350681,-4.305580501443517,-3.439190645406002,0.13643099094698918,4.058162694230649,-0.090270765,-0.312438165,0.939877965,-6.134519999999999,-0.59514,7.9199399999999995,72.0
1774822033.3664532,0.0076732635498046875,2026-03-29T22:07:13.366,2026-03-29T18:07:13.366,-31923.765,-49303.89,-84164.58,-50068.53,-14679.314999999999,-19947.195,5073.615,-53107.064999999995,-1.2110268740034835,-0.5180655933123935,-3.6238640513379057,-3.8156130356924023,-1.5968158962157977,1.9376643870173957,6.368719517406778,2.8509252529180564,-0.090270765,-0.312438165,0.939877965,-6.134519999999999,-0.59514,7.9199399999999995,72.0
1774822033.3664732,2.002716064453125e-05,2026-03-29T22:07:13.366,2026-03-29T18:07:13.366,-31915.754999999997,-49299.075,-84159.22499999999,-50052.24,-14663.475,-19933.469999999998,5058.405,-53101.305,-2.647037206709744,0.1043712375184522,-0.40532522787023695,-0.3312541645294564,2.1926231009672708,6.740271714595686,9.137353007218307,-0.1835463668715181,-0.090270765,-0.312438165,0.939877965,-6.134519999999999,-0.59514,7.9199399999999995,72.0
1774822033.3687186,0.0022454261779785156,2026-03-29T22:07:13.368,2026-03-29T18:07:13.368,-31918.004999999997,-49293.63,-84149.235,-50033.88,-14645.115,-19920.239999999998,5024.97,-53118.674999999996,-2.9756442665589344,0.8724920438129095,3.4992121444900643,3.8449170201751177,5.4972101790764105,8.902324699163726,7.323207484456127,-3.4912227982485895,-0.08898903,-0.31628337,0.9405493500000001,-4.28806,0.57988,7.309539999999999,72.0
1774822033.3687484,2.9802322387695312e-05,2026-03-29T22:07:13.368,2026-03-29T18:07:13.368,-31915.89,-49293.27,-84143.385,-50035.229999999996,-14651.955,-19927.215,5026.545,-53115.704999999994,-1.8586774593242013,1.475791410585888,6.3156846858689635,6.782541264383773,6.738506543030219,7.373857700924072,2.1288430882498863,-5.2088623506020495,-0.08898903,-0.31628337,0.9405493500000001,-4.28806,0.57988,7.309539999999999,72.0
1774822033.3709643,0.002215862274169922,2026-03-29T22:07:13.370,2026-03-29T18:07:13.370,-31922.64,-49315.95,-84166.245,-50066.46,-14686.244999999999,-19957.905,5047.2,-53111.025,0.3374121662702365,1.5737607541152925,6.532083705763624,6.878790857964873,5.079614912907426,2.6329530859225256,-3.6578674781017706,-4.200760763693709,-0.08898903,-0.31628337,0.9405493500000001,-4.28806,0.57988,7.309539999999999,72.0
1774822033.3709974,3.314018249511719e-05,2026-03-29T22:07:13.370,2026-03-29T18:07:13.370,-31938.795,-49337.369999999995,-84194.685,-50092.244999999995,-14701.859999999999,-19968.57,5037.929999999999,-53129.34,2.6362336251679057,0.9808585869345833,3.6950272410002705,3.7137320065512194,0.9324109707551398,-3.434130722454622,-7.155990040642425,-0.7604938170147555,-0.08898903,-0.31628337,0.9405493500000001,-4.28806,0.57988,7.309539999999999,72.0
1774822033.3745875,0.003590106964111328,2026-03-29T22:07:13.374,2026-03-29T18:07:13.374,-31923.765,-49321.395,-84184.65,-50079.869999999995,-14686.47,-19948.905,5010.525,-53122.545,3.886275510627308,-0.18359355987820292,-1.2175055369732388,-1.5823657114063894,-4.073116840891203,-8.27470421453491,-6.842950590074853,3.4388864708384297,-0.08898903,-0.31628337,0.9405493500000001,-4.28806,0.57988,7.309539999999999,72.0
1774822033.374622,3.457069396972656e-05,2026-03-29T22:07:13.374,2026-03-29T18:07:13.374,-31890.96,-49309.02,-84192.25499999999,-50090.67,-14698.98,-19959.344999999998,5022.72,-53086.68,3.3415833260822403,-1.4800858600523625,-6.096275841090275,-6.700792885371192,-7.716243478298656,-9.746406821968867,-3.2264415065657475,6.166268744773432,-0.08898903,-0.31628337,0.9405493500000001,-4.28806,0.57988,7.309539999999999,72.0
1774822033.3790977,0.004475593566894531,2026-03-29T22:07:13.379,2026-03-29T18:07:13.379,-31898.565,-49325.174999999996,-84208.5,-50107.725,-14719.545,-19991.024999999998,5029.11,-53062.829999999994,1.0927580130163541,-2.3086092930837663,-8.605605620036997,-9.162714316037043,-8.175603078020096,-7.073331085281549,1.5647001509020115,5.8181091115485035,-0.08898903,-0.31628337,0.9405493500000001,-4.28806,0.57988,7.309539999999999,72.0
1774822033.3791332,3.552436828613281e-05,2026-03-29T22:07:13.379,2026-03-29T18:07:13.379,-31933.71,-49347.945,-84219.84,-50113.755,-14722.425,-19991.835,5019.03,-53086.5,-1.8964596341593027,-2.1897194828948683,-7.305823244720973,-7.523067676792622,-4.938278984507465,-1.250782125216454,4.997040269022339,2.337623555798139,-0.08898903,-0.31628337,0.9405493500000001,-4.28806,0.57988,7.309539999999999,72.0
1774822033.3844235,0.00529026985168457,2026-03-29T22:07:13.384,2026-03-29T18:07:13.384,-31968.495,-49329.225,-84169.62,-50055.255,-14664.914999999999,-19934.37,5027.76,-53138.88,-4.203267312628616,-1.0341920052526472,-2.4520567320449476,-2.1836780213039573,0.8255558445962672,5.311014391174602,5.47552963243367,-2.6503981664831855,-0.08898903,-0.31628337,0.9405493500000001,-4.28806,0.57988,7.309539999999999,72.0
1774822033.3844442,2.0742416381835938e-05,2026-03-29T22:07:13.384,2026-03-29T18:07:13.384,-31962.329999999998,-49313.79,-84147.075,-50029.92,-14641.38,-19913.535,5023.304999999999,-53154.63,-4.632090970221004,0.7476244522055578,3.964269641323159,4.6297911358250765,6.659444383081263,9.78477268360322,3.1000903504726547,-6.606038553809474,-0.08898903,-0.31628337,0.9405493500000001,-4.28806,0.57988,7.309539999999999,72.0
1774822033.3866143,0.002170085906982422,2026-03-29T22:07:13.386,2026-03-29T18:07:13.386,-31953.375,-49331.34,-84187.17,-50075.64,-14687.279999999999,-19958.489999999998,4995.0,-53146.935,-2.8371484155995463,2.38059219649473,9.02537567654793,9.79195008913235,9.869977390824456,10.152373277937386,-0.530314739249984,-7.376164540168391,-0.08825661,-0.321105135,0.9437231700000001,-3.15882,2.22796,6.69914,72.0
1774822033.3867977,0.00018334388732910156,2026-03-29T22:07:13.386,2026-03-29T18:07:13.386,-31933.26,-49319.189999999995,-84180.19499999999,-50073.21,-14690.115,-19964.204999999998,5002.785,-53127.314999999995,0.4450963462736227,3.0670127750340854,10.223823417351166,10.721747323608424,8.77963292650355,6.123818298339949,-3.3050316158162367,-4.3602051684676555,-0.08825661,-0.321105135,0.9437231700000001,-3.15882,2.22796,6.69914,72.0
1774822033.3906891,0.003891468048095703,2026-03-29T22:07:13.390,2026-03-29T18:07:13.390,-31896.449999999997,-49305.015,-84181.185,-50076.494999999995,-14698.664999999999,-19982.565,5026.86,-53087.579999999994,3.6979613555466457,2.383516972696807,6.709677890955389,6.674935573197995,3.5964182335892274,-0.6732785536199517,-3.8001899296106503,1.0890216388489469,-0.08825661,-0.321105135,0.9437231700000001,-3.15882,2.22796,6.69914,72.0
1774822033.3907158,2.6702880859375e-05,2026-03-29T22:07:13.390,2026-03-29T18:07:13.390,-31895.64,-49319.685,-84205.34999999999,-50098.365,-14719.365,-20009.385,5009.4,-53082.945,5.337424298390944,0.5324067639735064,-0.1741104199698086,-0.7629605465895405,-3.5476571462843745,-7.346821867491857,-2.0193126899404885,6.277171934045669,-0.08825661,-0.321105135,0.9437231700000001,-3.15882,2.22796,6.69914,72.0
1774822033.3944952,0.0037794113159179688,2026-03-29T22:07:13.394,2026-03-29T18:07:13.394,-31920.66,-49338.99,-84216.15,-50107.32,-14723.46,-19997.64,5022.0,-53084.07,4.494664036854087,-1.698210772053564,-7.385138157803006,-8.282459119090174,-9.469024373636564,-10.976109934021917,0.7129110018262987,8.513274888616737,-0.08825661,-0.321105135,0.9437231700000001,-3.15882,2.22796,6.69914,72.0
1774822033.3945131,1.7881393432617188e-05,2026-03-29T22:07:13.394,2026-03-29T18:07:13.394,-31957.379999999997,-49333.049999999996,-84190.77,-50073.119999999995,-14680.619999999999,-19936.305,5024.429999999999,-53134.29,1.4759168315004882,-3.2735858497401726,-11.534809569742258,-12.33253207047143,-11.361842365440797,-9.899995776640704,2.6069786929889616,6.5101555791930625,-0.08825661,-0.321105135,0.9437231700000001,-3.15882,2.22796,6.69914,72.0
1774822033.3989851,0.004472017288208008,2026-03-29T22:07:13.398,2026-03-29T18:07:13.398,-31943.07,-49298.265,-84144.645,-50024.475,-14633.189999999999,-19891.575,5035.139999999999,-53161.875,-2.3442470641391377,-3.40397666734194,-10.496485333666016,-10.811859359127906,-8.13821272636189,-4.485104003508102,2.4992714689919686,1.1093745921404936,-0.08825661,-0.321105135,0.9437231700000001,-3.15882,2.22796,6.69914,72.0
1774822033.3990123,2.7179718017578125e-05,2026-03-29T22:07:13.399,2026-03-29T18:07:13.399,-31912.875,-49296.015,-84151.75499999999,-50035.229999999996,-14651.144999999999,-19929.69,5001.21,-53124.345,-5.161817104369331,-1.9506046462597701,-4.498991305141095,-4.157763402223679,-1.035122632400788,2.9840213114641,0.5401520191916908,-5.071177309427877,-0.08825661,-0.321105135,0.9437231700000001,-3.15882,2.22796,6.69914,72.0
1774822033.4209032,0.021890878677368164,2026-03-29T22:07:13.420,2026-03-29T18:07:13.420,-31945.184999999998,-49320.72,-84164.67,-50046.21,-14664.644999999999,-19946.52,4984.74,-53143.965,-5.6110619419891234,0.4665416475372065,3.857929233920716,4.730534074280436,6.843285367182643,9.26902237175396,-1.9168954125950695,-8.919643365406571,-0.08825661,-0.321105135,0.9437231700000001,-3.15882,2.22796,6.69914,72.0
1774822033.4209263,2.3126602172851562e-05,2026-03-29T22:07:13.420,2026-03-29T18:07:13.420,-31952.114999999998,-49311.18,-84141.18,-50017.365,-14632.515,-19906.02,5034.15,-53152.74,-3.4359600128772185,2.7332763857299844,10.732980264908377,11.75907114855472,11.888784193452125,11.58936815148467,-3.156816454845427,-8.407738509304375,-0.08825661,-0.321105135,0.9437231700000001,-3.15882,2.22796,6.69914,72.0
1774822033.4209476,2.1219253540039062e-05,2026-03-29T22:07:13.420,2026-03-29T18:07:13.420,-31943.565,-49315.049999999996,-84160.215,-50039.595,-14659.38,-19936.71,5060.295,-53136.72,0.3695155757030491,3.7662341037562186,12.827017044203561,13.54213699126772,11.65682384533702,8.86339900770089,-2.180874130633182,-3.658807438305657,-0.08703591000000001,-0.315856125,0.94396731,1.0224199999999999,3.052,5.890359999999999,72.0
1774822033.4209566,9.059906005859375e-06,2026-03-29T22:07:13.420,2026-03-29T18:07:13.420,-31898.204999999998,-49292.235,-84149.145,-50039.955,-14671.845,-19962.719999999998,5013.63,-53094.555,4.027514793068828,3.046639222739417,8.985712693633017,9.049753069366266,6.062268324526551,2.2208606744954853,0.6191042734284902,3.0554010802558786,-0.08703591000000001,-0.315856125,0.94396731,1.0224199999999999,3.052,5.890359999999999,72.0
1774822033.420967,1.049041748046875e-05,2026-03-29T22:07:13.420,2026-03-29T18:07:13.420,-31899.42,-49282.92,-84122.45999999999,-50015.744999999995,-14649.93,-19936.35,5004.585,-53084.384999999995,5.824592997557151,0.8935495101130482,0.8348615481328506,0.19159221922947287,-2.4858027043939983,-5.458667776750344,3.6088212644415836,8.413058194059554,-0.08703591000000001,-0.315856125,0.94396731,1.0224199999999999,3.052,5.890359999999999,72.0
1774822033.420976,8.821487426757812e-06,2026-03-29T22:07:13.420,2026-03-29T18:07:13.420,-31959.765,-49317.84,-84158.73,-50043.24,-14660.414999999999,-19930.68,5011.065,-53141.49,4.92897404732242,-1.6721050127889203,-7.900152853016221,-8.988742178529534,-10.120014044308236,-10.796367020612568,4.831542258382733,9.69877328268635,-0.08703591000000001,-0.315856125,0.94396731,1.0224199999999999,3.052,5.890359999999999,72.0
1774822033.4209864,1.049041748046875e-05,2026-03-29T22:07:13.420,2026-03-29T18:07:13.420,-31959.225,-49322.205,-84181.545,-50066.505,-14681.07,-19952.235,5009.625,-53155.53,1.7798986181188874,-3.418313527483898,-13.11104158998949,-14.17336776667273,-13.277649007656848,-11.410458523630478,3.1940732855292304,6.186170121043165,-0.08703591000000001,-0.315856125,0.94396731,1.0224199999999999,3.052,5.890359999999999,72.0
1774822033.4209952,8.821487426757812e-06,2026-03-29T22:07:13.420,2026-03-29T18:07:13.420,-31945.77,-49315.14,-84180.23999999999,-50073.84,-14690.699999999999,-19960.2,5027.4,-53147.564999999995,-2.1354333473473504,-3.5095957560359636,-12.263219517139401,-12.823357756619968,-10.382160590354077,-6.9923570988726995,-0.7690117268937183,-0.45998447629549255,-0.08703591000000001,-0.315856125,0.94396731,1.0224199999999999,3.052,5.890359999999999,72.0
1774822033.4210055,1.0251998901367188e-05,2026-03-29T22:07:13.421,2026-03-29T18:07:13.421,-31912.11,-49286.564999999995,-84147.61499999999,-50040.405,-14646.689999999999,-19913.04,5065.92,-53121.6,-5.000894926511407,-1.9257460305251353,-5.650662522757581,-5.440352168298896,-2.6423491467305285,0.5284941118456964,-5.0346023750752895,-6.98093738465565,-0.08703591000000001,-0.315856125,0.94396731,1.0224199999999999,3.052,5.890359999999999,72.0
1774822033.4210145,9.059906005859375e-06,2026-03-29T22:07:13.421,2026-03-29T18:07:13.421,-31914.719999999998,-49295.115,-84156.345,-50052.78,-14657.22,-19923.48,5073.345,-53114.579999999994,-5.531148307098269,0.5257244434894985,3.681039993277139,4.597390087826851,6.4399876955521576,7.8218427887751885,-7.122403530461423,-10.134258320585731,-0.08703591000000001,-0.315856125,0.94396731,1.0224199999999999,3.052,5.890359999999999,72.0
1774822033.4285448,0.00753021240234375,2026-03-29T22:07:13.428,2026-03-29T18:07:13.428,-31940.19,-49327.604999999996,-84188.025,-50083.83,-14697.045,-19975.32,5026.5,-53127.18,-3.556923616017786,2.6169831436101707,11.342138475239961,12.586030331990603,12.660693193248107,11.635872455155772,-5.492854101375392,-8.315631866915124,-0.08703591000000001,-0.315856125,0.94396731,1.0224199999999999,3.052,5.890359999999999,72.0
1774822033.4285734,2.86102294921875e-05,2026-03-29T22:07:13.428,2026-03-29T18:07:13.428,-31929.434999999998,-49315.095,-84167.28,-50055.795,-14673.779999999999,-19959.704999999998,5009.76,-53122.905,-0.06513183645847774,3.323791191171486,13.685157796337354,14.720852256023088,13.0779498528783,10.260599206047353,-0.5396810116660085,-2.376870926996785,-0.08703591000000001,-0.315856125,0.94396731,1.0224199999999999,3.052,5.890359999999999,72.0
1774822033.4285989,2.5510787963867188e-05,2026-03-29T22:07:13.428,2026-03-29T18:07:13.428,-31933.844999999998,-49310.64,-84152.655,-50037.119999999995,-14655.824999999999,-19941.75,5028.57,-53129.34,3.305299612699126,2.3461254434459957,9.570161637418492,9.93446142629209,7.425774239067572,4.311999955905876,5.420913950757891,4.777143646879747,-0.08435037000000001,-0.30615156,0.940854525,-2.31952,2.0295799999999997,5.44782,72.0
1774822033.4286091,1.0251998901367188e-05,2026-03-29T22:07:13.428,2026-03-29T18:07:13.428,-31941.855,-49320.99,-84170.79,-50054.58,-14670.855,-19953.989999999998,5039.054999999999,-53132.31,5.049838363661108,0.25389182364435636,0.942774464031397,0.44981685113855524,-1.711657505223151,-3.529809616708945,9.242296634849774,9.619243964740877,-0.08435037000000001,-0.30615156,0.940854525,-2.31952,2.0295799999999997,5.44782,72.0
1774822033.4312663,0.002657175064086914,2026-03-29T22:07:13.431,2026-03-29T18:07:13.431,-31937.67,-49333.634999999995,-84203.145,-50084.189999999995,-14697.09,-19981.17,5032.845,-53127.09,4.481858574559761,-1.8216356326611396,-8.077412097040472,-9.245550833021863,-10.07732042328109,-9.724091312803838,8.60165181384583,9.748835367290436,-0.08435037000000001,-0.30615156,0.940854525,-2.31952,2.0295799999999997,5.44782,72.0
1774822033.4312806,1.430511474609375e-05,2026-03-29T22:07:13.431,2026-03-29T18:07:13.431,-31918.725,-49319.729999999996,-84188.43,-50068.17,-14683.095,-19968.12,5025.33,-53115.345,1.9971027913248611,-2.7914542956401447,-13.175155365092035,-14.534461384034321,-13.736672074398655,-11.47710686108313,3.3490864604605046,5.087323594089808,-0.08435037000000001,-0.30615156,0.940854525,-2.31952,2.0295799999999997,5.44782,72.0
1774822033.4362729,0.004992246627807617,2026-03-29T22:07:13.436,2026-03-29T18:07:13.436,-31931.235,-49315.545,-84177.94499999999,-50062.365,-14678.369999999999,-19957.86,5035.679999999999,-53125.604999999996,-1.179215204075988,-2.1890261589720414,-11.93039226243355,-12.894120962279484,-10.951432539419962,-8.021179516940938,-4.210109720687413,-2.0770225207538267,-0.08435037000000001,-0.30615156,0.940854525,-2.31952,2.0295799999999997,5.44782,72.0
1774822033.4362924,1.9550323486328125e-05,2026-03-29T22:07:13.436,2026-03-29T18:07:13.436,-31925.52,-49317.255,-84181.545,-50073.57,-14689.619999999999,-19962.045,5039.46,-53121.195,-3.608823302655002,-0.41568282378928484,-4.99780691770867,-5.127766681847616,-3.0301420555298795,-0.9719501777722641,-10.334007577673821,-8.218672250454782,-0.08435037000000001,-0.30615156,0.940854525,-2.31952,2.0295799999999997,5.44782,72.0
1774822033.4411204,0.004827976226806641,2026-03-29T22:07:13.441,2026-03-29T18:07:13.441,-31903.785,-49321.08,-84205.75499999999,-50106.24,-14718.42,-19978.335,5019.4349999999995,-53101.845,-4.3050610367873015,1.4854888723309805,4.212611620916854,5.0090617535209585,6.270745926778929,6.411885519369219,-11.710356904175391,-10.317817286323397,-0.08435037000000001,-0.30615156,0.940854525,-2.31952,2.0295799999999997,5.44782,72.0
1774822033.441141,2.0503997802734375e-05,2026-03-29T22:07:13.441,2026-03-29T18:07:13.441,-31900.815,-49287.645,-84147.12,-50042.744999999995,-14649.705,-19914.344999999998,4982.535,-53119.575,-3.1324873379240628,2.411025670376634,11.207689414339393,12.622295254311448,12.528543505016385,10.734279341366259,-7.233453717994784,-7.351214688799997,-0.08435037000000001,-0.30615156,0.940854525,-2.31952,2.0295799999999997,5.44782,72.0
1774822033.4411547,1.3828277587890625e-05,2026-03-29T22:07:13.441,2026-03-29T18:07:13.441,-31903.11,-49268.475,-84100.59,-49992.075,-14596.695,-19876.41,4986.63,-53136.045,-0.7805112346929808,1.8205035596719379,12.618149126193872,14.058366196405553,12.774115394751178,10.038456134273428,1.2563330566515345,-0.7925119734691525,-0.08435037000000001,-0.30615156,0.940854525,-2.31952,2.0295799999999997,5.44782,72.0
1774822033.4411588,4.0531158447265625e-06,2026-03-29T22:07:13.441,2026-03-29T18:07:13.441,-31865.625,-49262.805,-84102.165,-50002.155,-14612.67,-19896.344999999998,5027.22,-53101.53,1.6333662461997716,0.05670650050355917,7.8504344485789,8.685489948396064,6.9271175197571715,4.71683403281909,9.725189927640045,6.122577259985479,-0.08435037000000001,-0.30615156,0.940854525,-2.31952,2.0295799999999997,5.44782,72.0
1774822033.4470239,0.0058650970458984375,2026-03-29T22:07:13.447,2026-03-29T18:07:13.447,-31874.805,-49276.619999999995,-84137.535,-50047.515,-14669.46,-19949.67,5041.08,-53092.215,3.1059159523232633,-1.826385158809625,-0.6384619983948316,-0.8028390730577425,-2.1579940788247995,-2.6792900642592494,13.885458019026592,9.997862894497734,-0.081359655,-0.305236035,0.9421362600000001,-5.29522,2.09062,4.0896799999999995,72.0
1774822033.447045,2.1219253540039062e-05,2026-03-29T22:07:13.447,2026-03-29T18:07:13.447,-31929.704999999998,-49308.03,-84173.715,-50079.195,-14696.46,-19966.815,5044.139999999999,-53126.189999999995,3.1680471193403137,-2.650116348216317,-8.582781830860519,-9.719654060152145,-10.0714661608252,-8.648790742435683,11.379104713179249,8.949517880097615,-0.081359655,-0.305236035,0.9421362600000001,-5.29522,2.09062,4.0896799999999995,72.0
1774822033.4511347,0.0040895938873291016,2026-03-29T22:07:13.451,2026-03-29T18:07:13.451,-31923.315,-49307.31,-84170.205,-50067.54,-14674.32,-19944.09,5044.365,-53139.24,2.005319613825588,-1.7993315718208713,-12.047763761127866,-13.700221941726076,-12.992319108077366,-10.401749716271837,3.0873578567499793,3.524083073396404,-0.081359655,-0.305236035,0.9421362600000001,-5.29522,2.09062,4.0896799999999995,72.0
1774822033.4511695,3.4809112548828125e-05,2026-03-29T22:07:13.451,2026-03-29T18:07:13.451,-31899.465,-49301.955,-84172.14,-50068.395,-14681.295,-19967.94,4984.155,-53133.659999999996,0.26837468736757913,0.37351550686591717,-9.39524812246909,-10.85704410032106,-9.552975409262126,-7.183204304231836,-7.151026615223788,-3.586181057784328,-0.081359655,-0.305236035,0.9421362600000001,-5.29522,2.09062,4.0896799999999995,72.0
1774822033.4547389,0.003569364547729492,2026-03-29T22:07:13.454,2026-03-29T18:07:13.454,-31927.545,-49325.85,-84193.83,-50095.71,-14716.035,-20009.835,4944.42,-53150.354999999996,-1.2879112792559475,2.6762711944965663,-2.0863599304387486,-2.7024178402734043,-1.506368357635234,-0.6231901631130193,-14.34073646884502,-8.881747196642909,-0.081359655,-0.305236035,0.9421362600000001,-5.29522,2.09062,4.0896799999999995,72.0
1774822033.4547608,2.193450927734375e-05,2026-03-29T22:07:13.454,2026-03-29T18:07:13.454,-31972.635,-49341.284999999996,-84189.95999999999,-50087.159999999996,-14708.025,-20002.5,4973.535,-53165.97,-2.1380238388466712,3.701298019079799,6.083890780902238,6.624016219324633,7.141193221324839,6.061031830248384,-14.794227317539043,-9.780957182866478,-0.081359655,-0.305236035,0.9421362600000001,-5.29522,2.09062,4.0896799999999995,72.0
1774822033.4892156,0.0344548225402832,2026-03-29T22:07:13.489,2026-03-29T18:07:13.489,-31994.594999999998,-49366.755,-84205.34999999999,-50090.805,-14702.894999999999,-19984.23,5022.315,-53157.915,-2.1423748607456368,2.628941317233743,10.9323606199772,12.439430751864384,12.112279007197927,9.630760437683454,-8.031526256407705,-5.87998581473059,-0.081359655,-0.305236035,0.9421362600000001,-5.29522,2.09062,4.0896799999999995,72.0
1774822033.4892366,2.09808349609375e-05,2026-03-29T22:07:13.489,2026-03-29T18:07:13.489,-31958.19,-49348.619999999995,-84192.48,-50078.88,-14687.369999999999,-19950.614999999998,5054.445,-53135.505,-1.4940048219729287,-0.23050315576140054,10.024876543278669,11.870389403018876,10.979331428382933,8.402259471207948,2.8670990194172785,0.8676039633769288,-0.081359655,-0.305236035,0.9421362600000001,-5.29522,2.09062,4.0896799999999995,72.0
1774822033.489274,3.743171691894531e-05,2026-03-29T22:07:13.489,2026-03-29T18:07:13.489,-31933.53,-49332.645,-84186.54,-50079.6,-14692.14,-19953.989999999998,5035.1849999999995,-53132.49,-0.5360793003623122,-3.4849388301226214,3.9141289435616526,5.290757424833386,4.370118721113985,3.0632936162718116,12.682978049476997,7.129922831744946,-0.081359655,-0.305236035,0.9421362600000001,-5.29522,2.09062,4.0896799999999995,72.0
1774822033.4892857,1.1682510375976562e-05,2026-03-29T22:07:13.489,2026-03-29T18:07:13.489,-31938.39,-49321.665,-84170.745,-50066.64,-14686.019999999999,-19967.94,5031.54,-53144.415,0.4201726674278973,-5.325361271094472,-4.157439855325433,-3.8821626697592513,-4.349194819781107,-3.675751173982575,16.590292399657805,9.84274925539984,-0.081359655,-0.305236035,0.9421362600000001,-5.29522,2.09062,4.0896799999999995,72.0
1774822033.4893003,1.4543533325195312e-05,2026-03-29T22:07:13.489,2026-03-29T18:07:13.489,-31955.219999999998,-49318.424999999996,-84160.26,-50053.68,-14669.64,-19947.329999999998,5051.115,-53142.84,1.180665829850873,-4.494703541108519,-9.941716224252321,-10.933531007103042,-10.76385915140025,-8.431331776944639,12.554393529910842,7.708539378219695,-0.07775859,-0.309264345,0.94823976,-2.65524,5.69198,2.53316,72.0
1774822033.4893112,1.0967254638671875e-05,2026-03-29T22:07:13.489,2026-03-29T18:07:13.489,-31933.26,-49327.515,-84187.89,-50077.439999999995,-14683.005,-19944.0,5035.7699999999995,-53106.975,1.6444671226939356,-1.0536911935723778,-10.393648060244933,-12.256908680004326,-11.633587673542136,-8.834495511111307,2.393895164081432,1.8152957958667,-0.07775859,-0.309264345,0.94823976,-2.65524,5.69198,2.53316,72.0
1774822033.4893243,1.3113021850585938e-05,2026-03-29T22:07:13.489,2026-03-29T18:07:13.489,-31917.42,-49317.075,-84174.075,-50059.755,-14668.74,-19941.21,5015.385,-53104.365,1.7351219571427023,3.496098430097648,-5.265318567526561,-7.198067642670525,-6.53317635738522,-4.718571413118876,-9.048946225001524,-4.918613578551361,-0.07775859,-0.309264345,0.94823976,-2.65524,5.69198,2.53316,72.0
1774822033.4893348,1.049041748046875e-05,2026-03-29T22:07:13.489,2026-03-29T18:07:13.489,-31926.465,-49310.865,-84158.73,-50043.735,-14657.4,-19937.43,5005.845,-53135.46,1.373140810190123,6.860685212437032,2.7462022394006644,1.606441905840192,1.9220883909760076,1.7921769329471444,-16.246278074611258,-9.189583189978173,-0.07775859,-0.309264345,0.94823976,-2.65524,5.69198,2.53316,72.0
1774822033.4893477,1.2874603271484375e-05,2026-03-29T22:07:13.489,2026-03-29T18:07:13.489,-31942.35,-49298.354999999996,-84134.745,-50016.645,-14630.22,-19909.305,5023.98,-53166.015,0.5312813345674687,7.097057199946509,9.38808263559336,9.577036432769804,9.392236581696192,7.348793331086626,-15.688465743739238,-8.927701710090401,-0.07775859,-0.309264345,0.94823976,-2.65524,5.69198,2.53316,72.0
1774822033.4893577,1.0013580322265625e-05,2026-03-29T22:07:13.489,2026-03-29T18:07:13.489,-31934.925,-49310.46,-84156.525,-50044.32,-14664.644999999999,-19948.05,5036.355,-53143.92,-0.662608267867858,3.6857172385574697,11.072271537717924,12.545225577655456,12.016409283563577,9.074240998237995,-7.616312442061956,-4.296664820384532,-0.07775859,-0.309264345,0.94823976,-2.65524,5.69198,2.53316,72.0
1774822033.4893703,1.2636184692382812e-05,2026-03-29T22:07:13.489,2026-03-29T18:07:13.489,-31939.875,-49315.229999999996,-84146.4,-50029.74,-14646.33,-19930.59,5083.875,-53117.325,-1.8657110821245089,-2.0437590277155087,6.780196992419013,8.91307374468438,8.39331822584987,6.039519941917364,4.082297019251607,2.40672429450054,-0.07775859,-0.309264345,0.94823976,-2.65524,5.69198,2.53316,72.0
1774822033.4893806,1.0251998901367188e-05,2026-03-29T22:07:13.489,2026-03-29T18:07:13.489,-31947.074999999997,-49322.744999999995,-84139.47,-50013.63,-14616.269999999999,-19894.95,5097.0599999999995,-53102.564999999995,-2.5862883565506,-7.416444664756303,-1.3482583337040706,0.5057739599433984,0.3269784987142109,-0.23402428874652303,13.767110908330286,7.892515894346497,-0.07775859,-0.309264345,0.94823976,-2.65524,5.69198,2.53316,72.0
1774822033.4893937,1.3113021850585938e-05,2026-03-29T22:07:13.489,2026-03-29T18:07:13.489,-31956.03,-49340.159999999996,-84175.83,-50056.244999999995,-14656.095,-19924.559999999998,5065.605,-53112.869999999995,-2.3864835887085403,-9.662643265559167,-9.072843636557549,-8.335040034324571,-8.058373064702963,-6.518523350344767,16.798111818641104,9.49034155165032,-0.07775859,-0.309264345,0.94823976,-2.65524,5.69198,2.53316,72.0
1774822033.4894035,9.775161743164062e-06,2026-03-29T22:07:13.489,2026-03-29T18:07:13.489,-31948.785,-49346.325,-84216.87,-50108.895,-14709.555,-19970.864999999998,5062.1849999999995,-53119.395,-1.1368463659208274,-7.329220236544724,-12.237713442283496,-12.970458468157732,-12.404723411733345,-9.512946492721625,11.78779354104166,6.444805595037075,-0.07775859,-0.309264345,0.94823976,-2.65524,5.69198,2.53316,72.0
1774822033.4894166,1.3113021850585938e-05,2026-03-29T22:07:13.489,2026-03-29T18:07:13.489,-31946.85,-49344.525,-84221.055,-50115.645,-14719.814999999999,-19981.755,5049.99,-53124.795,0.8216940110981775,-1.137512569389681,-8.965853492369678,-10.868863618047348,-10.359644807783486,-7.5485707660522765,1.2469753625908755,0.2670667693839578,-0.07678203,-0.31579509,0.950742195,1.3428799999999999,4.8069,1.0682,72.0
1774822033.489427,1.049041748046875e-05,2026-03-29T22:07:13.489,2026-03-29T18:07:13.489,-31937.94,-49331.97,-84212.685,-50111.865,-14719.994999999999,-19988.64,5020.425,-53128.979999999996,2.731313629155627,6.194342624627164,-0.7179976698854942,-2.9588562912731056,-2.825862957001783,-1.494432763061669,-9.681026442737702,-6.0181230756183535,-0.07678203,-0.31579509,0.950742195,1.3428799999999999,4.8069,1.0682,72.0
1774822033.48944,1.2874603271484375e-05,2026-03-29T22:07:13.489,2026-03-29T18:07:13.489,-31927.32,-49315.95,-84185.37,-50081.67,-14692.095,-19971.809999999998,5004.405,-53123.939999999995,3.7078926206415965,11.151620576953094,8.363947691337865,6.782799485230144,6.435090844288587,5.620749541558921,-15.755957372705968,-9.353016491296042,-0.07678203,-0.31579509,0.950742195,1.3428799999999999,4.8069,1.0682,72.0
1774822033.4894505,1.049041748046875e-05,2026-03-29T22:07:13.489,2026-03-29T18:07:13.489,-31899.555,-49294.979999999996,-84161.565,-50055.615,-14668.019999999999,-19956.465,5003.37,-53102.97,3.1581872887895317,11.112318801034823,13.53184975120714,13.324778719232548,12.672490166015729,10.10926798535066,-14.184278515037812,-8.130134947714636,-0.07678203,-0.31579509,0.950742195,1.3428799999999999,4.8069,1.0682,72.0
1774822033.495776,0.006325483322143555,2026-03-29T22:07:13.495,2026-03-29T18:07:13.495,-31888.574999999997,-49296.869999999995,-84166.515,-50065.515,-14683.41,-19973.385,5011.92,-53078.04,1.1227253711649245,5.710563212005065,11.885776053046262,13.157923588777217,12.562182654869337,9.508777992655492,-5.922560283580649,-2.9604040153988067,-0.07678203,-0.31579509,0.950742195,1.3428799999999999,4.8069,1.0682,72.0
1774822033.4958355,5.9604644775390625e-05,2026-03-29T22:07:13.495,2026-03-29T18:07:13.495,-31920.66,-49302.45,-84161.655,-50058.09,-14681.16,-19973.745,5010.84,-53108.055,-1.647998027926123,-2.827378912844,3.947835300818633,6.141904881491265,5.946383727563827,3.895822493584041,4.875784460101609,3.637813106507382,-0.07678203,-0.31579509,0.950742195,1.3428799999999999,4.8069,1.0682,72.0
1774822033.4990225,0.003186941146850586,2026-03-29T22:07:13.499,2026-03-29T18:07:13.499,-31950.765,-49312.755,-84159.675,-50046.975,-14663.564999999999,-19943.19,5034.735,-53145.494999999995,-3.9619909357757512,-10.603755568342402,-6.481337569278561,-4.3384743430280865,-4.002947599015464,-4.060397872957471,12.959779057564099,8.46795987171312,-0.07678203,-0.31579509,0.950742195,1.3428799999999999,4.8069,1.0682,72.0
1774822033.4990344,1.1920928955078125e-05,2026-03-29T22:07:13.499,2026-03-29T18:07:13.499,-31953.645,-49332.104999999996,-84185.19,-50072.13,-14686.064999999999,-19965.645,5029.785,-53141.85,-4.706864956551026,-13.844257658752154,-14.157698604835781,-13.018899064389617,-12.312922402980076,-10.369628718130793,14.55976364720462,9.201449997955804,-0.07678203,-0.31579509,0.950742195,1.3428799999999999,4.8069,1.0682,72.0
1774822033.5098405,0.010806083679199219,2026-03-29T22:07:13.509,2026-03-29T18:07:13.509,-31930.515,-49322.115,-84187.665,-50077.619999999995,-14692.23,-19980.225,5020.38,-53116.92,-3.3911612695918913,-10.732892855726572,-15.027039119898228,-15.396999894488022,-14.689857126945423,-11.710277437859895,9.167987210227231,5.493751284095078,-0.07678203,-0.31579509,0.950742195,1.3428799999999999,4.8069,1.0682,72.0
1774822033.5098696,2.9087066650390625e-05,2026-03-29T22:07:13.509,2026-03-29T18:07:13.509,-31906.215,-49306.545,-84177.765,-50073.435,-14690.43,-19980.405,5021.595,-53088.84,-0.4393088642047132,-2.3922666489966145,-8.333741469812564,-10.04363558805924,-9.714260623710425,-7.147971751902557,-0.3302001708779245,-0.8616869626080371,-0.07678203,-0.31579509,0.950742195,1.3428799999999999,4.8069,1.0682,72.0
1774822033.5098977,2.8133392333984375e-05,2026-03-29T22:07:13.509,2026-03-29T18:07:13.509,-31911.524999999998,-49290.795,-84150.45,-50054.49,-14677.56,-19968.84,5002.38,-53108.954999999994,2.927726471445085,7.507681813879619,2.8813639276191028,0.5951753938570956,0.36430166230710836,1.2968049751366273,-9.187668857930401,-6.806477005210923,-0.07592754,-0.31445232,0.948667005,2.12114,3.0825199999999997,3.0977799999999998,72.0
1774822033.509909,1.1205673217773438e-05,2026-03-29T22:07:13.509,2026-03-29T18:07:13.509,-31933.215,-49290.39,-84137.985,-50035.86,-14649.615,-19926.36,4998.105,-53152.155,5.202850248327379,14.383270602540053,13.187698152969196,11.338359767042249,10.661453315481744,9.554591441888167,-13.180864729570068,-9.489772904861807,-0.07592754,-0.31445232,0.948667005,2.12114,3.0825199999999997,3.0977799999999998,72.0
1774822033.5099225,1.3589859008789062e-05,2026-03-29T22:07:13.509,2026-03-29T18:07:13.509,-31930.02,-49289.354999999996,-84132.045,-50021.235,-14629.185,-19900.71,4999.41,-53155.53,5.27751744452757,14.87648046614303,17.413643530329622,16.81021162810863,16.037975021072253,13.475114185954144,-10.644638254219926,-7.630828650242607,-0.07592754,-0.31445232,0.948667005,2.12114,3.0825199999999997,3.0977799999999998,72.0
1774822033.5099328,1.0251998901367188e-05,2026-03-29T22:07:13.509,2026-03-29T18:07:13.509,-31912.065,-49290.705,-84141.58499999999,-50030.729999999996,-14638.994999999999,-19911.555,5004.945,-53123.805,2.9845479602326677,8.493120088008297,13.236067411565205,14.127092911744748,13.659283419157049,10.901733894700204,-3.1669549437859645,-2.1223963296626973,-0.07592754,-0.31445232,0.948667005,2.12114,3.0825199999999997,3.0977799999999998,72.0
1774822033.520468,0.010535240173339844,2026-03-29T22:07:13.520,2026-03-29T18:07:13.520,-31928.399999999998,-49318.155,-84171.105,-50062.95,-14671.89,-19942.38,5003.505,-53125.515,-0.76786735535522,-2.0595527737190547,2.41462048917737,4.387222420717771,4.4601985421134795,2.8180856320654217,5.345812199971042,4.405712388102982,-0.07592754,-0.31445232,0.948667005,2.12114,3.0825199999999997,3.0977799999999998,72.0
1774822033.5204866,1.8596649169921875e-05,2026-03-29T22:07:13.520,2026-03-29T18:07:13.520,-31911.885,-49328.189999999995,-84188.745,-50083.2,-14700.644999999999,-19982.61,4974.4349999999995,-53112.104999999996,-4.356935925367644,-12.03678302199553,-9.970837339819642,-7.796259141002495,-7.232208457100789,-7.03002402099141,10.702193439195332,8.84618268305236,-0.07592754,-0.31445232,0.948667005,2.12114,3.0825199999999997,3.0977799999999998,72.0
1774822033.520507,2.0503997802734375e-05,2026-03-29T22:07:13.520,2026-03-29T18:07:13.520,-31871.07,-49291.965,-84163.00499999999,-50057.46,-14675.76,-19955.43,5023.9349999999995,-53077.049999999996,-6.156043859614733,-16.81309957344916,-17.938146056319805,-16.511069458220707,-15.759820116373076,-13.890551700161884,10.501379173751939,9.091803458067032,-0.07592754,-0.31445232,0.948667005,2.12114,3.0825199999999997,3.0977799999999998,72.0
1774822033.5205176,1.049041748046875e-05,2026-03-29T22:07:13.520,2026-03-29T18:07:13.520,-31906.574999999997,-49288.049999999996,-84158.595,-50052.869999999995,-14666.445,-19937.204999999998,5070.105,-53118.045,-5.279411574693142,-14.040162388688016,-17.509899987181992,-17.43214892629659,-16.885052826866925,-14.306394958897966,5.217961157275384,5.029172528626293,-0.07592754,-0.31445232,0.948667005,2.12114,3.0825199999999997,3.0977799999999998,72.0
1774822033.5227435,0.0022258758544921875,2026-03-29T22:07:13.522,2026-03-29T18:07:13.522,-31946.535,-49315.814999999995,-84172.455,-50063.58,-14675.805,-19945.8,5049.179999999999,-53159.22,-2.016307581202605,-4.792523145093417,-8.688366334059598,-9.961061473006577,-9.887840114794257,-7.8428394904921115,-2.1981001480634146,-1.4172114171059955,-0.07592754,-0.31445232,0.948667005,2.12114,3.0825199999999997,3.0977799999999998,72.0
1774822033.5227563,1.2874603271484375e-05,2026-03-29T22:07:13.522,2026-03-29T18:07:13.522,-31939.289999999997,-49284.045,-84125.16,-50015.97,-14626.394999999999,-19901.43,4998.69,-53195.49,2.256884397685332,6.854367559039697,4.478999010377772,2.438054026330468,2.027308742287482,2.6173613178935167,-7.934109315948677,-7.203068932192061,-0.07592754,-0.31445232,0.948667005,2.12114,3.0825199999999997,3.0977799999999998,72.0
1774822033.5268753,0.004118919372558594,2026-03-29T22:07:13.526,2026-03-29T18:07:13.526,-31886.28,-49212.0,-84055.095,-49951.665,-14568.119999999999,-19850.219999999998,5006.97,-53172.27,5.663275767038289,15.643901157702304,15.794032386349121,13.879903618364287,13.229113760129833,12.184014209126282,-9.270535470916597,-9.603844654005172,-0.074767875,-0.304991895,0.94750734,0.0,3.55558,2.65524,72.0
1774822033.5268912,1.5974044799804688e-05,2026-03-29T22:07:13.526,2026-03-29T18:07:13.526,-31855.68,-49208.805,-84060.855,-49953.645,-14568.345,-19845.495,5075.639999999999,-53104.005,6.657107548786625,17.531546281342486,19.858251226567074,18.88311269222307,18.34824468338006,16.267771597574917,-5.877919696924516,-7.49423934627413,-0.074767875,-0.304991895,0.94750734,0.0,3.55558,2.65524,72.0
1774822033.5309515,0.004060268402099609,2026-03-29T22:07:13.530,2026-03-29T18:07:13.530,-31898.835,-49274.82,-84128.895,-50013.36,-14624.73,-19901.07,5132.385,-53088.615,4.728406469962984,11.552263884079725,14.659840490454274,15.008605628875845,14.860793671222192,12.786854044987296,0.16700572121923957,-1.8686208347171676,-0.074767875,-0.304991895,0.94750734,0.0,3.55558,2.65524,72.0
1774822033.5309672,1.5735626220703125e-05,2026-03-29T22:07:13.530,2026-03-29T18:07:13.530,-31980.555,-49363.695,-84218.58,-50100.615,-14708.475,-19980.09,5051.429999999999,-53140.005,0.6584407312921077,0.2973134358093613,2.552328616469609,4.03553155303588,4.318705432023153,3.208324442792063,5.587786883266265,4.634989866574294,-0.074767875,-0.304991895,0.94750734,0.0,3.55558,2.65524,72.0
1774822033.5386744,0.007707118988037109,2026-03-29T22:07:13.538,2026-03-29T18:07:13.538,-31972.094999999998,-49356.9,-84220.37999999999,-50107.095,-14715.269999999999,-19987.425,5031.2699999999995,-53148.78,-3.7988928729958613,-11.228287240245999,-10.844045615747127,-8.886796723575674,-8.367254520320014,-8.089574625622996,7.658306476447324,8.976306411640751,-0.074767875,-0.304991895,0.94750734,0.0,3.55558,2.65524,72.0
1774822033.5386956,2.1219253540039062e-05,2026-03-29T22:07:13.538,2026-03-29T18:07:13.538,-31962.195,-49344.75,-84207.285,-50093.009999999995,-14700.24,-19976.94,5045.22,-53134.515,-6.677834994421021,-17.853725574576973,-19.289767117511992,-17.692497693133227,-17.248117608248823,-15.846730930621197,5.571003009125758,9.133652810681248,-0.074767875,-0.304991895,0.94750734,0.0,3.55558,2.65524,72.0
1774822033.538726,3.0517578125e-05,2026-03-29T22:07:13.538,2026-03-29T18:07:13.538,-31945.094999999998,-49333.545,-84198.59999999999,-50085.45,-14696.64,-19975.77,5039.325,-53119.079999999994,-6.671108522475173,-16.575627730860376,-18.857765012701833,-18.272572001849575,-18.149486639950148,-16.38867668190374,0.7373577255500533,5.040787655890099,-0.074767875,-0.304991895,0.94750734,0.0,3.55558,2.65524,72.0
1774822033.5387385,1.239776611328125e-05,2026-03-29T22:07:13.538,2026-03-29T18:07:13.538,-31953.42,-49336.515,-84190.36499999999,-50082.345,-14698.664999999999,-19970.82,5035.59,-53122.68,-3.7233796216986326,-7.918163794434204,-9.760810385603609,-10.395701850118932,-10.63648884119596,-9.366661317960768,-4.082108727300379,-1.3920563094680314,-0.074767875,-0.304991895,0.94750734,0.0,3.55558,2.65524,72.0
1774822033.5492082,0.010469675064086914,2026-03-29T22:07:13.549,2026-03-29T18:07:13.549,-31929.03,-49308.119999999995,-84154.95,-50042.744999999995,-14655.689999999999,-19921.995,5038.155,-53116.604999999996,0.920627691941161,4.294208173343117,3.775546383762445,2.2223822893153673,1.7948296897454499,2.0532634990470258,-6.308758208598776,-7.175145054392367,-0.074767875,-0.304991895,0.94750734,0.0,3.55558,2.65524,72.0
1774822033.549224,1.5735626220703125e-05,2026-03-29T22:07:13.549,2026-03-29T18:07:13.549,-31931.504999999997,-49306.095,-84156.345,-50041.935,-14651.775,-19917.855,5038.065,-53127.27,5.243290124129861,14.645417844271218,15.511226642799555,13.70543115399644,13.374928593708667,12.644213087182457,-4.905025172849051,-9.630849849431044,-0.074767875,-0.304991895,0.94750734,0.0,3.55558,2.65524,72.0
1774822033.5492375,1.3589859008789062e-05,2026-03-29T22:07:13.549,2026-03-29T18:07:13.549,-31967.46,-49332.915,-84188.11499999999,-50078.43,-14690.97,-19966.005,5027.625,-53153.009999999995,7.332160713691006,18.54520107957595,20.10002531346856,18.785248964103303,18.76757656049799,17.535433411077555,-0.852983125019139,-7.631606680747193,-0.076598925,-0.306822945,0.95177979,-3.00622,4.16598,1.51074,72.0
1774822033.549245,7.62939453125e-06,2026-03-29T22:07:13.549,2026-03-29T18:07:13.549,-31961.565,-49334.58,-84187.44,-50074.965,-14684.984999999999,-19964.745,5027.67,-53149.77,6.226550891709719,14.269802830354372,15.538847388602692,15.234146497821028,15.543631771482426,14.46395384112019,3.465954034693171,-2.113082564417533,-0.076598925,-0.306822945,0.95177979,-3.00622,4.16598,1.51074,72.0
1774822033.55107,0.0018248558044433594,2026-03-29T22:07:13.551,2026-03-29T18:07:13.551,-31935.555,-49325.22,-84186.315,-50070.689999999995,-14677.289999999999,-19959.39,5028.795,-53129.88,2.3585950669323976,3.7178013519358823,4.030841701022776,4.832342077397075,5.269402182732151,4.815784103460664,5.61963474531707,4.36871527443345,-0.076598925,-0.306822945,0.95177979,-3.00622,4.16598,1.51074,72.0
1774822033.551083,1.3113021850585938e-05,2026-03-29T22:07:13.551,2026-03-29T18:07:13.551,-31920.12,-49314.15,-84177.98999999999,-50063.715,-14674.859999999999,-19960.92,5026.815,-53120.115,-2.6124575547845215,-8.445991639108358,-9.102070669274758,-7.543401656423215,-7.27396330701351,-7.018762852198998,4.456642597732954,8.824723290770978,-0.076598925,-0.306822945,0.95177979,-3.00622,4.16598,1.51074,72.0
1774822033.5701745,0.019091367721557617,2026-03-29T22:07:13.570,2026-03-29T18:07:13.570,-31912.425,-49314.509999999995,-84183.795,-50072.49,-14687.055,-19968.93,5008.995,-53113.14,-6.510433812759472,-16.865913821849762,-17.91022707823657,-16.235648026083005,-16.342633005935586,-15.666521367057253,0.7055805655472874,9.211855486676873,-0.076598925,-0.306822945,0.95177979,-3.00622,4.16598,1.51074,72.0
1774822033.5701952,2.0742416381835938e-05,2026-03-29T22:07:13.570,2026-03-29T18:07:13.570,-31905.09,-49311.405,-84182.355,-50074.244999999995,-14692.095,-19976.625,4974.075,-53107.65,-7.594084722536725,-17.861244693441787,-18.53191009436595,-17.414351714180558,-17.88129735244372,-17.22865752307809,-3.463685804946116,5.367713065215754,-0.076598925,-0.306822945,0.95177979,-3.00622,4.16598,1.51074,72.0
1774822033.5702145,1.9311904907226562e-05,2026-03-29T22:07:13.570,2026-03-29T18:07:13.570,-31920.84,-49317.57,-84180.735,-50067.945,-14680.755,-19963.755,5019.795,-53117.235,-5.3355813770269265,-11.035343371940074,-10.88645312159869,-10.766358372681951,-11.34155598393662,-11.043196439348286,-5.65977036266989,-0.9254463488710399,-0.076598925,-0.306822945,0.95177979,-3.00622,4.16598,1.51074,72.0
1774822033.5702214,6.9141387939453125e-06,2026-03-29T22:07:13.570,2026-03-29T18:07:13.570,-31956.795,-49343.13,-84202.155,-50085.225,-14690.744999999999,-19964.835,5035.86,-53142.57,-0.6782571601793254,0.5735878793930461,1.3952509613546409,0.4776529461171319,0.1483264481142634,0.044408611769660364,-4.59819033719775,-6.770404323938737,-0.076598925,-0.306822945,0.95177979,-3.00622,4.16598,1.51074,72.0
1774822033.5702295,8.106231689453125e-06,2026-03-29T22:07:13.570,2026-03-29T18:07:13.570,-31968.539999999997,-49329.27,-84180.555,-50064.57,-14675.22,-19956.87,5028.389999999999,-53167.365,4.352002594635509,11.852293573075958,12.714509222520793,11.130123974458034,11.296795464132853,11.006837140271022,-0.8163443604037954,-9.490912409876694,-0.076598925,-0.306822945,0.95177979,-3.00622,4.16598,1.51074,72.0
1774822033.570236,6.4373016357421875e-06,2026-03-29T22:07:13.570,2026-03-29T18:07:13.570,-31952.879999999997,-49314.509999999995,-84170.745,-50062.994999999995,-14679.494999999999,-19964.07,5029.695,-53161.335,7.524678274956715,17.87105770501246,18.077058441586054,16.46090446268083,17.10625950536555,16.931817591652564,3.6103375262139714,-7.857343527223414,-0.076598925,-0.306822945,0.95177979,-3.00622,4.16598,1.51074,72.0
1774822033.5702436,7.62939453125e-06,2026-03-29T22:07:13.570,2026-03-29T18:07:13.570,-31938.03,-49304.924999999996,-84160.845,-50060.159999999996,-14681.564999999999,-19971.495,4995.224999999999,-53151.075,7.3938553204185915,16.04196033580096,15.304350906262778,14.307206194849812,15.125342140209398,15.234353460801593,6.196617315004715,-2.6409815583095466,-0.0781248,-0.31176678,0.9499487400000001,1.9075,3.64714,1.51074,72.0
1774822033.5702496,5.9604644775390625e-06,2026-03-29T22:07:13.570,2026-03-29T18:07:13.570,-31925.204999999998,-49288.005,-84141.62999999999,-50033.744999999995,-14647.994999999999,-19933.469999999998,4995.585,-53147.744999999995,3.9609153118642273,7.2321853107520795,5.9036266492048775,5.9358920478668775,6.477670953983736,6.784854876418235,5.411380861707158,3.752128188006487,-0.0781248,-0.31176678,0.9499487400000001,1.9075,3.64714,1.51074,72.0
1774822033.5702567,7.152557373046875e-06,2026-03-29T22:07:13.570,2026-03-29T18:07:13.570,-31942.89,-49323.555,-84188.87999999999,-50078.79,-14685.029999999999,-19950.93,5024.5199999999995,-53137.755,-1.2941787389983572,-4.645433376419944,-5.7404826570686724,-4.675309445297587,-4.759749013619748,-4.53763876136461,1.540782915478475,8.393324607708632,-0.0781248,-0.31176678,0.9499487400000001,1.9075,3.64714,1.51074,72.0
1774822033.5702622,5.4836273193359375e-06,2026-03-29T22:07:13.570,2026-03-29T18:07:13.570,-31965.164999999997,-49357.305,-84222.18,-50115.96,-14725.08,-19983.195,5025.195,-53142.03,-6.04436802526571,-14.371845776376361,-14.423136332304278,-12.73914422759026,-13.490340569168735,-13.637453082788387,-3.420752227519537,9.174766233617424,-0.0781248,-0.31176678,0.9499487400000001,1.9075,3.64714,1.51074,72.0
1774822033.5750613,0.0047991275787353516,2026-03-29T22:07:13.575,2026-03-29T18:07:13.575,-31936.995,-49324.95,-84171.87,-50065.38,-14682.914999999999,-19955.34,5014.9349999999995,-53121.915,-8.144268035808135,-17.71842422315847,-16.455654928804556,-14.829874563879747,-15.92249909477747,-16.507630956092846,-6.806129507558541,5.767476035022431,-0.0781248,-0.31176678,0.9499487400000001,1.9075,3.64714,1.51074,72.0
1774822033.5750887,2.7418136596679688e-05,2026-03-29T22:07:13.575,2026-03-29T18:07:13.575,-31924.844999999998,-49319.505,-84168.22499999999,-50055.795,-14669.055,-19947.87,4996.485,-53119.439999999995,-6.60307668883539,-13.290493253541626,-11.230041091294703,-10.336445791656491,-11.220702873658823,-12.002077992700517,-6.697076556415374,-0.24159222989557277,-0.0781248,-0.31176678,0.9499487400000001,1.9075,3.64714,1.51074,72.0
1774822033.5790567,0.003968000411987305,2026-03-29T22:07:13.579,2026-03-29T18:07:13.579,-31930.065,-49321.89,-84176.685,-50061.6,-14674.23,-19964.295,4964.535,-53142.795,-2.0591493841991357,-3.113207667872984,-1.3518953887904552,-1.585003239981418,-1.764261278669976,-2.289007434892287,-2.979073313961659,-6.089948304796994,-0.0781248,-0.31176678,0.9499487400000001,1.9075,3.64714,1.51074,72.0
1774822033.5790875,3.075599670410156e-05,2026-03-29T22:07:13.579,2026-03-29T18:07:13.579,-31925.925,-49295.295,-84164.84999999999,-50052.24,-14663.295,-19955.655,4996.71,-53156.61,3.474015737286185,8.28829702344373,8.651758327273832,7.35196711023305,8.048112959778159,8.190734185326866,2.538359379662012,-9.111789518993984,-0.0781248,-0.31176678,0.9499487400000001,1.9075,3.64714,1.51074,72.0
1774822033.5832484,0.004160881042480469,2026-03-29T22:07:13.583,2026-03-29T18:07:13.583,-31893.795,-49285.799999999996,-84177.62999999999,-50074.38,-14686.56,-19974.329999999998,5023.9349999999995,-53112.96,7.495483343378976,15.900248178328308,14.411980625577634,12.555606509685653,13.85097968804921,14.761162285035278,7.018472994922583,-7.955570122463207,-0.0781248,-0.31176678,0.9499487400000001,1.9075,3.64714,1.51074,72.0
1774822033.5832667,1.8358230590820312e-05,2026-03-29T22:07:13.583,2026-03-29T18:07:13.583,-31893.344999999998,-49287.645,-84159.135,-50052.689999999995,-14660.414999999999,-19930.094999999998,5086.3949999999995,-53082.09,8.149793069912612,16.431016795812376,13.629132032293471,11.982879149776364,13.262868630363753,14.608040122829317,8.05960543199687,-3.1899896048543597,-0.0781248,-0.31176678,0.9499487400000001,1.9075,3.64714,1.51074,72.0
1774822033.5869665,0.003699779510498047,2026-03-29T22:07:13.586,2026-03-29T18:07:13.586,-31931.055,-49299.84,-84150.27,-50036.49,-14643.135,-19907.145,5083.11,-53108.82,5.091211940726759,9.74530912601651,6.980705163700192,6.254843266324952,6.86151010210124,7.991863538828256,4.967813563483018,2.9740004907964086,-0.07702617,-0.308043645,0.944394555,2.88414,3.17408,0.85456,72.0
1774822033.5869873,2.0742416381835938e-05,2026-03-29T22:07:13.586,2026-03-29T18:07:13.586,-31944.914999999997,-49303.89,-84153.15,-50040.18,-14650.064999999999,-19924.875,5044.679999999999,-53130.735,-0.3267912611742629,-1.1075838200360246,-2.3256429025336427,-1.784033207218932,-2.213269736863889,-1.948452448807331,-0.8284491175893715,7.710279156637388,-0.07702617,-0.308043645,0.944394555,2.88414,3.17408,0.85456,72.0
1774822033.5910356,0.004048347473144531,2026-03-29T22:07:13.591,2026-03-29T18:07:13.591,-31963.635,-49324.049999999996,-84175.155,-50063.22,-14675.67,-19958.76,5036.76,-53146.395,-5.642820893148474,-11.276185936308712,-10.090118515208866,-8.46489582628045,-9.789742189601217,-10.68039861339106,-6.454562687867557,8.876448667370791,-0.07702617,-0.308043645,0.944394555,2.88414,3.17408,0.85456,72.0
1774822033.5910523,1.6689300537109375e-05,2026-03-29T22:07:13.591,2026-03-29T18:07:13.591,-31970.789999999997,-49336.92,-84189.375,-50074.74,-14683.14,-19963.17,5036.94,-53158.275,-8.405577702026537,-16.27811877056888,-13.01741569306692,-10.970115517617653,-12.586754477837452,-14.351694014869265,-9.02879656159675,5.986510481489956,-0.07702617,-0.308043645,0.944394555,2.88414,3.17408,0.85456,72.0
1774822033.598249,0.007196664810180664,2026-03-29T22:07:13.598,2026-03-29T18:07:13.598,-31955.489999999998,-49333.14,-84188.745,-50073.165,-14677.83,-19951.245,5036.445,-53140.86,-7.311276887047083,-13.988730851263657,-10.116859691180307,-8.521696703123192,-9.642206733452428,-11.502584735257043,-7.137987056969945,0.41417236990542555,-0.07702617,-0.308043645,0.944394555,2.88414,3.17408,0.85456,72.0
1774822033.598266,1.6927719116210938e-05,2026-03-29T22:07:13.598,2026-03-29T18:07:13.598,-31950.945,-49328.055,-84186.135,-50069.205,-14675.175,-19948.635,5028.615,-53143.92,-2.829550705250133,-5.559630383604524,-3.01214171981249,-2.583072058697441,-2.6235786532049574,-3.6506854176242305,-1.594464389498189,-5.258941689999656,-0.07702617,-0.308043645,0.944394555,2.88414,3.17408,0.85456,72.0
1774822033.5982833,1.7404556274414062e-05,2026-03-29T22:07:13.598,2026-03-29T18:07:13.598,-31932.855,-49301.909999999996,-84156.12,-50042.295,-14648.715,-19921.274999999998,5041.9349999999995,-53134.244999999995,2.9874176898908518,5.138162068655851,4.9215660884413825,3.952743267512935,5.068356121875938,5.488663375034032,4.923823424981716,-8.441845963094817,-0.07702617,-0.308043645,0.944394555,2.88414,3.17408,0.85456,72.0
1774822033.5982926,9.298324584960938e-06,2026-03-29T22:07:13.598,2026-03-29T18:07:13.598,-31919.805,-49291.2,-84150.675,-50040.99,-14649.705,-19922.76,5046.66,-53127.494999999995,7.441108421847042,13.286614688941699,10.150807578346633,8.158898625303236,9.9376654860235,11.756914296529915,9.184358199709711,-7.722361802312533,-0.07702617,-0.308043645,0.944394555,2.88414,3.17408,0.85456,72.0
1774822033.6033003,0.005007743835449219,2026-03-29T22:07:13.603,2026-03-29T18:07:13.603,-31946.355,-49319.415,-84180.69,-50069.924999999996,-14680.08,-19956.87,5024.835,-53146.979999999996,8.442986928362034,15.30050711333967,10.560960651433222,8.387814469168497,9.989265495960575,12.455630953375412,9.01248214522986,-3.498021246943148,-0.07702617,-0.308043645,0.944394555,2.88414,3.17408,0.85456,72.0
1774822033.6033149,1.4543533325195312e-05,2026-03-29T22:07:13.603,2026-03-29T18:07:13.603,-31948.515,-49328.145,-84191.12999999999,-50078.295,-14689.08,-19967.085,4991.67,-53150.715,5.503982753558852,10.424592292915728,6.313266864273476,4.913011501847903,5.552214054475645,7.523352322295533,4.396864064793455,2.234377994155305,-0.07702617,-0.308043645,0.944394555,2.88414,3.17408,0.85456,72.0
