unix_time_s,dt_s,UTC,LOCAL,EMG1_Raw,EMG2_Raw,EMG3_Raw,EMG4_Raw,EMG5_Raw,EMG6_Raw,EMG7_Raw,EMG8_Raw,EMG1_Filtered,EMG2_Filtered,EMG3_Filtered,EMG4_Filtered,EMG5_Filtered,EMG6_Filtered,EMG7_Filtered,EMG8_Filtered,Accel1_Raw,Accel2_Raw,Accel3_Raw,Gyro1_Raw,Gyro2_Raw,Gyro3_Raw,Battery
1774822540.544506,,2026-03-29T22:15:40.544,2026-03-29T18:15:40.544,-34157.655,-46947.33,-84843.22499999999,-49930.38,-12784.32,-18317.16,6584.985,5667.75,-0.16063248345557418,-0.8223988981722071,-0.848660846744612,-0.5621739811034357,-0.4187605220254096,-1.0796384601767373,0.002107045662577945,-0.2736948171323694,0.05322252,-0.983701095,-0.19189404000000002,5.4173,12.681059999999999,-6.4702399999999995,71.0
1774822540.5445237,1.7642974853515625e-05,2026-03-29T22:15:40.544,2026-03-29T18:15:40.544,-34151.985,-46957.409999999996,-84861.315,-49949.549999999996,-12802.545,-18333.0,6559.245,5669.235,-5.668445262269796,-7.684259628130587,-7.933179098485254,-7.694511125718781,-6.424070348684868,-7.3143877604195735,-5.663779370602682,4.560885975558201,0.05322252,-0.983701095,-0.19189404000000002,5.4173,12.681059999999999,-6.4702399999999995,71.0
1774822540.5484235,0.003899812698364258,2026-03-29T22:15:40.548,2026-03-29T18:15:40.548,-34140.78,-46947.869999999995,-84854.61,-49945.59,-12797.144999999999,-18324.63,6563.7,5683.815,-8.564906612849503,-10.944040522057096,-11.262778788696094,-11.184595701655596,-9.407440772102147,-10.213325463920112,-8.400355705825001,7.583202372098095,0.05322252,-0.983701095,-0.19189404000000002,5.4173,12.681059999999999,-6.4702399999999995,71.0
1774822540.548439,1.5497207641601562e-05,2026-03-29T22:15:40.548,2026-03-29T18:15:40.548,-34131.284999999996,-46924.38,-84822.61499999999,-49908.42,-12759.21,-18293.399999999998,6571.8,5695.785,-7.54990613383006,-9.076853098547861,-9.237254843340875,-9.350651323112535,-7.922394771915085,-8.404615634417805,-7.051154691868409,7.2933996015985745,0.05322252,-0.983701095,-0.19189404000000002,5.4173,12.681059999999999,-6.4702399999999995,71.0
1774822540.5525377,0.004098653793334961,2026-03-29T22:15:40.552,2026-03-29T18:15:40.552,-34129.89,-46925.865,-84822.61499999999,-49911.299999999996,-12771.765,-18328.094999999998,6563.025,5706.0,-3.1201244580593017,-2.977488838156463,-2.81897090687843,-3.0617684659147275,-2.6579783427827035,-2.7017461790946893,-2.4627584390436574,3.6359598667731703,0.05322252,-0.983701095,-0.19189404000000002,5.4173,12.681059999999999,-6.4702399999999995,71.0
1774822540.5525625,2.47955322265625e-05,2026-03-29T22:15:40.552,2026-03-29T18:15:40.552,-34143.21,-46937.115,-84835.53,-49922.325,-12782.115,-18344.7,6585.4349999999995,5710.724999999999,2.6724038538702897,4.471685438378089,4.92907058764963,4.679372935104482,3.88625452749752,4.266838766738304,3.033575314689277,-1.8706112869406544,0.05322252,-0.983701095,-0.19189404000000002,5.4173,12.681059999999999,-6.4702399999999995,71.0
1774822540.5569763,0.0044138431549072266,2026-03-29T22:15:40.556,2026-03-29T18:15:40.556,-34122.6,-46913.939999999995,-84818.79,-49906.619999999995,-12761.685,-18299.565,6607.98,5703.885,7.174916210194476,9.77317011380599,10.315628190854747,10.18136329093283,8.596636898627422,9.2790023274274,6.820407701093701,-6.747359892170577,0.05810532,-0.9855931800000001,-0.18579054,4.577999999999999,12.98626,-6.4397199999999994,71.0
1774822540.5569935,1.71661376953125e-05,2026-03-29T22:15:40.556,2026-03-29T18:15:40.556,-34131.6,-46910.25,-84807.94499999999,-49897.845,-12748.545,-18269.145,6604.5599999999995,5686.605,8.355774554733687,10.46873005291856,10.791140238630081,10.835879014900597,9.235939828668176,10.019156889996497,7.2499520524179335,-8.674819256486073,0.05810532,-0.9855931800000001,-0.18579054,4.577999999999999,12.98626,-6.4397199999999994,71.0
1774822540.561699,0.0047054290771484375,2026-03-29T22:15:40.561,2026-03-29T18:15:40.561,-34106.805,-46907.1,-84812.715,-49904.909999999996,-12752.685,-18269.774999999998,6582.42,5668.65,5.727637933154204,6.287279808440403,6.160853451084137,6.360293658054486,5.510009310749609,6.154151790673439,4.349264294052404,-6.612786952495713,0.05810532,-0.9855931800000001,-0.18579054,4.577999999999999,12.98626,-6.4397199999999994,71.0
1774822540.5617216,2.2649765014648438e-05,2026-03-29T22:15:40.561,2026-03-29T18:15:40.561,-34139.385,-46941.479999999996,-84846.915,-49939.38,-12785.805,-18301.32,6565.455,5661.719999999999,0.5495874669942392,-0.7537050122161557,-1.3393734718373587,-1.0841039840947477,-0.8002809922379593,-0.5180014285127263,-0.3210209956261065,-1.372459330731357,0.05810532,-0.9855931800000001,-0.18579054,4.577999999999999,12.98626,-6.4397199999999994,71.0
1774822540.5639718,0.002250194549560547,2026-03-29T22:15:40.563,2026-03-29T18:15:40.563,-34146.45,-46945.665,-84847.00499999999,-49931.729999999996,-12771.314999999999,-18283.995,6588.495,5672.88,-4.776092790309244,-7.328771471359556,-8.131850133278666,-7.945763706464777,-6.69945816050552,-6.912467644940603,-4.517123652324098,4.6770616421780975,0.05810532,-0.9855931800000001,-0.18579054,4.577999999999999,12.98626,-6.4397199999999994,71.0
1774822540.5639813,9.5367431640625e-06,2026-03-29T22:15:40.563,2026-03-29T18:15:40.563,-34152.615,-46926.314999999995,-84824.415,-49914.405,-12760.695,-18284.399999999998,6596.28,5685.165,-7.823300907179241,-10.387124791474328,-11.015952209618678,-10.990175728785134,-9.410356815798828,-10.094959936273616,-6.404561039201489,8.678809780628075,0.05810532,-0.9855931800000001,-0.18579054,4.577999999999999,12.98626,-6.4397199999999994,71.0
1774822540.5683627,0.004381418228149414,2026-03-29T22:15:40.568,2026-03-29T18:15:40.568,-34160.85,-46932.615,-84829.635,-49920.57,-12771.27,-18312.344999999998,6589.17,5697.495,-7.253756132422074,-8.578334599343545,-8.68527900042711,-8.833840524227645,-7.688798810019355,-8.637252100041037,-5.3534173772913185,8.653002903411496,0.05810532,-0.9855931800000001,-0.18579054,4.577999999999999,12.98626,-6.4397199999999994,71.0
1774822540.568383,2.0265579223632812e-05,2026-03-29T22:15:40.568,2026-03-29T18:15:40.568,-34126.56,-46945.17,-84855.69,-49947.57,-12800.295,-18345.555,6571.9349999999995,5705.55,-3.40852546544855,-2.84982204507372,-2.3193039098054813,-2.572726669067913,-2.3939796183797015,-3.2603266768938965,-2.0950046139353984,4.498250698607359,0.05810532,-0.9855931800000001,-0.18579054,4.577999999999999,12.98626,-6.4397199999999994,71.0
1774822540.5724523,0.004069328308105469,2026-03-29T22:15:40.572,2026-03-29T18:15:40.572,-34158.06,-46936.17,-84827.97,-49916.97,-12767.355,-18296.684999999998,6611.175,5706.45,1.8838159708776196,4.048929381466384,5.018566575485034,4.78034282991219,3.9468631044950984,3.5256223433727443,1.7588673157422912,-1.886509880203715,0.05810532,-0.9855931800000001,-0.18579054,4.577999999999999,12.98626,-6.4397199999999994,71.0
1774822540.5724733,2.09808349609375e-05,2026-03-29T22:15:40.572,2026-03-29T18:15:40.572,-34138.619999999995,-46924.83,-84821.12999999999,-49913.955,-12769.02,-18294.03,6584.355,5694.48,6.178488851686625,8.896265350807989,9.867307353411162,9.758438223548637,8.356396985637348,8.603288434692976,4.530733389557673,-7.4622973087386235,0.05810532,-0.9855931800000001,-0.18579054,4.577999999999999,12.98626,-6.4397199999999994,71.0
1774822540.5769897,0.0045163631439208984,2026-03-29T22:15:40.576,2026-03-29T18:15:40.576,-34096.545,-46912.455,-84820.545,-49913.64,-12768.119999999999,-18294.12,6551.054999999999,5679.585,7.549080688806643,9.514266088165893,10.012076376301033,10.087201336671214,8.8154131042607,9.691085343932615,5.206728359026252,-9.507577904587862,0.05871567,-0.9899877,-0.183105,5.4936,11.994359999999999,-8.454039999999999,71.0
1774822540.5770102,2.0503997802734375e-05,2026-03-29T22:15:40.577,2026-03-29T18:15:40.577,-34105.725,-46908.765,-84813.93,-49903.155,-12750.119999999999,-18268.065,6562.3949999999995,5671.485,5.456229033136758,5.7517433503155715,5.499125445510641,5.727433822887797,5.190267935769281,6.373742638691804,3.763711535877109,-6.969357942140932,0.05871567,-0.9899877,-0.183105,5.4936,11.994359999999999,-8.454039999999999,71.0
1774822540.580332,0.0033218860626220703,2026-03-29T22:15:40.580,2026-03-29T18:15:40.580,-34121.115,-46921.14,-84824.81999999999,-49912.92,-12759.795,-18278.505,6558.255,5666.76,0.9563939045419761,-0.5117301778578741,-1.4450707937767915,-1.1662720550410213,-0.7480192421471772,0.2524389103528606,1.0180330177556192,-1.027202605448981,0.05871567,-0.9899877,-0.183105,5.4936,11.994359999999999,-8.454039999999999,71.0
1774822540.580362,3.0040740966796875e-05,2026-03-29T22:15:40.580,2026-03-29T18:15:40.580,-34139.07,-46947.555,-84846.825,-49933.665,-12783.24,-18307.17,6542.235,5675.49,-3.8282742586583782,-6.3102780614870335,-7.522084160191322,-7.320671588967062,-6.199124487034905,-5.834910190391374,-1.8445708888075367,5.4403447986111955,0.05871567,-0.9899877,-0.183105,5.4936,11.994359999999999,-8.454039999999999,71.0
1774822540.5845504,0.0041882991790771484,2026-03-29T22:15:40.584,2026-03-29T18:15:40.584,-34139.295,-46948.814999999995,-84851.595,-49941.314999999995,-12789.9,-18314.82,6544.304999999999,5691.465,-6.713968482423045,-9.007654667073902,-9.941216154091718,-9.911851885571267,-8.66623819677764,-9.140506617218149,-3.785741514853972,9.253390833237331,0.05871567,-0.9899877,-0.183105,5.4936,11.994359999999999,-8.454039999999999,71.0
1774822540.5845723,2.193450927734375e-05,2026-03-29T22:15:40.584,2026-03-29T18:15:40.584,-34144.2,-46944.72,-84844.75499999999,-49931.865,-12774.42,-18296.505,6568.965,5699.429999999999,-6.456291048751614,-7.503095112552969,-7.707813586867769,-7.868438662114741,-7.106231757938626,-8.255029194561414,-4.250488266510938,8.512448416970837,0.05871567,-0.9899877,-0.183105,5.4936,11.994359999999999,-8.454039999999999,71.0
1774822540.5885985,0.004026174545288086,2026-03-29T22:15:40.588,2026-03-29T18:15:40.588,-34148.835,-46938.509999999995,-84833.19,-49916.88,-12762.585,-18293.535,6574.41,5697.945,-3.287084613498278,-2.6717041064547233,-2.021934392551572,-2.304822176256855,-2.364051137969266,-3.7064141869522733,-3.240949779642565,3.569296700029253,0.05871567,-0.9899877,-0.183105,5.4936,11.994359999999999,-8.454039999999999,71.0
1774822540.5886166,1.811981201171875e-05,2026-03-29T22:15:40.588,2026-03-29T18:15:40.588,-34128.18,-46921.545,-84816.765,-49900.185,-12747.734999999999,-18280.755,6589.125,5690.07,1.2448271790192684,3.1320638649816175,4.366768758948061,4.085431618462421,3.286038890651539,2.34427528786908,-1.1917329484570183,-3.1199190455127916,0.05871567,-0.9899877,-0.183105,5.4936,11.994359999999999,-8.454039999999999,71.0
1774822540.5924323,0.0038156509399414062,2026-03-29T22:15:40.592,2026-03-29T18:15:40.592,-34136.01,-46936.439999999995,-84834.72,-49917.735,-12762.945,-18291.329999999998,6608.07,5678.235,5.031060813235055,7.23121193414896,8.501557390306873,8.346897896815202,7.243480196183406,7.138839573097389,1.2262537307614594,-8.208959169474273,0.05871567,-0.9899877,-0.183105,5.4936,11.994359999999999,-8.454039999999999,71.0
1774822540.5924547,2.2411346435546875e-05,2026-03-29T22:15:40.592,2026-03-29T18:15:40.592,-34114.905,-46911.915,-84814.47,-49903.02,-12757.994999999999,-18297.765,6602.849999999999,5669.325,6.388234393720754,7.870591097337164,8.597209887673442,8.640178396102778,7.788265522481773,8.588898840856821,3.2806154864993835,-9.145269623435338,0.05871567,-0.9899877,-0.183105,5.4936,11.994359999999999,-8.454039999999999,71.0
1774822540.5978673,0.005412578582763672,2026-03-29T22:15:40.597,2026-03-29T18:15:40.597,-34139.744999999995,-46940.445,-84848.805,-49942.17,-12798.99,-18339.93,6534.0,5670.135,4.807715929108431,4.965587024279332,4.806884721279017,5.032629798754475,4.826807905733421,6.187217066604794,4.31808270876829,-5.47123252208237,0.060119475,-0.986386635,-0.18041946,2.62472,12.04014,-9.18652,71.0
1774822540.5978885,2.1219253540039062e-05,2026-03-29T22:15:40.597,2026-03-29T18:15:40.597,-34145.775,-46951.47,-84857.355,-49950.314999999995,-12804.48,-18342.63,6498.719999999999,5676.03,1.1356301681250676,0.03703680996471098,-0.9502262293160284,-0.6363219780952187,-0.14573100088394808,1.1649189227818868,3.9091608820984556,0.9298780934655655,0.060119475,-0.986386635,-0.18041946,2.62472,12.04014,-9.18652,71.0
1774822540.6014416,0.003553152084350586,2026-03-29T22:15:40.601,2026-03-29T18:15:40.601,-34140.375,-46945.034999999996,-84847.095,-49935.915,-12787.38,-18325.53,6586.065,5684.445,-2.8745024894824907,-4.585954027114226,-5.9687215860136,-5.700257117472386,-4.807962399635242,-4.141142169595963,2.013923510120566,6.7847262661305985,0.060119475,-0.986386635,-0.18041946,2.62472,12.04014,-9.18652,71.0
1774822540.6014595,1.7881393432617188e-05,2026-03-29T22:15:40.601,2026-03-29T18:15:40.601,-34142.715,-46938.24,-84827.295,-49911.435,-12760.47,-18296.28,6653.16,5689.035,-5.402049278912334,-6.877254807359712,-8.040910165957529,-7.932989299754276,-7.107866368591652,-7.385180014642638,-0.8881092580316958,9.103194141627812,0.060119475,-0.986386635,-0.18041946,2.62472,12.04014,-9.18652,71.0
1774822540.6082587,0.006799221038818359,2026-03-29T22:15:40.608,2026-03-29T18:15:40.608,-34123.77,-46922.085,-84821.355,-49912.064999999995,-12763.439999999999,-18292.454999999998,6589.8,5698.62,-5.388016409109801,-6.003799489497001,-6.429615474449589,-6.5296965863526175,-6.1689695915062766,-7.2542471491398475,-3.820115754827706,6.718179652803187,0.060119475,-0.986386635,-0.18041946,2.62472,12.04014,-9.18652,71.0
1774822540.608277,1.8358230590820312e-05,2026-03-29T22:15:40.608,2026-03-29T18:15:40.608,-34132.77,-46929.284999999996,-84834.72,-49933.215,-12788.82,-18311.489999999998,6569.28,5697.179999999999,-2.973466998468295,-2.6022706611755817,-2.1003415204101654,-2.3683702608470774,-2.605526781316479,-3.9901208518370392,-5.5746624554616275,0.8928089730218826,0.060119475,-0.986386635,-0.18041946,2.62472,12.04014,-9.18652,71.0
1774822540.6082916,1.4543533325195312e-05,2026-03-29T22:15:40.608,2026-03-29T18:15:40.608,-34129.89,-46927.619999999995,-84833.595,-49930.47,-12783.285,-18304.785,6593.94,5682.87,0.631450683319974,1.6333674649460301,2.8409518793855053,2.5151813719521297,1.855348709513374,0.8107636420972177,-5.197155762956829,-5.329556509371612,0.060119475,-0.986386635,-0.18041946,2.62472,12.04014,-9.18652,71.0
1774822540.608299,7.3909759521484375e-06,2026-03-29T22:15:40.608,2026-03-29T18:15:40.608,-34135.065,-46928.07,-84825.405,-49911.75,-12754.664999999999,-18271.89,6606.045,5671.62,3.7552018922936736,4.802918259681975,6.1841231387034235,5.9344761903523615,5.2212797272106215,4.983477889031979,-2.500642446891555,-8.705456492184863,0.060119475,-0.986386635,-0.18041946,2.62472,12.04014,-9.18652,71.0
1774822540.6191554,0.010856389999389648,2026-03-29T22:15:40.619,2026-03-29T18:15:40.619,-34147.799999999996,-46928.07,-84820.545,-49903.155,-12743.46,-18257.76,6599.925,5671.665,5.043427508020892,5.658914494023829,6.610202795429047,6.538737918200189,6.1315912149169725,6.77737886834575,1.6650304049816531,-7.484309469453664,0.060119475,-0.986386635,-0.18041946,2.62472,12.04014,-9.18652,71.0
1774822540.6191838,2.8371810913085938e-05,2026-03-29T22:15:40.619,2026-03-29T18:15:40.619,-34141.635,-46916.775,-84808.845,-49895.1,-12738.24,-18255.239999999998,6616.665,5680.035,4.043603661717177,4.0819321783038625,4.194267021220975,4.330031138455631,4.396544502853796,5.586388541406056,5.609056122609049,-2.3285098256790593,0.060119475,-0.986386635,-0.18041946,2.62472,12.04014,-9.18652,71.0
1774822540.619218,3.4332275390625e-05,2026-03-29T22:15:40.619,2026-03-29T18:15:40.619,-34099.74,-46905.884999999995,-84812.67,-49905.134999999995,-12752.73,-18277.02,6599.07,5689.755,1.3442046874230607,0.9999194876290942,0.23411155543366394,0.5226398685131654,0.9712705627556288,2.1246345030525267,7.470480000685711,4.028780399644912,0.061218105,-0.98913321,-0.178649445,3.3571999999999997,13.00152,-8.14884,71.0
1774822540.6192255,7.3909759521484375e-06,2026-03-29T22:15:40.619,2026-03-29T18:15:40.619,-34120.26,-46924.29,-84834.58499999999,-49928.58,-12779.685,-18307.62,6555.285,5697.719999999999,-1.7619905808527914,-2.1441899973857526,-3.447435350939824,-3.120759840461469,-2.5672768526717067,-1.9841828801039225,6.10751863703008,8.21825258517986,0.061218105,-0.98913321,-0.178649445,3.3571999999999997,13.00152,-8.14884,71.0
1774822540.627052,0.007826566696166992,2026-03-29T22:15:40.627,2026-03-29T18:15:40.627,-34146.54,-46940.22,-84851.81999999999,-49949.189999999995,-12804.21,-18333.719999999998,6535.98,5694.795,-3.901914368654098,-4.077026087391522,-5.352044209056026,-5.115476555347959,-4.755684121577444,-4.9740059242782735,1.774392637708313,8.013508844933938,0.061218105,-0.98913321,-0.178649445,3.3571999999999997,13.00152,-8.14884,71.0
1774822540.6270735,2.1457672119140625e-05,2026-03-29T22:15:40.627,2026-03-29T18:15:40.627,-34153.244999999995,-46932.93,-84837.87,-49934.43,-12789.359999999999,-18318.285,6567.66,5686.065,-4.229918317885845,-4.202645742044381,-4.906564560839426,-4.85171292273707,-4.844708742842609,-5.695264147240891,-3.807904637175395,3.5166989816946748,0.061218105,-0.98913321,-0.178649445,3.3571999999999997,13.00152,-8.14884,71.0
1774822540.6270957,2.2172927856445312e-05,2026-03-29T22:15:40.627,2026-03-29T18:15:40.627,-34151.67,-46927.665,-84818.385,-49914.54,-12773.43,-18300.239999999998,6575.985,5670.09,-2.7493378506242294,-2.7353656384713103,-2.5791101735423316,-2.7266125805320467,-3.0213402349980525,-4.039806596979971,-8.116816689241766,-2.88269317784236,0.061218105,-0.98913321,-0.178649445,3.3571999999999997,13.00152,-8.14884,71.0
1774822540.627104,8.344650268554688e-06,2026-03-29T22:15:40.627,2026-03-29T18:15:40.627,-34143.659999999996,-46944.72,-84837.69,-49927.185,-12782.295,-18311.85,6531.974999999999,5658.929999999999,-0.23230735077346917,-0.46487260687931414,0.4705928218034377,0.17712785603226855,-0.2090951953175874,-0.8849930503814029,-8.984229047403591,-7.765233004967783,0.061218105,-0.98913321,-0.178649445,3.3571999999999997,13.00152,-8.14884,71.0
1774822540.6287775,0.0016734600067138672,2026-03-29T22:15:40.628,2026-03-29T18:15:40.628,-34130.52,-46940.354999999996,-84843.98999999999,-49933.845,-12791.519999999999,-18334.26,6487.695,5657.58,2.1856980312994123,1.6700821946305642,2.9773930736504646,2.648440736090354,2.4047604394366093,2.3668450509016346,-5.70552392054987,-8.498102754558003,0.061218105,-0.98913321,-0.178649445,3.3571999999999997,13.00152,-8.14884,71.0
1774822540.6287887,1.1205673217773438e-05,2026-03-29T22:15:40.628,2026-03-29T18:15:40.628,-34137.765,-46939.095,-84839.535,-49933.395,-12798.63,-18349.695,6494.3099999999995,5663.25,3.522970598975229,2.969412994607011,4.094074341248483,3.852302408016056,3.871365395003588,4.413709956525864,0.4745734914178288,-4.649060114726809,0.061218105,-0.98913321,-0.178649445,3.3571999999999997,13.00152,-8.14884,71.0
1774822540.6405644,0.011775732040405273,2026-03-29T22:15:40.640,2026-03-29T18:15:40.640,-34164.27,-46953.99,-84843.495,-49936.455,-12800.43,-18345.239999999998,6539.219999999999,5672.474999999999,3.342206230293373,3.160920701618591,3.636329008801942,3.571880140489758,3.7992164916007947,4.564654220333534,6.810457948731111,1.7604551452791761,0.061218105,-0.98913321,-0.178649445,3.3571999999999997,13.00152,-8.14884,71.0
1774822540.640585,2.0503997802734375e-05,2026-03-29T22:15:40.640,2026-03-29T18:15:40.640,-34171.83,-46926.314999999995,-84811.72499999999,-49904.865,-12765.06,-18301.364999999998,6609.33,5694.165,1.8630539688846284,2.366983470620523,2.0057890557362303,2.144555240916577,2.3984159354134,2.941927001057283,10.293050849133873,7.311083963784109,0.061218105,-0.98913321,-0.178649445,3.3571999999999997,13.00152,-8.14884,71.0
1774822540.6406057,2.0742416381835938e-05,2026-03-29T22:15:40.640,2026-03-29T18:15:40.640,-34123.275,-46942.695,-84849.48,-49937.22,-12791.025,-18317.475,6609.825,5705.505,-0.21158819892920397,0.9415171688347823,-0.09372957234665061,0.20130598473483263,0.2955830031118165,0.33575803873424637,9.110151972619311,9.001353825273341,0.06127914,-0.98937735,-0.17541459,4.91372,13.94764,-8.0878,71.0
1774822540.6406128,7.152557373046875e-06,2026-03-29T22:15:40.640,2026-03-29T18:15:40.640,-34088.13,-46903.95,-84807.135,-49896.134999999995,-12752.64,-18297.18,6622.785,5711.085,-2.037782440625494,-0.6938847351219954,-1.965358354401696,-1.617474541710194,-1.7512533896484717,-2.179765207499495,3.605901566673034,5.862021685894644,0.06127914,-0.98937735,-0.17541459,4.91372,13.94764,-8.0878,71.0
1774822540.6406212,8.344650268554688e-06,2026-03-29T22:15:40.640,2026-03-29T18:15:40.640,-34101.405,-46899.674999999996,-84798.315,-49886.955,-12742.47,-18281.114999999998,6592.094999999999,5703.03,-2.9711949381302047,-2.1360798258278417,-3.1154764702758544,-2.839472547045994,-3.1060729131138722,-3.6836019598806287,-3.776396867173411,-0.4969109495014552,0.06127914,-0.98937735,-0.17541459,4.91372,13.94764,-8.0878,71.0
1774822540.6406279,6.67572021484375e-06,2026-03-29T22:15:40.640,2026-03-29T18:15:40.640,-34132.635,-46926.72,-84825.18,-49911.795,-12761.279999999999,-18278.594999999998,6598.575,5688.764999999999,-2.7697054987834173,-3.019345172242138,-3.3050404223618357,-3.2044647604028964,-3.4041225329607254,-3.7234539986776602,-9.595013939659578,-6.712806890309384,0.06127914,-0.98937735,-0.17541459,4.91372,13.94764,-8.0878,71.0
1774822540.6448228,0.004194974899291992,2026-03-29T22:15:40.644,2026-03-29T18:15:40.644,-34128.674999999996,-46929.195,-84829.995,-49916.25,-12763.439999999999,-18272.34,6596.6849999999995,5679.2699999999995,-1.609414077241827,-3.038388096124233,-2.517088970350521,-2.63777523519974,-2.596358733043993,-2.415324090380265,-11.05096754318113,-9.44641720181098,0.06127914,-0.98937735,-0.17541459,4.91372,13.94764,-8.0878,71.0
1774822540.6448495,2.6702880859375e-05,2026-03-29T22:15:40.644,2026-03-29T18:15:40.644,-34129.26,-46932.345,-84831.795,-49921.965,-12774.42,-18292.815,6563.34,5674.23,0.04543304281606256,-2.0358386931043557,-0.925534208009082,-1.236593922093833,-0.9279046489859145,-0.3308736867067462,-7.369661453957524,-7.1699815241039575,0.06127914,-0.98937735,-0.17541459,4.91372,13.94764,-8.0878,71.0
1774822540.6484623,0.0036127567291259766,2026-03-29T22:15:40.648,2026-03-29T18:15:40.648,-34121.52,-46917.225,-84819.69,-49908.33,-12759.75,-18288.675,6586.0199999999995,5690.5199999999995,1.6314475862320734,-0.14125270242285817,1.0994931154855638,0.7001470975577558,1.117693308766863,1.749508810115332,-0.22425398181982878,-1.0114802396594176,0.06127914,-0.98937735,-0.17541459,4.91372,13.94764,-8.0878,71.0
1774822540.64849,2.765655517578125e-05,2026-03-29T22:15:40.648,2026-03-29T18:15:40.648,-34122.06,-46918.755,-84821.22,-49909.634999999995,-12761.82,-18291.42,6599.16,5707.9349999999995,2.655062836134215,2.1326877163931264,2.9914957399022595,2.646750932114335,2.909057310520819,3.11333114431919,7.0356406910437865,5.808691640664482,0.06127914,-0.98937735,-0.17541459,4.91372,13.94764,-8.0878,71.0
1774822540.6526008,0.004110813140869141,2026-03-29T22:15:40.652,2026-03-29T18:15:40.652,-34129.395,-46917.45,-84811.00499999999,-49894.92,-12747.42,-18281.61,6598.3949999999995,5717.07,2.804838051931778,3.9549665767001083,4.073832445293355,3.9194206946049026,3.812798883655108,3.333963264435585,10.989956154693813,9.666151958185974,0.06127914,-0.98937735,-0.17541459,4.91372,13.94764,-8.0878,71.0
1774822540.6526203,1.9550323486328125e-05,2026-03-29T22:15:40.652,2026-03-29T18:15:40.652,-34132.275,-46924.38,-84826.62,-49914.225,-12769.154999999999,-18299.34,6592.95,5718.0599999999995,2.010950409359894,4.454298592285751,3.776574432079831,3.8898213782897737,3.3957221023648567,2.3797003487816193,9.802346609917885,8.459167793295997,0.06127914,-0.98937735,-0.17541459,4.91372,13.94764,-8.0878,71.0
1774822540.656768,0.004147768020629883,2026-03-29T22:15:40.656,2026-03-29T18:15:40.656,-34145.505,-46948.86,-84857.12999999999,-49943.34,-12793.904999999999,-18315.63,6578.505,5708.07,0.46763906052482324,3.1331319209357713,1.9303132138610795,2.293672778898366,1.6323132734930383,0.6017621828316835,4.1021946896165895,2.7487153549834313,0.05712876,-0.98730216,-0.1770015,3.0825199999999997,9.03392,-5.5699,71.0
1774822540.6567843,1.621246337890625e-05,2026-03-29T22:15:40.656,2026-03-29T18:15:40.656,-34159.815,-46948.229999999996,-84845.34,-49927.905,-12778.92,-18304.425,6561.9,5691.69,-1.3828944107540424,0.22160752248893023,-1.0125401933067628,-0.5168820325268123,-0.9821224424659817,-1.3838704274564329,-3.3435051074429767,-4.505140076181315,0.05712876,-0.98730216,-0.1770015,3.0825199999999997,9.03392,-5.5699,71.0
1774822540.6641345,0.00735020637512207,2026-03-29T22:15:40.664,2026-03-29T18:15:40.664,-34128.72,-46903.005,-84808.08,-49901.939999999995,-12760.47,-18293.94,6518.025,5677.875,-2.9292167677439296,-3.250560164308803,-3.998795508150201,-3.5556014683274397,-3.512748149073003,-2.8885040477230395,-8.999774128402876,-9.486116781965306,0.05712876,-0.98730216,-0.1770015,3.0825199999999997,9.03392,-5.5699,71.0
1774822540.6641617,2.7179718017578125e-05,2026-03-29T22:15:40.664,2026-03-29T18:15:40.664,-34139.205,-46910.835,-84820.23,-49921.65,-12780.855,-18312.165,6474.554999999999,5674.094999999999,-3.554064560082274,-5.781867768134762,-5.717281397370077,-5.512648902355252,-4.892309664059943,-3.370383899447081,-10.285185505954008,-9.536460252049158,0.05712876,-0.98730216,-0.1770015,3.0825199999999997,9.03392,-5.5699,71.0
1774822540.6641889,2.7179718017578125e-05,2026-03-29T22:15:40.664,2026-03-29T18:15:40.664,-34111.845,-46922.31,-84833.86499999999,-49928.715,-12780.855,-18302.715,6564.509999999999,5690.07,-2.864958911787069,-6.044955414734541,-5.173045285671582,-5.317844910923242,-4.369729746014081,-2.6232331575514576,-6.787095675636126,-4.576925349875022,0.05712876,-0.98730216,-0.1770015,3.0825199999999997,9.03392,-5.5699,71.0
1774822540.6642027,1.3828277587890625e-05,2026-03-29T22:15:40.664,2026-03-29T18:15:40.664,-34113.42,-46920.96,-84814.605,-49902.75,-12752.505,-18274.32,6661.3949999999995,5705.639999999999,-0.9148895113379351,-3.5744277099195747,-2.24214171472136,-2.715048808002189,-1.9123015059578565,-0.8709742407445078,-0.38054741130186825,2.8278696376342367,0.05712876,-0.98730216,-0.1770015,3.0825199999999997,9.03392,-5.5699,71.0
1774822540.6717248,0.007522106170654297,2026-03-29T22:15:40.671,2026-03-29T18:15:40.671,-34121.655,-46904.67,-84802.635,-49900.545,-12759.93,-18288.765,6614.009999999999,5715.54,1.7036036264182524,0.857095802349384,2.094997103317433,1.4567422890290826,1.6515316782444007,1.2784453895462928,5.776103680381645,8.804463873401547,0.05712876,-0.98730216,-0.1770015,3.0825199999999997,9.03392,-5.5699,71.0
1774822540.6717386,1.3828277587890625e-05,2026-03-29T22:15:40.671,2026-03-29T18:15:40.671,-34141.32,-46916.145,-84816.98999999999,-49910.22,-12768.164999999999,-18301.77,6596.009999999999,5724.63,3.9879047767023565,5.424853367619602,6.03305957037404,5.482857713566459,4.874975896126396,3.0264412652551123,8.83095225981758,10.207687112188328,0.05712876,-0.98730216,-0.1770015,3.0825199999999997,9.03392,-5.5699,71.0
1774822540.671753,1.430511474609375e-05,2026-03-29T22:15:40.671,2026-03-29T18:15:40.671,-34124.985,-46925.46,-84827.745,-49906.665,-12756.015,-18285.524999999998,6616.44,5721.525,4.886455577836181,7.994130052485912,7.686522629261024,7.470175789297362,6.2735951419141065,3.6734456994898097,7.5991987468542535,6.284071964333543,0.05712876,-0.98730216,-0.1770015,3.0825199999999997,9.03392,-5.5699,71.0
1774822540.6717598,6.9141387939453125e-06,2026-03-29T22:15:40.671,2026-03-29T18:15:40.671,-34125.075,-46924.335,-84825.98999999999,-49906.08,-12756.645,-18286.92,6610.679999999999,5712.255,3.7748696269682633,7.121920354494134,5.996055419076207,6.242674302382395,5.014421121156133,2.9031280610028465,3.027134964103163,-0.9218395414531736,0.05712876,-0.98730216,-0.1770015,3.0825199999999997,9.03392,-5.5699,71.0
1774822540.6778636,0.0061037540435791016,2026-03-29T22:15:40.677,2026-03-29T18:15:40.677,-34114.455,-46928.79,-84835.44,-49918.994999999995,-12771.72,-18303.524999999998,6579.224999999999,5698.8,0.8348030462586358,2.84591177945762,1.3590672578740308,2.009028801716339,1.3909032329565583,0.9428672590630475,-2.4253020224958597,-7.638445517061139,0.060485685000000004,-0.98254143,-0.17724564,-1.69386,6.7143999999999995,-2.4263399999999997,71.0
1774822540.677931,6.747245788574219e-05,2026-03-29T22:15:40.677,2026-03-29T18:15:40.677,-34121.97,-46917.63,-84828.33,-49923.54,-12782.43,-18319.95,6532.785,5691.915,-2.8791339701656122,-3.1630308551358137,-4.375170034079644,-3.5666943017924755,-3.179657665382683,-1.4834422240819074,-6.109878142396189,-10.352315730552176,0.060485685000000004,-0.98254143,-0.17724564,-1.69386,6.7143999999999995,-2.4263399999999997,71.0
1774822540.680575,0.0026438236236572266,2026-03-29T22:15:40.680,2026-03-29T18:15:40.680,-34136.28,-46925.549999999996,-84829.455,-49919.354999999996,-12769.83,-18299.295,6533.955,5691.195,-5.784773200149985,-8.235466638658666,-8.627911816974573,-8.002694498079995,-6.697083372350022,-3.414901280132614,-6.508342615769005,-7.658234706643665,0.060485685000000004,-0.98254143,-0.17724564,-1.69386,6.7143999999999995,-2.4263399999999997,71.0
1774822540.6805959,2.09808349609375e-05,2026-03-29T22:15:40.680,2026-03-29T18:15:40.680,-34134.255,-46945.439999999995,-84845.97,-49929.39,-12772.395,-18296.594999999998,6560.1449999999995,5695.5599999999995,-6.437356575862109,-9.894563499267358,-9.257264936641064,-9.110373542907663,-7.458727596224914,-4.036426338603304,-3.8735135670956193,-0.994725188315858,0.060485685000000004,-0.98254143,-0.17724564,-1.69386,6.7143999999999995,-2.4263399999999997,71.0
1774822540.6847,0.004104137420654297,2026-03-29T22:15:40.684,2026-03-29T18:15:40.684,-34120.845,-46935.09,-84840.84,-49928.49,-12775.095,-18300.87,6599.7,5710.1849999999995,-4.2392954058139365,-7.069793994686778,-5.6378345643033905,-6.07827848838039,-4.889379798508498,-3.030664412013358,0.08549969723544258,6.123499701673445,0.060485685000000004,-0.98254143,-0.17724564,-1.69386,6.7143999999999995,-2.4263399999999997,71.0
1774822540.68472,2.002716064453125e-05,2026-03-29T22:15:40.684,2026-03-29T18:15:40.684,-34127.82,-46933.965,-84838.41,-49925.34,-12768.255,-18290.745,6611.58,5716.844999999999,0.1511212855452787,-0.7361380460987792,0.8911172912713862,0.009729659754892296,0.0863864525081776,-0.7428640840629034,3.236041597309517,9.96704598657183,0.060485685000000004,-0.98254143,-0.17724564,-1.69386,6.7143999999999995,-2.4263399999999997,71.0
1774822540.6888793,0.004159212112426758,2026-03-29T22:15:40.688,2026-03-29T18:15:40.688,-34117.515,-46903.77,-84802.095,-49892.13,-12738.465,-18266.085,6595.2,5716.844999999999,4.961412884166823,6.386351738627135,7.492761542624593,6.530686348688445,5.352826448075325,1.9279579778805935,4.172642816237956,8.55831689997343,0.060485685000000004,-0.98254143,-0.17724564,-1.69386,6.7143999999999995,-2.4263399999999997,71.0
1774822540.688896,1.6689300537109375e-05,2026-03-29T22:15:40.688,2026-03-29T18:15:40.688,-34143.525,-46906.965,-84806.37,-49899.735,-12750.66,-18280.215,6563.655,5708.5199999999995,8.006542683673441,11.003068920396023,11.069306437896271,10.4552454922252,8.504191174727294,3.882896742926323,2.8642150298911186,2.700761172161287,0.060485685000000004,-0.98254143,-0.17724564,-1.69386,6.7143999999999995,-2.4263399999999997,71.0
1774822540.6941147,0.0052187442779541016,2026-03-29T22:15:40.694,2026-03-29T18:15:40.694,-34190.46,-46924.02,-84805.92,-49891.545,-12743.01,-18279.315,6552.8099999999995,5694.165,7.680686658294435,10.780892018534916,9.727413366430834,9.766656953590608,7.954046589396918,4.282121950350211,0.4906364729532604,-4.4699160695730695,0.060485685000000004,-0.98254143,-0.17724564,-1.69386,6.7143999999999995,-2.4263399999999997,71.0
1774822540.6941524,3.7670135498046875e-05,2026-03-29T22:15:40.694,2026-03-29T18:15:40.694,-34134.075,-46952.729999999996,-84850.02,-49931.505,-12782.43,-18322.605,6544.485,5679.179999999999,3.7890892876166133,5.527940523684182,3.7738442307198765,4.495990475398034,3.736519593478391,2.9135747717204024,-1.374278375239603,-9.165576014538985,0.060485685000000004,-0.98254143,-0.17724564,-1.69386,6.7143999999999995,-2.4263399999999997,71.0
1774822540.69681,0.002657651901245117,2026-03-29T22:15:40.696,2026-03-29T18:15:40.696,-34102.44,-46944.405,-84858.705,-49948.02,-12807.135,-18367.739999999998,6550.469999999999,5676.3,-2.206056665760767,-2.580192091316508,-4.279682435917648,-3.1573735603554667,-2.406239879530072,0.3057245745868021,-1.7236812412028715,-8.956137985139467,0.06237777,-0.97961175,-0.17297319,-2.38056,6.11926,-1.38866,71.0
1774822540.6968338,2.384185791015625e-05,2026-03-29T22:15:40.696,2026-03-29T18:15:40.696,-34128.63,-46944.945,-84846.06,-49936.545,-12796.515,-18349.245,6601.1849999999995,5682.51,-7.711146346811784,-9.897629400327554,-10.77425676130215,-9.739763173043842,-7.7397667600040485,-2.4754167367099473,-0.6616234708996457,-4.039781794147443,0.06237777,-0.97961175,-0.17297319,-2.38056,6.11926,-1.38866,71.0
1774822540.7006657,0.0038318634033203125,2026-03-29T22:15:40.700,2026-03-29T18:15:40.700,-34134.615,-46925.775,-84822.3,-49909.185,-12761.64,-18295.515,6603.4349999999995,5702.58,-10.123505936125445,-12.961359030382928,-12.58016395524792,-12.114179961233301,-9.764464389980896,-4.2674311114109535,0.7632236123816759,2.896536174153711,0.06237777,-0.97961175,-0.17297319,-2.38056,6.11926,-1.38866,71.0
1774822540.7006953,2.956390380859375e-05,2026-03-29T22:15:40.700,2026-03-29T18:15:40.700,-34151.805,-46912.32,-84802.77,-49893.75,-12750.119999999999,-18291.78,6601.41,5717.745,-8.064988510469018,-10.14445159442009,-8.617462470969713,-8.967927833146605,-7.3990231928033845,-4.305400701290075,1.3021167122052277,8.138938844822384,0.06237777,-0.97961175,-0.17297319,-2.38056,6.11926,-1.38866,71.0
1774822540.7066295,0.005934238433837891,2026-03-29T22:15:40.706,2026-03-29T18:15:40.706,-34138.034999999996,-46928.88,-84829.68,-49928.354999999996,-12786.48,-18312.795,6599.205,5721.389999999999,-2.140157105622228,-2.5135370554317973,-0.4765175544882913,-1.5267358582028316,-1.554521827424666,-2.5547820937865118,0.3598394557836967,8.938154881553054,0.06237777,-0.97961175,-0.17297319,-2.38056,6.11926,-1.38866,71.0
1774822540.7066495,2.002716064453125e-05,2026-03-29T22:15:40.706,2026-03-29T18:15:40.706,-34108.244999999995,-46927.35,-84839.805,-49940.729999999996,-12794.31,-18320.579999999998,6550.695,5710.635,5.188623297613858,6.559143983957364,8.208915534347879,6.90859364900156,5.204102709464652,0.2645665710278492,-1.5701153889748527,4.9614235737361065,0.06237777,-0.97961175,-0.17297319,-2.38056,6.11926,-1.38866,71.0
1774822540.7085595,0.0019099712371826172,2026-03-29T22:15:40.708,2026-03-29T18:15:40.708,-34085.43,-46877.805,-84786.435,-49885.965,-12741.21,-18275.895,6548.759999999999,5698.304999999999,10.621810345952127,12.897640590764901,13.395616947039343,12.43614573058976,9.790725846854482,2.9781049815669554,-3.165119637428564,-1.5663621716246046,0.06237777,-0.97961175,-0.17297319,-2.38056,6.11926,-1.38866,71.0
1774822540.7085693,9.775161743164062e-06,2026-03-29T22:15:40.708,2026-03-29T18:15:40.708,-34118.865,-46904.265,-84799.53,-49894.965,-12749.039999999999,-18270.719999999998,6594.615,5684.445,11.518023420715007,13.464068886538357,12.531808196164551,12.374884631593284,10.021590519931756,4.453431822184808,-3.0893455443048383,-7.093785030228881,0.06237777,-0.97961175,-0.17297319,-2.38056,6.11926,-1.38866,71.0
1774822540.7125368,0.0039675235748291016,2026-03-29T22:15:40.712,2026-03-29T18:15:40.712,-34143.705,-46933.335,-84830.175,-49919.58,-12766.455,-18282.42,6608.07,5688.36,7.181770174334899,7.828411142588454,5.822948979384602,6.576175036119585,5.6666388471881035,4.080441885292402,-0.8881043114822836,-8.670372247080188,0.06237777,-0.97961175,-0.17297319,-2.38056,6.11926,-1.38866,71.0
1774822540.712564,2.7179718017578125e-05,2026-03-29T22:15:40.712,2026-03-29T18:15:40.712,-34157.97,-46924.92,-84831.03,-49928.174999999996,-12777.975,-18300.915,6577.335,5701.679999999999,-0.6865696723896627,-1.551057662031475,-3.769910424566684,-2.421628584533526,-1.3826045566901657,2.027585918849558,2.5846536289116004,-5.526048079549778,0.06237777,-0.97961175,-0.17297319,-2.38056,6.11926,-1.38866,71.0
1774822540.7168353,0.004271268844604492,2026-03-29T22:15:40.716,2026-03-29T18:15:40.716,-34158.195,-46938.869999999995,-84830.84999999999,-49916.655,-12759.029999999999,-18279.315,6576.525,5719.05,-8.646766096835224,-10.406683679653982,-11.844032671966076,-10.509184678280409,-7.937166939960841,-0.8353530303064904,5.501579599563498,0.5449900042663449,0.05651841,-0.981625905,-0.17077593,-0.42728,4.852679999999999,-0.33571999999999996,71.0
1774822540.716858,2.2649765014648438e-05,2026-03-29T22:15:40.716,2026-03-29T18:15:40.716,-34119.81,-46950.39,-84853.125,-49936.5,-12777.39,-18295.02,6579.134999999999,5723.82,-13.034230987609376,-14.623451889583336,-14.595195889056198,-13.900117504441617,-10.966811603214849,-3.312119580987909,6.0243586730321725,6.190990954713066,0.05651841,-0.981625905,-0.17077593,-0.42728,4.852679999999999,-0.33571999999999996,71.0
1774822540.7221737,0.0053157806396484375,2026-03-29T22:15:40.722,2026-03-29T18:15:40.722,-34133.49,-46950.165,-84849.75,-49938.435,-12782.925,-18306.09,6596.46,5726.745,-11.662317476186816,-12.17297294716919,-10.629998770980308,-10.922219813829743,-9.017235680316197,-4.387996931051247,3.3842218567734546,8.341664978361853,0.05651841,-0.981625905,-0.17077593,-0.42728,4.852679999999999,-0.33571999999999996,71.0
1774822540.7222033,2.956390380859375e-05,2026-03-29T22:15:40.722,2026-03-29T18:15:40.722,-34124.265,-46934.1,-84837.19499999999,-49930.56,-12779.595,-18312.57,6589.349999999999,5722.155,-4.913453835620175,-4.100611650074499,-1.6780290810110605,-2.850174118841185,-2.9181008386388965,-3.651312115551847,-1.5310485315087803,5.874918974009862,0.05651841,-0.981625905,-0.17077593,-0.42728,4.852679999999999,-0.33571999999999996,71.0
1774822540.7249093,0.0027060508728027344,2026-03-29T22:15:40.724,2026-03-29T18:15:40.724,-34131.465,-46933.47,-84839.31,-49934.97,-12787.515,-18328.545,6555.33,5708.25,4.326730610658248,5.919785731392993,8.162665743213848,6.638404145412256,4.567210465323099,-1.450398589573056,-6.458881810266011,0.20749245939049984,0.05651841,-0.981625905,-0.17077593,-0.42728,4.852679999999999,-0.33571999999999996,71.0
1774822540.7249217,1.239776611328125e-05,2026-03-29T22:15:40.724,2026-03-29T18:15:40.724,-34116.84,-46907.505,-84803.04,-49901.49,-12759.39,-18301.32,6540.255,5690.16,11.912042673292637,13.274701283633133,14.318004273262414,13.152724659322688,10.004086034561167,1.27373598176719,-8.830283360188997,-5.503769498891492,0.05651841,-0.981625905,-0.17077593,-0.42728,4.852679999999999,-0.33571999999999996,71.0
1774822540.7286036,0.0036818981170654297,2026-03-29T22:15:40.728,2026-03-29T18:15:40.728,-34099.065,-46893.689999999995,-84787.92,-49883.445,-12737.97,-18274.725,6560.099999999999,5682.33,14.316325882729089,14.559512092982326,13.886930342567984,13.641573294370101,10.879976112427823,3.3976831556267193,-7.106330266297022,-8.105488874091252,0.05651841,-0.981625905,-0.17077593,-0.42728,4.852679999999999,-0.33571999999999996,71.0
1774822540.728619,1.5497207641601562e-05,2026-03-29T22:15:40.728,2026-03-29T18:15:40.728,-34090.56,-46880.505,-84776.48999999999,-49870.439999999995,-12721.005,-18251.1,6626.5199999999995,5683.86,10.289816710858185,9.175182291366873,7.0270573292227665,7.839821857500842,6.7814385554160745,4.086244599540033,-1.6867637912175464,-6.178980020532458,0.05651841,-0.981625905,-0.17077593,-0.42728,4.852679999999999,-0.33571999999999996,71.0
1774822540.7328064,0.004187345504760742,2026-03-29T22:15:40.732,2026-03-29T18:15:40.732,-34117.155,-46892.475,-84794.715,-49893.21,-12744.855,-18274.094999999998,6629.58,5692.635,1.5051523023212845,-0.3851335586251675,-3.0931323176563312,-1.5850099376918867,-0.4038588562118085,3.1224771244349654,5.119223053911437,-0.8124576932644819,0.05651841,-0.981625905,-0.17077593,-0.42728,4.852679999999999,-0.33571999999999996,71.0
1774822540.7328303,2.384185791015625e-05,2026-03-29T22:15:40.732,2026-03-29T18:15:40.732,-34155.27,-46913.67,-84810.555,-49904.46,-12755.34,-18283.635,6583.545,5699.655,-8.14013181093037,-9.70007550311144,-11.76791470926339,-10.268026129682893,-7.3620394351337906,0.9656176866947077,10.106102350566555,5.00570756354131,0.05651841,-0.981625905,-0.17077593,-0.42728,4.852679999999999,-0.33571999999999996,71.0
1774822540.7367136,0.00388336181640625,2026-03-29T22:15:40.736,2026-03-29T18:15:40.736,-34179.795,-46966.545,-84856.095,-49936.005,-12780.81,-18305.774999999998,6571.575,5705.6849999999995,-14.273055166002777,-14.487054555804852,-14.96386861550367,-14.188149782851985,-10.896973342698221,-1.4721265791387268,10.708099962605777,8.037600540183906,0.04980456,-0.977841735,-0.16906695,-2.09062,3.6318799999999998,-0.24416,71.0
1774822540.7367349,2.1219253540039062e-05,2026-03-29T22:15:40.736,2026-03-29T18:15:40.736,-34181.28,-46964.159999999996,-84852.62999999999,-49938.75,-12790.08,-18318.87,6569.054999999999,5709.195,-14.052260078379302,-12.595968933646564,-11.218158367342848,-11.551727648697334,-9.416817460248039,-3.2196568622089754,6.3089272592140455,6.583877005984899,0.04980456,-0.977841735,-0.16906695,-2.09062,3.6318799999999998,-0.24416,71.0
1774822540.747526,0.01079106330871582,2026-03-29T22:15:40.747,2026-03-29T18:15:40.747,-34119.18,-46920.42,-84814.875,-49906.89,-12768.029999999999,-18315.405,6543.045,5703.974999999999,-7.500327738165688,-4.990299653930348,-2.3217814491067426,-3.6262993463701116,-3.6630959845254147,-3.6375188303695407,-1.3404058628935536,1.4273080327794907,0.04980456,-0.977841735,-0.16906695,-2.09062,3.6318799999999998,-0.24416,71.0
1774822540.7475457,1.9788742065429688e-05,2026-03-29T22:15:40.747,2026-03-29T18:15:40.747,-34119.99,-46929.689999999995,-84829.23,-49922.595,-12791.34,-18351.63,6473.7,5681.474999999999,2.470825581834811,4.739238864712623,7.537627404665753,5.869255939262567,3.6576121968883557,-2.6455664153396645,-8.839937262782376,-4.5887640806358725,0.04980456,-0.977841735,-0.16906695,-2.09062,3.6318799999999998,-0.24416,71.0
1774822540.7475617,1.5974044799804688e-05,2026-03-29T22:15:40.747,2026-03-29T18:15:40.747,-34135.2,-46927.305,-84827.87999999999,-49924.125,-12797.82,-18367.02,6467.8949999999995,5668.83,11.370040940916104,12.08463829842894,13.762663301607775,12.524622548930143,9.157794426798956,-0.7098693089719685,-12.686436015976275,-8.120144945054628,0.04980456,-0.977841735,-0.16906695,-2.09062,3.6318799999999998,-0.24416,71.0
1774822540.747568,6.198883056640625e-06,2026-03-29T22:15:40.747,2026-03-29T18:15:40.747,-34121.565,-46937.79,-84855.735,-49954.14,-12816.18,-18371.835,6487.11,5667.12,15.176086794823817,13.733278719830084,13.512864785244364,13.308426720451546,10.354733894998397,1.3825046721382401,-10.92590667611549,-7.167391816520562,0.04980456,-0.977841735,-0.16906695,-2.09062,3.6318799999999998,-0.24416,71.0
1774822540.752777,0.005209207534790039,2026-03-29T22:15:40.752,2026-03-29T18:15:40.752,-34128.225,-46935.27,-84842.055,-49926.24,-12771.045,-18292.14,6593.4,5678.73,12.179112246290842,9.08250266315057,7.0197143026740925,7.9670701114075975,6.807029470180109,2.8492059360402275,-4.125669386215973,-2.1940226246466943,0.04980456,-0.977841735,-0.16906695,-2.09062,3.6318799999999998,-0.24416,71.0
1774822540.7528045,2.7418136596679688e-05,2026-03-29T22:15:40.752,2026-03-29T18:15:40.752,-34126.244999999995,-46913.805,-84820.095,-49917.33,-12772.529999999999,-18285.12,6638.94,5690.295,3.7599772529693594,0.45418054607768527,-2.5675391796069778,-0.9020322034739431,0.27392360691448,3.2007143352409617,4.809121108097283,4.102707346479837,0.04980456,-0.977841735,-0.16906695,-2.09062,3.6318799999999998,-0.24416,71.0
1774822540.7528324,2.7894973754882812e-05,2026-03-29T22:15:40.752,2026-03-29T18:15:40.752,-34184.835,-46978.244999999995,-84879.18,-49974.255,-12826.215,-18326.88,6564.915,5697.63,-6.2530666638418575,-8.06413149415478,-10.714721218656095,-9.1190672884215,-6.15870469506839,2.386682212794587,11.909029517364749,8.25351290013845,0.04980456,-0.977841735,-0.16906695,-2.09062,3.6318799999999998,-0.24416,71.0
1774822540.752844,1.1682510375976562e-05,2026-03-29T22:15:40.752,2026-03-29T18:15:40.752,-34145.955,-46960.83,-84864.69,-49952.34,-12795.48,-18293.985,6596.505,5701.995,-13.34772828172776,-12.572845121776234,-13.66546386065582,-12.910155085659762,-9.550650204774376,0.767164844454118,13.92780763914763,7.9196415509725995,0.04980456,-0.977841735,-0.16906695,-2.09062,3.6318799999999998,-0.24416,71.0
1774822540.75691,0.004065990447998047,2026-03-29T22:15:40.756,2026-03-29T18:15:40.756,-34130.835,-46894.229999999996,-84789.94499999999,-49887.18,-12743.279999999999,-18262.62,6604.065,5689.3949999999995,-14.388866511507073,-11.167383373693381,-10.193898822863813,-10.66111990948927,-8.468716067638045,-1.0532481227216741,9.827177169377894,3.196494701362844,0.047057985000000004,-0.974667915,-0.16772418,-7.3248,1.2207999999999999,1.11398,71.0
1774822540.7569485,3.838539123535156e-05,2026-03-29T22:15:40.756,2026-03-29T18:15:40.756,-34144.604999999996,-46905.345,-84795.93,-49891.77,-12752.595,-18290.475,6595.605,5669.91,-9.023507740574756,-4.7514598263696834,-2.1200636090672096,-3.612120365403485,-3.5983850639088817,-2.448575968236247,1.280695374558062,-3.402804933384295,0.047057985000000004,-0.974667915,-0.16772418,-7.3248,1.2207999999999999,1.11398,71.0
1774822540.793278,0.03632950782775879,2026-03-29T22:15:40.793,2026-03-29T18:15:40.793,-34093.44,-46900.575,-84798.54,-49890.869999999995,-12750.074999999999,-18295.785,6533.46,5660.865,0.20900006738716886,3.494775014842705,6.631812907850855,4.8096060009444,2.6586190929042766,-2.970303596928894,-8.034344722863139,-8.289601586319097,0.047057985000000004,-0.974667915,-0.16772418,-7.3248,1.2207999999999999,1.11398,71.0
1774822540.7932975,1.9550323486328125e-05,2026-03-29T22:15:40.793,2026-03-29T18:15:40.793,-34103.565,-46909.53,-84817.62,-49911.39,-12765.914999999999,-18296.46,6533.46,5657.715,9.09061006862116,9.693608786175833,11.949221779634824,10.665870515028264,7.37488829798711,-2.4683751726214527,-14.041850756213751,-8.74875923836319,0.047057985000000004,-0.974667915,-0.16772418,-7.3248,1.2207999999999999,1.11398,71.0
1774822540.793329,3.147125244140625e-05,2026-03-29T22:15:40.793,2026-03-29T18:15:40.793,-34107.119999999995,-46900.35,-84799.215,-49887.18,-12738.779999999999,-18267.255,6626.655,5668.83,13.676947812829109,11.110292328412397,11.481978835904092,11.368318963061016,8.48290228954747,-1.1171166569858064,-14.056565567014152,-4.437000115167775,0.047057985000000004,-0.974667915,-0.16772418,-7.3248,1.2207999999999999,1.11398,71.0
1774822540.793334,5.0067901611328125e-06,2026-03-29T22:15:40.793,2026-03-29T18:15:40.793,-34095.104999999996,-46899.18,-84788.235,-49867.604999999996,-12718.89,-18255.239999999998,6641.955,5683.86,12.073625161071602,7.37409103086456,5.694118309117497,6.835819272666,5.69226230257654,0.6445357083376941,-7.971253101668836,2.39226015936743,0.047057985000000004,-0.974667915,-0.16772418,-7.3248,1.2207999999999999,1.11398,71.0
1774822540.7933395,5.4836273193359375e-06,2026-03-29T22:15:40.793,2026-03-29T18:15:40.793,-34119.315,-46906.875,-84799.215,-49883.265,-12737.385,-18275.219999999998,6576.57,5698.485,5.225442439832751,0.5281466650642455,-2.4598620006104954,-0.5755666666577363,0.5261239548454083,2.237669116682863,1.6745688495491564,8.075366221412509,0.047057985000000004,-0.974667915,-0.16772418,-7.3248,1.2207999999999999,1.11398,71.0
1774822540.7933435,4.0531158447265625e-06,2026-03-29T22:15:40.793,2026-03-29T18:15:40.793,-34137.315,-46938.104999999996,-84845.11499999999,-49935.825,-12793.14,-18327.87,6574.455,5700.014999999999,-3.6135202975903886,-6.061976441153659,-9.035797080510354,-7.289625247107146,-4.496454414938835,3.1084977255940873,10.77072421840447,9.507716640413756,0.047057985000000004,-0.974667915,-0.16772418,-7.3248,1.2207999999999999,1.11398,71.0
1774822540.7933486,5.0067901611328125e-06,2026-03-29T22:15:40.793,2026-03-29T18:15:40.793,-34118.595,-46923.345,-84831.61499999999,-49926.735,-12781.26,-18308.88,6604.29,5693.4,-10.440669630393339,-9.366935212796678,-11.017680001249014,-10.24810879414668,-7.098293789748455,2.9030646559452853,15.391980346122415,5.835701200681299,0.047057985000000004,-0.974667915,-0.16772418,-7.3248,1.2207999999999999,1.11398,71.0
1774822540.7933524,3.814697265625e-06,2026-03-29T22:15:40.793,2026-03-29T18:15:40.793,-34142.49,-46927.439999999995,-84827.11499999999,-49921.155,-12765.465,-18277.065,6592.094999999999,5682.375,-12.341699552477309,-8.099964689882414,-7.715313114730348,-8.319443103762644,-6.289324558209357,1.6079044349433251,13.48260003752271,-1.049167504825008,0.047057985000000004,-0.974667915,-0.16772418,-7.3248,1.2207999999999999,1.11398,71.0
1774822540.7933574,5.0067901611328125e-06,2026-03-29T22:15:40.793,2026-03-29T18:15:40.793,-34192.305,-46949.985,-84841.47,-49936.095,-12777.345,-18281.565,6572.34,5672.205,-8.749768219717451,-3.2120304132822723,-0.9875795597455603,-2.7217826463176173,-2.733252389346344,-0.39699148296928416,5.754562829324331,-7.494511231879706,0.04162587,-0.978207945,-0.16882281,-10.08686,-3.26564,1.19028,71.0
1774822540.7933612,3.814697265625e-06,2026-03-29T22:15:40.793,2026-03-29T18:15:40.793,-34163.369999999995,-46942.29,-84831.03,-49921.515,-12764.34,-18274.094999999998,6609.105,5665.545,-1.576029520181932,2.711244500524047,5.770711238934322,3.69243347313826,1.6946453794955747,-2.417651736244137,-4.5823144733363295,-10.03321075098092,0.04162587,-0.978207945,-0.16882281,-10.08686,-3.26564,1.19028,71.0
1774822540.793366,4.76837158203125e-06,2026-03-29T22:15:40.793,2026-03-29T18:15:40.793,-34118.955,-46902.509999999995,-84797.86499999999,-49885.604999999996,-12732.164999999999,-18258.84,6619.634999999999,5670.495,5.792537234804735,6.797477223386576,9.337585513874032,7.8876138072070825,4.889940055362752,-3.664363173112483,-13.151293410829084,-7.2507265422962535,0.04162587,-0.978207945,-0.16882281,-10.08686,-3.26564,1.19028,71.0
1774822540.79337,4.0531158447265625e-06,2026-03-29T22:15:40.793,2026-03-29T18:15:40.793,-34117.695,-46919.61,-84824.37,-49914.36,-12765.645,-18299.565,6571.08,5685.929999999999,10.107705377232046,7.28453834392689,8.209299005612817,8.094164497218248,5.5292039400173945,-3.5539694911958932,-16.25099166411517,-0.5668855542240231,0.04162587,-0.978207945,-0.16882281,-10.08686,-3.26564,1.19028,71.0
1774822540.7933748,4.76837158203125e-06,2026-03-29T22:15:40.793,2026-03-29T18:15:40.793,-34117.155,-46929.869999999995,-84831.48,-49917.33,-12767.67,-18299.07,6520.5,5698.98,9.710604022643356,4.2853339956383625,3.2368635717470378,4.558098683542121,3.618257724159855,-1.9844735978916268,-12.442109594245272,6.497413785101149,0.04162587,-0.978207945,-0.16882281,-10.08686,-3.26564,1.19028,71.0
1774822540.7933788,4.0531158447265625e-06,2026-03-29T22:15:40.793,2026-03-29T18:15:40.793,-34089.075,-46915.335,-84820.31999999999,-49908.78,-12758.58,-18282.42,6507.315,5702.985,5.162127674437239,-0.41343480506837044,-2.9167284611176476,-0.72790646468408,0.35133585108405957,0.5480642883842971,-3.207704375608998,10.185923327236491,0.04162587,-0.978207945,-0.16882281,-10.08686,-3.26564,1.19028,71.0
1774822540.7933836,4.76837158203125e-06,2026-03-29T22:15:40.793,2026-03-29T18:15:40.793,-34082.64,-46901.88,-84816.27,-49915.53,-12768.029999999999,-18286.605,6546.33,5700.0599999999995,-1.182276792478555,-4.358420682146431,-7.178697759700624,-5.11601258781871,-2.5893626860349315,3.0767762353742696,7.6106676359308025,8.51174168329584,0.04162587,-0.978207945,-0.16882281,-10.08686,-3.26564,1.19028,71.0
1774822540.7933877,4.0531158447265625e-06,2026-03-29T22:15:40.793,2026-03-29T18:15:40.793,-34121.97,-46935.54,-84850.245,-49950.585,-12799.035,-18310.545,6602.445,5690.295,-6.382496542813457,-5.693531148249063,-7.5981950319014215,-6.630511092510598,-3.897964170673113,4.522923217426773,15.394458988954128,2.327816872302155,0.04162587,-0.978207945,-0.16882281,-10.08686,-3.26564,1.19028,71.0
1774822540.7933924,4.76837158203125e-06,2026-03-29T22:15:40.793,2026-03-29T18:15:40.793,-34130.07,-46930.77,-84836.79,-49933.439999999995,-12782.34,-18300.239999999998,6621.884999999999,5676.885,-8.29022910169369,-4.035504785584472,-4.244634716837816,-4.864810212075127,-3.229389648518925,4.159337140718694,16.707541730212146,-5.113686149489607,0.04162587,-0.978207945,-0.16882281,-10.08686,-3.26564,1.19028,71.0
1774822540.7933965,4.0531158447265625e-06,2026-03-29T22:15:40.793,2026-03-29T18:15:40.793,-34127.775,-46913.174999999996,-84807.855,-49909.725,-12767.31,-18297.63,6588.2699999999995,5658.525,-6.441474646141855,-0.5472689406692882,0.9433143700446789,-1.0374965884919978,-1.2402505276682736,1.9777949739835123,10.811831749011718,-9.88279955846867,0.04162587,-0.978207945,-0.16882281,-10.08686,-3.26564,1.19028,71.0
1774822540.7967317,0.003335237503051758,2026-03-29T22:15:40.796,2026-03-29T18:15:40.796,-34145.369999999995,-46924.29,-84802.86,-49905.54,-12768.705,-18303.975,6552.179999999999,5650.65,-2.0921882682406405,2.7776691752936737,5.233514093810676,2.758156803825539,0.8776082158672993,-1.2261771614253354,0.073386652423208,-9.457911251234968,0.039977925,-0.98205315,-0.16778521500000002,-13.62718,-4.76112,1.0682,71.0
1774822540.7967408,9.059906005859375e-06,2026-03-29T22:15:40.796,2026-03-29T18:15:40.796,-34117.74,-46908.494999999995,-84799.08,-49893.39,-12746.385,-18279.989999999998,6583.275,5674.86,2.5414043834546742,4.207471346298812,6.519128482213013,4.6758090655874085,2.077553681065,-4.128329798271453,-10.960849626695204,-4.064530454066972,0.039977925,-0.98205315,-0.16778521500000002,-13.62718,-4.76112,1.0682,71.0
1774822540.80083,0.0040891170501708984,2026-03-29T22:15:40.800,2026-03-29T18:15:40.800,-34110.99,-46906.155,-84802.995,-49899.104999999996,-12757.859999999999,-18316.35,6591.285,5687.505,5.405074409110087,3.1581322846533757,4.3507336612995156,4.0161193072638905,1.9754578469552868,-5.424520891060757,-17.47203443534016,3.44660103410511,0.039977925,-0.98205315,-0.16778521500000002,-13.62718,-4.76112,1.0682,71.0
1774822540.8008573,2.7418136596679688e-05,2026-03-29T22:15:40.800,2026-03-29T18:15:40.800,-34151.265,-46951.604999999996,-84845.47499999999,-49947.075,-12817.845,-18404.864999999998,6582.78,5691.42,5.525397030055863,0.4258921932991322,0.07702326779269072,1.465557277973109,0.9480209643364693,-4.425166528613172,-16.47423538311325,9.115294796461088,0.039977925,-0.98205315,-0.16778521500000002,-13.62718,-4.76112,1.0682,71.0
1774822540.8045962,0.003738880157470703,2026-03-29T22:15:40.804,2026-03-29T18:15:40.804,-34125.03,-46910.564999999995,-84803.985,-49900.59,-12764.564999999999,-18321.3,6608.655,5703.615,3.3106182737906305,-2.3226879148316177,-3.9391691268086158,-1.3974965015170489,-0.19570422198904,-1.4201736831518836,-8.19796979866836,9.971705170789239,0.039977925,-0.98205315,-0.16778521500000002,-13.62718,-4.76112,1.0682,71.0
1774822540.804623,2.6702880859375e-05,2026-03-29T22:15:40.804,2026-03-29T18:15:40.804,-34102.26,-46883.7,-84778.605,-49873.365,-12733.965,-18266.805,6603.84,5694.075,0.15918928185407794,-3.5012240658694016,-5.591356291452491,-3.017870559522971,-0.7440478974602938,2.3783169542828326,3.8945803951135347,5.601518448158297,0.039977925,-0.98205315,-0.16778521500000002,-13.62718,-4.76112,1.0682,71.0
1774822540.8093417,0.004718780517578125,2026-03-29T22:15:40.809,2026-03-29T18:15:40.809,-34129.665,-46910.88,-84805.245,-49896.854999999996,-12753.0,-18276.93,6585.344999999999,5677.92,-2.352583017481024,-2.473346608790366,-4.115723224943555,-2.689382188800669,-0.49493651406203704,5.323855825724234,14.53458036846852,-1.652551847897585,0.039977925,-0.98205315,-0.16778521500000002,-13.62718,-4.76112,1.0682,71.0
1774822540.8093588,1.71661376953125e-05,2026-03-29T22:15:40.809,2026-03-29T18:15:40.809,-34124.354999999996,-46908.63,-84807.495,-49901.04,-12752.955,-18267.48,6591.6449999999995,5663.429999999999,-3.2532226289648416,0.11999028834443975,-0.4397821138378568,-0.8596328759575722,0.1783593216765131,6.058341390288242,18.94042309478176,-7.951476284056928,0.039977925,-0.98205315,-0.16778521500000002,-13.62718,-4.76112,1.0682,71.0
1774822540.8136024,0.004243612289428711,2026-03-29T22:15:40.813,2026-03-29T18:15:40.813,-34127.325,-46911.78,-84811.545,-49902.705,-12750.21,-18278.325,6602.804999999999,5659.245,-2.542404340274816,2.7381874223939024,3.3634089775446103,1.215758724746204,0.6232257564346944,4.147507861856681,14.985140294697041,-10.002336345118247,0.039977925,-0.98205315,-0.16778521500000002,-13.62718,-4.76112,1.0682,71.0
1774822540.8136184,1.5974044799804688e-05,2026-03-29T22:15:40.813,2026-03-29T18:15:40.813,-34147.845,-46948.409999999996,-84840.84,-49929.84,-12783.015,-18326.295,6580.08,5663.655,-1.008515162015876,3.808389588985155,5.206306605647011,2.243161397275892,0.36832904460412363,0.3272060263296758,4.246938049208693,-6.791131185979771,0.039977925,-0.98205315,-0.16778521500000002,-13.62718,-4.76112,1.0682,71.0
1774822540.8169503,0.003331899642944336,2026-03-29T22:15:40.816,2026-03-29T18:15:40.816,-34112.97,-46930.455,-84834.98999999999,-49933.395,-12787.064999999999,-18313.965,6556.32,5680.035,0.3362936845301714,2.609739899309778,4.099162878587891,1.640010479549765,-0.5395216749293966,-3.7758043943332287,-8.586694832475802,-0.08899473842642726,0.04357899,-0.991635645,-0.16259724,-16.0993,-6.409199999999999,3.31142,71.0
1774822540.8169663,1.5974044799804688e-05,2026-03-29T22:15:40.816,2026-03-29T18:15:40.816,-34112.835,-46915.38,-84816.09,-49918.095,-12771.63,-18286.335,6557.445,5691.33,0.8531095840648903,-0.30340131429587514,0.6626203535631776,-0.15254109837298527,-1.5320790063553806,-6.344751700036604,-17.75833068381184,6.523233416645042,0.04357899,-0.991635645,-0.16259724,-16.0993,-6.409199999999999,3.31142,71.0
1774822540.8216877,0.004721403121948242,2026-03-29T22:15:40.821,2026-03-29T18:15:40.821,-34122.51,-46914.795,-84811.905,-49912.244999999995,-12766.005,-18277.38,6559.514999999999,5691.78,0.5733261532445222,-3.3704144314698428,-3.2179242360929594,-1.9549768434541577,-1.8591694136095283,-6.189005112793277,-19.041917499865505,9.575600462881104,0.04357899,-0.991635645,-0.16259724,-16.0993,-6.409199999999999,3.31142,71.0
1774822540.8217049,1.71661376953125e-05,2026-03-29T22:15:40.821,2026-03-29T18:15:40.821,-34136.19,-46935.63,-84837.645,-49934.115,-12777.119999999999,-18284.489999999998,6526.035,5684.04,0.06052385891790439,-4.849263081946298,-5.404629768243577,-2.5592658100786534,-1.0737001440381497,-3.302751021532019,-11.722892841545558,7.541477762511884,0.04357899,-0.991635645,-0.16259724,-16.0993,-6.409199999999999,3.31142,71.0
1774822540.8278644,0.006159543991088867,2026-03-29T22:15:40.827,2026-03-29T18:15:40.827,-34168.905,-46958.939999999995,-84861.72,-49957.515,-12802.769999999999,-18318.105,6453.764999999999,5669.955,-0.04112174118975243,-3.7650281039436413,-4.650303248871065,-1.4563882276905105,0.6290366801462629,1.0995029721319334,0.9863771027007195,1.6090135574441102,0.04357899,-0.991635645,-0.16259724,-16.0993,-6.409199999999999,3.31142,71.0
1774822540.827902,3.7670135498046875e-05,2026-03-29T22:15:40.827,2026-03-29T18:15:40.827,-34168.14,-46971.045,-84876.84,-49968.99,-12814.289999999999,-18329.399999999998,6520.5,5653.215,0.5228056317136495,-0.47927613453193246,-1.2731104430685904,0.832231441289729,2.435104195569483,5.101085018182887,13.342654321509585,-5.0019814644887255,0.04357899,-0.991635645,-0.16259724,-16.0993,-6.409199999999999,3.31142,71.0
1774822540.8279276,2.5510787963867188e-05,2026-03-29T22:15:40.827,2026-03-29T18:15:40.827,-34123.59,-46914.39,-84801.735,-49889.07,-12736.08,-18258.165,6647.04,5649.03,1.419737907184704,3.431329825790857,2.9897119894235606,3.012764497182568,3.313599833476321,6.929988285237183,19.681806382661854,-8.789499118461427,0.04357899,-0.991635645,-0.16259724,-16.0993,-6.409199999999999,3.31142,71.0
1774822540.8279335,5.9604644775390625e-06,2026-03-29T22:15:40.827,2026-03-29T18:15:40.827,-34112.025,-46890.54,-84774.825,-49868.055,-12719.925,-18245.295,6653.5199999999995,5652.54,1.9273775425401405,5.943722075407547,5.875350689233961,3.733335939493951,2.592060103195598,5.753688025788322,17.0505958837672,-7.833843005471845,0.04357899,-0.991635645,-0.16259724,-16.0993,-6.409199999999999,3.31142,71.0
1774822540.8331053,0.005171775817871094,2026-03-29T22:15:40.833,2026-03-29T18:15:40.833,-34114.68,-46910.34,-84809.16,-49907.564999999995,-12757.545,-18273.915,6616.035,5662.53,1.4089169386568172,5.624060239355546,5.776125159097203,2.3660970562342443,0.388777067033237,2.0600697377193096,6.620463889393473,-2.7803614915111012,0.04357899,-0.991635645,-0.16259724,-16.0993,-6.409199999999999,3.31142,71.0
1774822540.8331263,2.09808349609375e-05,2026-03-29T22:15:40.833,2026-03-29T18:15:40.833,-34119.315,-46911.015,-84818.06999999999,-49916.924999999996,-12766.095,-18280.89,6617.384999999999,5676.974999999999,-0.21989925730302076,2.4037932729535836,2.5984675592997504,-0.5776126477716896,-2.35440033693938,-2.551058358793235,-6.812079904171237,3.567192608320099,0.04357899,-0.991635645,-0.16259724,-16.0993,-6.409199999999999,3.31142,71.0
1774822540.8370173,0.0038909912109375,2026-03-29T22:15:40.837,2026-03-29T18:15:40.837,-34178.49,-46915.83,-84803.67,-49895.055,-12743.73,-18268.829999999998,6584.13,5681.34,-2.323367870683396,-2.3099487794391873,-2.1461032562695905,-3.6441123821168584,-4.2893382974664815,-6.073441152020991,-17.03856890698682,7.796794358165931,0.042541395,-0.99780018,-0.1574703,-16.4045,-8.316699999999999,3.93708,71.0
1774822540.837038,2.0742416381835938e-05,2026-03-29T22:15:40.837,2026-03-29T18:15:40.837,-34154.955,-46946.43,-84841.155,-49928.58,-12777.525,-18313.38,6534.764999999999,5671.62,-3.8063909888446616,-6.26763660817343,-6.0743039234142895,-5.165741684627296,-4.336042778617112,-6.979138875719628,-19.341537257178626,7.727155216442876,0.042541395,-0.99780018,-0.1574703,-16.4045,-8.316699999999999,3.93708,71.0
1774822540.847844,0.010805845260620117,2026-03-29T22:15:40.847,2026-03-29T18:15:40.847,-34100.1,-46924.064999999995,-84828.375,-49914.945,-12764.88,-18299.34,6596.82,5660.099999999999,-3.6886507695144832,-7.459903819963968,-7.126127706929791,-4.150780093968429,-2.2711712468946357,-4.886036585729842,-12.714044819241177,3.542349641459102,0.042541395,-0.99780018,-0.1574703,-16.4045,-8.316699999999999,3.93708,71.0
1774822540.8478644,2.0503997802734375e-05,2026-03-29T22:15:40.847,2026-03-29T18:15:40.847,-34116.03,-46922.67,-84815.86499999999,-49904.415,-12761.955,-18314.055,6591.509999999999,5643.63,-1.6896730204746007,-5.124044982452733,-4.62258800536175,-0.8657649607810234,1.085437550673666,-0.7137605614549211,-0.3299987407125821,-2.3725050164359205,0.042541395,-0.99780018,-0.1574703,-16.4045,-8.316699999999999,3.93708,71.0
1774822540.8478823,1.7881393432617188e-05,2026-03-29T22:15:40.847,2026-03-29T18:15:40.847,-34107.075,-46914.93,-84821.48999999999,-49916.295,-12775.365,-18324.719999999998,6566.445,5632.5599999999995,1.505981588245397,-0.1752347704554024,0.3487782585214764,3.2126936755976954,4.206997028444865,3.732836820084194,11.970811014344925,-6.776865196020907,0.042541395,-0.99780018,-0.1574703,-16.4045,-8.316699999999999,3.93708,71.0
1774822540.847889,6.67572021484375e-06,2026-03-29T22:15:40.847,2026-03-29T18:15:40.847,-34087.545,-46893.869999999995,-84801.42,-49901.174999999996,-12759.435,-18296.864999999998,6609.375,5631.84,4.481093163149432,5.164763466582101,5.4239607190651595,6.080435303310092,5.5740044590950575,6.557777834228821,18.46290763053717,-7.3482983734581255,0.042541395,-0.99780018,-0.1574703,-16.4045,-8.316699999999999,3.93708,71.0
1774822540.8543797,0.0064907073974609375,2026-03-29T22:15:40.854,2026-03-29T18:15:40.854,-34115.22,-46909.665,-84802.5,-49901.939999999995,-12764.205,-18315.225,6584.804999999999,5632.65,5.735682153065306,8.382508552411629,8.097901445014331,6.197550536206789,4.422479661803891,6.589208998121087,16.244743297572512,-3.9141873419434217,0.042541395,-0.99780018,-0.1574703,-16.4045,-8.316699999999999,3.93708,71.0
1774822540.854401,2.1457672119140625e-05,2026-03-29T22:15:40.854,2026-03-29T18:15:40.854,-34109.82,-46897.92,-84801.33,-49912.965,-12785.805,-18326.969999999998,6548.8949999999995,5644.844999999999,4.446073442268593,7.859211057459714,6.95441897558142,3.2950153460709464,1.153406596496837,3.861363951802772,6.57357977984802,1.5147000690294703,0.042541395,-0.99780018,-0.1574703,-16.4045,-8.316699999999999,3.93708,71.0
1774822540.8544161,1.5020370483398438e-05,2026-03-29T22:15:40.854,2026-03-29T18:15:40.854,-34122.33,-46901.655,-84808.53,-49914.045,-12776.039999999999,-18295.335,6565.545,5663.07,0.94756317311378,3.666850278027543,2.389037309830348,-1.4193173420805538,-2.810341130860938,-0.43297514681383203,-5.80873632861463,5.900595028544613,0.042541395,-0.99780018,-0.1574703,-16.4045,-8.316699999999999,3.93708,71.0
1774822540.8544216,5.4836273193359375e-06,2026-03-29T22:15:40.854,2026-03-29T18:15:40.854,-34128.81,-46930.32,-84832.965,-49927.229999999996,-12777.66,-18288.045,6552.945,5666.67,-3.3254721529218467,-2.410197264078526,-3.534058767803682,-5.780347902601981,-5.664587142203746,-4.478646150452101,-15.011977682497983,6.868497939600871,0.042541395,-0.99780018,-0.1574703,-16.4045,-8.316699999999999,3.93708,71.0
1774822540.8569164,0.00249481201171875,2026-03-29T22:15:40.856,2026-03-29T18:15:40.856,-34117.29,-46942.29,-84843.18,-49935.015,-12781.8,-18292.094999999998,6549.255,5655.915,-6.44734684269697,-7.652463815725919,-8.032857287692645,-7.677608488219783,-6.062443425432251,-6.614596872850973,-16.839886887539773,3.993689947671018,0.037414455,-1.004330925,-0.15563925,-15.504159999999999,-10.36154,7.49266,71.0
1774822540.856933,1.6689300537109375e-05,2026-03-29T22:15:40.856,2026-03-29T18:15:40.856,-34132.95,-46936.845,-84836.34,-49929.39,-12769.244999999999,-18276.48,6572.25,5638.32,-6.88829356810148,-9.633426930465475,-8.919362491915551,-6.077774841879544,-3.752437669026481,-6.013440505244612,-10.748048156303263,-1.011500495997982,0.037414455,-1.004330925,-0.15563925,-15.504159999999999,-10.36154,7.49266,71.0
1774822540.8610096,0.004076480865478516,2026-03-29T22:15:40.861,2026-03-29T18:15:40.861,-34134.93,-46929.33,-84823.47,-49910.534999999996,-12749.445,-18261.809999999998,6592.41,5623.155,-4.263232013431057,-7.338400134436443,-5.651234092884257,-1.5614250557613785,0.28769346905257265,-2.987054431193082,0.018960735181933277,-5.293881715246548,0.037414455,-1.004330925,-0.15563925,-15.504159999999999,-10.36154,7.49266,71.0
1774822540.8610396,3.0040740966796875e-05,2026-03-29T22:15:40.861,2026-03-29T18:15:40.861,-34130.295,-46916.415,-84804.61499999999,-49884.479999999996,-12727.17,-18256.86,6635.7,5625.855,0.42422905312509557,-1.6605774348122015,0.37691597299371976,3.895490491954641,4.2852639523495375,1.1860663576967279,10.134116676904052,-6.468300207624484,0.037414455,-1.004330925,-0.15563925,-15.504159999999999,-10.36154,7.49266,71.0
1774822540.864728,0.003688335418701172,2026-03-29T22:15:40.864,2026-03-29T18:15:40.864,-34131.42,-46911.915,-84808.44,-49895.64,-12746.654999999999,-18283.364999999998,6611.445,5636.385,5.178023498478656,4.958601346433169,6.446134234972386,7.806377932022398,6.471139146494335,4.812923001496579,14.84953482241217,-3.939251719885183,0.037414455,-1.004330925,-0.15563925,-15.504159999999999,-10.36154,7.49266,71.0
1774822540.8647425,1.4543533325195312e-05,2026-03-29T22:15:40.864,2026-03-29T18:15:40.864,-34117.965,-46933.695,-84847.77,-49949.685,-12810.914999999999,-18344.969999999998,6539.4,5645.16,7.881128639646948,9.59181784237893,9.750949867523449,8.31822905993386,5.872195926137422,6.472890954303062,12.27181642473341,0.7941388871214835,0.037414455,-1.004330925,-0.15563925,-15.504159999999999,-10.36154,7.49266,71.0
1774822540.8709314,0.006188869476318359,2026-03-29T22:15:40.870,2026-03-29T18:15:40.870,-34094.61,-46914.84,-84837.375,-49944.33,-12805.154999999999,-18334.53,6521.985,5655.735,7.250774779842147,10.122203240713764,8.693251646576226,5.0833370261768485,2.737928001888403,5.560329509145233,4.13818183021908,5.0072279367165,0.037414455,-1.004330925,-0.15563925,-15.504159999999999,-10.36154,7.49266,71.0
1774822540.8709507,1.9311904907226562e-05,2026-03-29T22:15:40.870,2026-03-29T18:15:40.870,-34132.59,-46921.14,-84828.645,-49930.244999999995,-12786.57,-18315.809999999998,6550.245,5654.385,3.4406518374666075,6.199223120819534,3.6370587691683367,-0.5487898104861662,-1.582367388628312,2.4832100835575193,-5.236359545160491,6.296804278594444,0.037414455,-1.004330925,-0.15563925,-15.504159999999999,-10.36154,7.49266,71.0
1774822540.8726175,0.0016667842864990234,2026-03-29T22:15:40.872,2026-03-29T18:15:40.872,-34135.47,-46904.715,-84799.125,-49893.345,-12743.1,-18278.954999999998,6598.485,5650.0199999999995,-1.9894400192176906,-0.57144820586184,-3.224071044169978,-6.112905053618418,-5.2420659318146585,-1.5333962772497043,-11.2397993465595,3.9362326334336712,0.037414455,-1.004330925,-0.15563925,-15.504159999999999,-10.36154,7.49266,71.0
1774822540.8726308,1.33514404296875e-05,2026-03-29T22:15:40.872,2026-03-29T18:15:40.872,-34134.435,-46905.39,-84797.055,-49890.33,-12739.41,-18271.215,6625.259999999999,5640.795,-6.730673816703176,-7.294664323476916,-8.83167263840704,-9.121894363603579,-6.69916335262664,-4.938218293720768,-11.270279786930786,-0.7189136979436143,0.037414455,-1.004330925,-0.15563925,-15.504159999999999,-10.36154,7.49266,71.0
1774822540.876774,0.004143238067626953,2026-03-29T22:15:40.876,2026-03-29T18:15:40.876,-34153.02,-46921.14,-84811.31999999999,-49900.455,-12746.564999999999,-18264.915,6627.014999999999,5630.58,-8.721715248633032,-11.026527272147828,-10.628082064390057,-8.18015179137375,-5.3628401257735465,-6.440328035013041,-5.898640210488684,-4.999505863671493,0.03332511,-1.002255735,-0.154845795,-19.34968,-11.58234,9.65958,71.0
1774822540.876786,1.1920928955078125e-05,2026-03-29T22:15:40.876,2026-03-29T18:15:40.876,-34163.865,-46953.0,-84854.385,-49949.729999999996,-12803.13,-18317.745,6583.905,5629.41,-7.047150654470665,-10.056393105684565,-7.712625431294096,-3.6175364132608285,-1.8154887737985805,-5.476240113728872,1.6524483904760745,-6.433811986463285,0.03332511,-1.002255735,-0.154845795,-19.34968,-11.58234,9.65958,71.0
1774822540.8808644,0.004078388214111328,2026-03-29T22:15:40.880,2026-03-29T18:15:40.880,-34130.205,-46942.515,-84848.12999999999,-49944.33,-12796.515,-18307.844999999998,6571.3949999999995,5640.21,-2.3458582627775932,-4.676434256189377,-1.2712310000073537,2.637389788735873,2.462420965161362,-2.4013231330455453,7.359625061827885,-4.153226533616206,0.03332511,-1.002255735,-0.154845795,-19.34968,-11.58234,9.65958,71.0
1774822540.8808784,1.4066696166992188e-05,2026-03-29T22:15:40.880,2026-03-29T18:15:40.880,-34099.74,-46917.72,-84826.485,-49919.13,-12764.744999999999,-18275.265,6577.29,5654.655,3.4461838309494275,2.899648659289467,5.915912934735627,7.887251077471615,5.724306595801257,1.6472992279863676,8.547255104747027,0.5980674253024971,0.03332511,-1.002255735,-0.154845795,-19.34968,-11.58234,9.65958,71.0
1774822540.8856308,0.004752397537231445,2026-03-29T22:15:40.885,2026-03-29T18:15:40.885,-34113.195,-46906.02,-84808.34999999999,-49902.525,-12753.855,-18276.12,6568.335,5664.0599999999995,7.906028019936366,9.447373462391996,10.678165021763101,9.833807439428519,6.6689144476930755,5.15949221457663,5.185095549002982,5.142260319838175,0.03332511,-1.002255735,-0.154845795,-19.34968,-11.58234,9.65958,71.0
1774822540.88565,1.9073486328125e-05,2026-03-29T22:15:40.885,2026-03-29T18:15:40.885,-34110.585,-46903.5,-84809.06999999999,-49904.145,-12759.57,-18289.215,6574.32,5670.045,9.140653971623223,12.097064677863344,10.846849994757612,7.576189720653687,4.9425104819472265,6.791739305395291,-0.3145308621407194,6.864899621891162,0.03332511,-1.002255735,-0.154845795,-19.34968,-11.58234,9.65958,71.0
1774822540.8888335,0.003183603286743164,2026-03-29T22:15:40.888,2026-03-29T18:15:40.888,-34109.729999999996,-46911.104999999996,-84816.495,-49910.13,-12763.484999999999,-18288.45,6576.389999999999,5664.33,6.582716264160212,9.580514925868675,6.228827943733787,2.0105735335223764,1.2482157978651758,5.858124250018262,-4.6171092439054675,4.697744174055623,0.03332511,-1.002255735,-0.154845795,-19.34968,-11.58234,9.65958,71.0
1774822540.8888469,1.33514404296875e-05,2026-03-29T22:15:40.888,2026-03-29T18:15:40.888,-34132.32,-46947.15,-84852.98999999999,-49944.555,-12793.994999999999,-18310.68,6563.384999999999,5649.929999999999,1.235890877811374,2.823985733052211,-1.2683284801891248,-4.537226140628966,-2.955221130209243,2.606268446589546,-5.408648989744439,-0.245051498129664,0.03332511,-1.002255735,-0.154845795,-19.34968,-11.58234,9.65958,71.0
1774822540.89299,0.004143238067626953,2026-03-29T22:15:40.892,2026-03-29T18:15:40.892,-34111.08,-46940.85,-84866.04,-49970.025,-12826.619999999999,-18347.895,6552.585,5636.79,-4.727889273966641,-5.382957773708002,-8.425826233631934,-9.288300515427425,-6.027929545859327,-1.826406711500242,-2.65893809212039,-5.246565526878214,0.03332511,-1.002255735,-0.154845795,-19.34968,-11.58234,9.65958,71.0
1774822540.893011,2.09808349609375e-05,2026-03-29T22:15:40.893,2026-03-29T18:15:40.893,-34099.695,-46917.854999999996,-84837.15,-49938.57,-12794.805,-18329.175,6560.505,5628.735,-8.851651060650303,-11.529163984013461,-12.090255236029469,-10.184029800782906,-6.771140491493069,-5.782829737875691,1.489994281945704,-7.477856426539522,0.03332511,-1.002255735,-0.154845795,-19.34968,-11.58234,9.65958,71.0
1774822540.8998928,0.0068817138671875,2026-03-29T22:15:40.899,2026-03-29T18:15:40.899,-34126.38,-46892.205,-84779.055,-49868.369999999995,-12728.88,-18290.88,6564.735,5629.635,-9.397511043492914,-12.873052424659134,-10.55225693151087,-6.764848509294519,-4.871529372957856,-7.678414228545671,4.11494900603392,-5.5828917008475445,0.035583405,-1.003354365,-0.153991305,-22.64584,-12.48268,13.52036,71.0
1774822540.89991,1.71661376953125e-05,2026-03-29T22:15:40.899,2026-03-29T18:15:40.899,-34152.479999999996,-46889.955,-84775.36499999999,-49868.729999999996,-12735.765,-18296.954999999998,6582.42,5644.08,-6.066816487524374,-8.657100910780127,-4.330980179525794,-0.3870869761397926,-1.0174124819104347,-6.619079823136002,3.3534924069072476,-0.4757624407614419,0.035583405,-1.003354365,-0.153991305,-22.64584,-12.48268,13.52036,71.0
1774822540.902675,0.0027649402618408203,2026-03-29T22:15:40.902,2026-03-29T18:15:40.902,-34129.44,-46902.689999999995,-84804.345,-49901.625,-12766.68,-18296.73,6586.0199999999995,5657.535,-0.14580097153305324,-0.5129390795487239,3.9891959095081866,6.316414446523344,3.346703611217357,-2.813149417442321,-0.3958152313578287,5.108419366143437,0.035583405,-1.003354365,-0.153991305,-22.64584,-12.48268,13.52036,71.0
1774822540.902692,1.71661376953125e-05,2026-03-29T22:15:40.902,2026-03-29T18:15:40.902,-34143.84,-46928.115,-84823.965,-49920.659999999996,-12783.015,-18294.93,6576.21,5656.86,5.9871630755477785,8.151855199163595,10.824554234374997,10.51629282929243,6.5412224313508425,2.408761154631562,-4.647028299538115,8.084347622144747,0.035583405,-1.003354365,-0.153991305,-22.64584,-12.48268,13.52036,71.0
1774822540.9060876,0.003395557403564453,2026-03-29T22:15:40.906,2026-03-29T18:15:40.906,-34111.034999999996,-46888.604999999996,-84780.36,-49874.805,-12735.314999999999,-18251.64,6576.48,5652.045,9.805597544109192,13.565560290009481,13.125839976978236,10.368706667831916,7.27233330050254,7.0233660159699225,-6.314773097272639,6.715466190122315,0.035583405,-1.003354365,-0.153991305,-22.64584,-12.48268,13.52036,71.0
1774822540.906109,2.1457672119140625e-05,2026-03-29T22:15:40.906,2026-03-29T18:15:40.906,-34116.299999999996,-46898.729999999996,-84797.50499999999,-49892.4,-12745.035,-18258.255,6569.325,5643.54,9.66249604142065,13.226631253444467,9.729922594702979,5.813263087709994,5.138788902560518,9.076163915988925,-3.675330154435045,1.6077653473124383,0.035583405,-1.003354365,-0.153991305,-22.64584,-12.48268,13.52036,71.0
1774822540.9093797,0.0032706260681152344,2026-03-29T22:15:40.909,2026-03-29T18:15:40.909,-34157.34,-46919.25,-84829.31999999999,-49929.075,-12783.465,-18301.364999999998,6554.474999999999,5633.505,5.492085912194834,7.057636049155976,1.9353935839311527,-1.3517588676521732,0.8364697880303147,7.500653769356989,2.3634553870127033,-4.56274676704988,0.035583405,-1.003354365,-0.153991305,-22.64584,-12.48268,13.52036,71.0
1774822540.9094012,2.1457672119140625e-05,2026-03-29T22:15:40.909,2026-03-29T18:15:40.909,-34154.369999999995,-46906.064999999995,-84807.94499999999,-49904.729999999996,-12761.955,-18292.05,6585.4349999999995,5620.995,-1.107549400007715,-2.452054133372121,-6.977893334727004,-8.168197765830184,-4.038266373122052,2.6563522818857885,8.5072535708027,-8.464086054328929,0.035583405,-1.003354365,-0.153991305,-22.64584,-12.48268,13.52036,71.0
1774822540.9133463,0.003945112228393555,2026-03-29T22:15:40.913,2026-03-29T18:15:40.913,-34122.915,-46933.695,-84841.29,-49930.424999999996,-12786.255,-18320.94,6531.21,5617.53,-7.4692723624546735,-11.230382236353881,-13.117238294490559,-11.725893323726131,-7.550471492560203,-3.6803126482276878,10.818398495294677,-7.911374978063778,0.035583405,-1.003354365,-0.153991305,-22.64584,-12.48268,13.52036,71.0
1774822540.9133642,1.7881393432617188e-05,2026-03-29T22:15:40.913,2026-03-29T18:15:40.913,-34150.275,-46964.07,-84867.165,-49953.015,-12811.545,-18355.77,6519.42,5626.9349999999995,-10.918026518265199,-15.356984372654914,-13.67013188998132,-10.394982391478818,-8.174741092359614,-8.93564832027564,7.054419186241756,-3.081536496833179,0.035583405,-1.003354365,-0.153991305,-22.64584,-12.48268,13.52036,71.0
1774822540.9209013,0.007537126541137695,2026-03-29T22:15:40.920,2026-03-29T18:15:40.920,-34137.945,-46933.064999999995,-84834.315,-49917.33,-12770.595,-18307.485,6633.36,5644.9349999999995,-9.88655694477758,-12.815527029187509,-8.190468820468874,-4.567333203516889,-5.452446793433193,-10.771057904627742,-1.72658690762141,3.5321990101434166,0.037536525,-1.012875825,-0.157653405,-19.059739999999998,-14.02394,16.38924,71.0
1774822540.9209204,1.9073486328125e-05,2026-03-29T22:15:40.920,2026-03-29T18:15:40.920,-34128.494999999995,-46874.295,-84762.27,-49852.979999999996,-12710.744999999999,-18242.46,6670.755,5653.3949999999995,-4.626619954969399,-4.480968978356021,1.1088125056402167,3.4273959731845243,-0.27793032568141657,-8.121129852467392,-11.314559072786713,8.42200571406729,0.037536525,-1.012875825,-0.157653405,-19.059739999999998,-14.02394,16.38924,71.0
1774822540.9209485,2.8133392333984375e-05,2026-03-29T22:15:40.920,2026-03-29T18:15:40.920,-34134.615,-46884.284999999996,-84773.87999999999,-49871.07,-12727.71,-18246.015,6629.355,5651.6849999999995,2.8059006423011166,6.142724688828259,10.23199059900934,10.235429628698402,5.351836295499494,-1.7777934282826573,-16.353191368098184,8.937332892121026,0.037536525,-1.012875825,-0.157653405,-19.059739999999998,-14.02394,16.38924,71.0
1774822540.9209588,1.0251998901367188e-05,2026-03-29T22:15:40.920,2026-03-29T18:15:40.920,-34108.29,-46911.465,-84816.72,-49913.325,-12762.0,-18266.895,6604.65,5651.235,9.331500887858745,14.382029214269755,15.10962516354667,12.874889650756927,9.08323294137452,5.788834558494832,-13.252904597049465,4.72315609979874,0.037536525,-1.012875825,-0.157653405,-19.059739999999998,-14.02394,16.38924,71.0
1774822540.92491,0.003951311111450195,2026-03-29T22:15:40.924,2026-03-29T18:15:40.924,-34111.979999999996,-46930.68,-84839.12999999999,-49931.64,-12771.135,-18269.235,6593.8949999999995,5642.054999999999,12.110840770454384,16.451408120336822,13.415009882334864,10.040288022128319,9.184058178873917,11.371849379512652,-2.455276365754803,-2.0565313879417664,0.037536525,-1.012875825,-0.157653405,-19.059739999999998,-14.02394,16.38924,71.0
1774822540.924922,1.1920928955078125e-05,2026-03-29T22:15:40.924,2026-03-29T18:15:40.924,-34092.99,-46902.33,-84820.14,-49917.509999999995,-12761.279999999999,-18270.585,6599.5199999999995,5629.7699999999995,9.781052020540514,11.203567745642806,5.677474016612015,2.7464366300806238,5.351097408888857,12.383952510649966,11.292322428126498,-7.843918096388358,0.037536525,-1.012875825,-0.157653405,-19.059739999999998,-14.02394,16.38924,71.0
1774822540.9290047,0.004082679748535156,2026-03-29T22:15:40.929,2026-03-29T18:15:40.929,-34101.09,-46878.435,-84800.52,-49911.93,-12770.685,-18303.84,6581.205,5625.945,3.1268540720113536,0.7582355701572671,-4.842036380586097,-6.005498834822693,-1.0311497081005758,8.056854277138072,21.013447529898496,-9.57010339913019,0.037536525,-1.012875825,-0.157653405,-19.059739999999998,-14.02394,16.38924,71.0
1774822540.9290168,1.2159347534179688e-05,2026-03-29T22:15:40.929,2026-03-29T18:15:40.929,-34133.985,-46901.115,-84808.575,-49910.67,-12766.5,-18290.295,6574.32,5635.62,-5.1451213236083815,-10.332551000330774,-13.514035720470554,-12.4489154848751,-7.356480822502113,-0.07290611231245693,21.028763821529115,-6.292315815986977,0.037536525,-1.012875825,-0.157653405,-19.059739999999998,-14.02394,16.38924,71.0
1774822540.9335032,0.0044863224029541016,2026-03-29T22:15:40.933,2026-03-29T18:15:40.933,-34136.64,-46955.115,-84856.36499999999,-49945.275,-12793.545,-18304.695,6593.219999999999,5657.355,-11.48995778411782,-17.067356026000418,-16.380001482071304,-13.672016057516753,-10.852462840364899,-8.674246359200465,10.153900549317049,0.29205695787087166,0.037536525,-1.012875825,-0.157653405,-19.059739999999998,-14.02394,16.38924,71.0
1774822540.9340143,0.00051116943359375,2026-03-29T22:15:40.934,2026-03-29T18:15:40.934,-34120.395,-46948.68,-84857.76,-49949.415,-12796.019999999999,-18303.93,6609.915,5672.205,-13.042837765274877,-16.264469669965877,-11.96993924908879,-8.942003977922733,-9.803565983689506,-13.979579466795668,-7.1897609285457635,6.734631484429597,0.037536525,-1.012875825,-0.157653405,-19.059739999999998,-14.02394,16.38924,71.0
1774822540.936966,0.0029516220092773438,2026-03-29T22:15:40.936,2026-03-29T18:15:40.936,-34123.545,-46946.159999999996,-84862.44,-49955.715,-12801.105,-18308.969999999998,6586.695,5677.155,-8.923343205733415,-8.081669767174255,-2.0585550005373587,-0.12715219205935796,-4.398650892031561,-13.440998071830219,-22.73886270634885,9.658267857504889,0.038879295,-1.014462735,-0.159850665,-13.76452,-14.00868,17.73212,71.0
1774822540.9369888,2.288818359375e-05,2026-03-29T22:15:40.936,2026-03-29T18:15:40.936,-34134.75,-46951.335,-84867.795,-49962.6,-12810.644999999999,-18335.835,6527.5199999999995,5671.98,-0.7271189118560457,3.947248274274376,9.030531605461526,9.020844479804337,3.2189789885029616,-6.953768541117388,-28.343234446407845,7.542534304113238,0.038879295,-1.014462735,-0.159850665,-13.76452,-14.00868,17.73212,71.0
1774822540.9422448,0.005255937576293945,2026-03-29T22:15:40.942,2026-03-29T18:15:40.942,-34123.815,-46920.645,-84831.795,-49927.365,-12783.33,-18342.09,6499.17,5670.719999999999,8.066609625368153,14.433166343965038,16.311502235450284,14.461409006179721,9.787651921589166,2.9411428673983906,-20.210684563296873,1.521917466084956,0.038879295,-1.014462735,-0.159850665,-13.76452,-14.00868,17.73212,71.0
1774822540.9422646,1.9788742065429688e-05,2026-03-29T22:15:40.942,2026-03-29T18:15:40.942,-34135.604999999996,-46923.75,-84834.58499999999,-49933.485,-12795.21,-18340.829999999998,6462.2699999999995,5659.875,13.567415035741321,18.5592595207898,16.391686132264212,13.661277058457108,12.331986236851874,12.037691254968593,-1.2395532615740712,-5.225580880060226,0.038879295,-1.014462735,-0.159850665,-13.76452,-14.00868,17.73212,71.0
1774822540.9499257,0.007661104202270508,2026-03-29T22:15:40.949,2026-03-29T18:15:40.949,-34129.395,-46890.494999999995,-84787.155,-49884.03,-12745.664999999999,-18269.594999999998,6528.87,5655.465,13.206250047139209,14.316215069119604,9.069169346074771,6.78868391719308,9.527607959370147,16.258422615493963,19.923517083200274,-9.16877976251115,0.038879295,-1.014462735,-0.159850665,-13.76452,-14.00868,17.73212,71.0
1774822540.9499533,2.765655517578125e-05,2026-03-29T22:15:40.949,2026-03-29T18:15:40.949,-34103.52,-46877.22,-84779.055,-49881.375,-12744.675,-18261.719999999998,6600.375,5659.245,6.9515863856627576,3.4970171727568413,-2.487915389834792,-3.264639119162724,2.391626495357575,13.493641079595818,32.852377190650984,-8.288168742924944,0.038879295,-1.014462735,-0.159850665,-13.76452,-14.00868,17.73212,71.0
1774822540.94998,2.6702880859375e-05,2026-03-29T22:15:40.949,2026-03-29T18:15:40.949,-34108.47,-46886.354999999996,-84796.92,-49902.705,-12761.055,-18271.844999999998,6649.5599999999995,5672.115,-2.5741313230596545,-9.048887824959685,-13.10903665303313,-12.094545598669843,-6.062311633612956,4.650695157321922,30.502389250708212,-3.1232451324622024,0.038879295,-1.014462735,-0.159850665,-13.76452,-14.00868,17.73212,71.0
1774822540.949994,1.4066696166992188e-05,2026-03-29T22:15:40.949,2026-03-29T18:15:40.949,-34152.255,-46936.305,-84840.03,-49937.22,-12787.785,-18295.965,6607.44,5682.6449999999995,-11.184347765996176,-17.599293038641502,-17.94831699584902,-15.725677854947213,-12.102690481138705,-6.607454842975666,12.99674526477889,3.546547665456735,0.038879295,-1.014462735,-0.159850665,-13.76452,-14.00868,17.73212,71.0
1774822540.9625683,0.012574195861816406,2026-03-29T22:15:40.962,2026-03-29T18:15:40.962,-34105.455,-46914.479999999996,-84824.01,-49925.07,-12788.505,-18321.614999999998,6544.17,5681.07,-14.977673459419883,-18.193265003907474,-14.717563854295234,-12.421953001246658,-12.94750863816522,-15.382056232861514,-11.978699715919896,8.202886136207704,0.038879295,-1.014462735,-0.159850665,-13.76452,-14.00868,17.73212,71.0
1774822540.9625907,2.2411346435546875e-05,2026-03-29T22:15:40.962,2026-03-29T18:15:40.962,-34102.08,-46910.475,-84820.86,-49922.055,-12800.564999999999,-18354.42,6494.219999999999,5674.545,-12.125654184032614,-10.491515041779584,-4.785534136080246,-3.531642299358933,-8.065356839474488,-17.68510952287897,-32.57079078823056,8.45885817452829,0.038879295,-1.014462735,-0.159850665,-13.76452,-14.00868,17.73212,71.0
1774822540.9626093,1.8596649169921875e-05,2026-03-29T22:15:40.962,2026-03-29T18:15:40.962,-34135.92,-46901.97,-84790.53,-49887.405,-12772.574999999999,-18335.34,6535.44,5664.554999999999,-3.7702556721690477,2.0230762766269534,7.393259004344021,7.051696273691819,0.5080780994673447,-12.264598286265834,-38.43554014692782,4.298242145215352,0.04284657,-1.008847515,-0.16241413500000002,-17.27432,-14.069719999999998,20.32632,71.0
1774822540.9626136,4.291534423828125e-06,2026-03-29T22:15:40.962,2026-03-29T18:15:40.962,-34114.725,-46876.68,-84774.59999999999,-49880.43,-12763.619999999999,-18316.035,6572.025,5649.75,6.416809614352931,13.625008867539513,16.287572335935153,14.60415315095795,9.02098839871329,-1.2664329369378189,-25.95351625576975,-1.9664924406008324,0.04284657,-1.008847515,-0.16241413500000002,-17.27432,-14.069719999999998,20.32632,71.0
1774822540.9626195,5.9604644775390625e-06,2026-03-29T22:15:40.962,2026-03-29T18:15:40.962,-34101.945,-46892.52,-84810.645,-49919.759999999995,-12789.81,-18326.88,6596.594999999999,5629.815,13.853049487665139,18.987794566752413,17.82536753170746,15.702744279974437,13.667567932902102,10.610960097624323,-0.3446379880807577,-6.9736143700081215,0.04284657,-1.008847515,-0.16241413500000002,-17.27432,-14.069719999999998,20.32632,71.0
1774822540.9626243,4.76837158203125e-06,2026-03-29T22:15:40.962,2026-03-29T18:15:40.962,-34078.365,-46892.25,-84827.11499999999,-49923.585,-12763.395,-18272.969999999998,6625.844999999999,5621.175,15.12633240849686,15.658354160493252,11.282547640150216,9.800419731067848,12.31497321093101,18.13850121743299,26.51354291712757,-8.123556996964098,0.04284657,-1.008847515,-0.16241413500000002,-17.27432,-14.069719999999998,20.32632,71.0
1774822540.9658911,0.0032668113708496094,2026-03-29T22:15:40.965,2026-03-29T18:15:40.965,-34110.854999999996,-46921.185,-84849.39,-49941.09,-12773.025,-18263.43,6644.5199999999995,5634.36,9.583473635125467,5.200633862768491,-0.3636544602368574,-0.4916477860156651,5.498813764115052,17.877267254858744,41.654083618953955,-4.943246653965754,0.04284657,-1.008847515,-0.16241413500000002,-17.27432,-14.069719999999998,20.32632,70.0
1774822540.9659157,2.4557113647460938e-05,2026-03-29T22:15:40.965,2026-03-29T18:15:40.965,-34133.49,-46959.479999999996,-84885.25499999999,-49974.165,-12803.984999999999,-18287.55,6624.36,5654.205,-0.3244602997529863,-7.535363517478525,-11.795206136147476,-10.564608891980283,-3.785698526991317,9.758776274174952,37.33758511722742,0.7189905503092936,0.04284657,-1.008847515,-0.16241413500000002,-17.27432,-14.069719999999998,20.32632,70.0
1774822540.9691882,0.003272533416748047,2026-03-29T22:15:40.969,2026-03-29T18:15:40.969,-34174.89,-46988.82,-84889.17,-49972.68,-12806.955,-18305.055,6579.63,5671.485,-10.126706676907085,-16.67941219067044,-17.803625909218848,-15.897364194698312,-11.417675073187146,-2.806322714144759,15.014492089066298,5.748410005706019,0.04284657,-1.008847515,-0.16241413500000002,-17.27432,-14.069719999999998,20.32632,70.0
1774822540.9692187,3.0517578125e-05,2026-03-29T22:15:40.969,2026-03-29T18:15:40.969,-34145.325,-46947.825,-84853.665,-49946.22,-12792.6,-18307.98,6524.28,5677.605,-15.367313680464061,-18.075370610889323,-15.690635234377945,-14.112841890466765,-14.006800802197864,-14.37302426703197,-15.099492653750481,7.474004073884941,0.04284657,-1.008847515,-0.16241413500000002,-17.27432,-14.069719999999998,20.32632,70.0
1774822540.9733162,0.004097461700439453,2026-03-29T22:15:40.973,2026-03-29T18:15:40.973,-34169.354999999996,-46965.33,-84873.51,-49968.18,-12819.734999999999,-18346.184999999998,6479.955,5669.099999999999,-13.655367016267775,-11.196534813012079,-6.499154455554264,-6.056522591941787,-10.422273202200996,-19.8418923723648,-38.75164909691166,5.096244588705848,0.04284657,-1.008847515,-0.16241413500000002,-17.27432,-14.069719999999998,20.32632,70.0
1774822540.9733343,1.811981201171875e-05,2026-03-29T22:15:40.973,2026-03-29T18:15:40.973,-34203.015,-46964.564999999995,-84864.33,-49961.25,-12818.25,-18360.18,6449.67,5656.635,-5.775455429041479,0.6535736358737523,5.496656233396868,4.6017418009472815,-2.293463663972177,-16.723590419904152,-44.47105553590344,0.06539062575489664,0.04284657,-1.008847515,-0.16241413500000002,-17.27432,-14.069719999999998,20.32632,70.0
1774822540.9774668,0.004132509231567383,2026-03-29T22:15:40.977,2026-03-29T18:15:40.977,-34207.38,-46926.405,-84808.215,-49901.85,-12759.795,-18311.535,6547.95,5651.82,4.66709951645927,11.933683991450682,14.794960368226642,13.056265930007942,6.742912847721019,-6.274231885262563,-29.18242364042102,-4.772436057378673,0.045287970000000004,-1.00805406,-0.16442829,-18.311999999999998,-13.67296,19.86852,70.0
1774822540.9774826,1.5735626220703125e-05,2026-03-29T22:15:40.977,2026-03-29T18:15:40.977,-34108.02,-46877.625,-84764.34,-49853.97,-12707.505,-18249.12,6657.795,5651.55,12.90831670229381,17.479797335027182,17.216528732239222,15.559384966786565,12.695425397207826,7.017497578731988,0.15508895202886214,-6.769848027351873,0.045287970000000004,-1.00805406,-0.16442829,-18.311999999999998,-13.67296,19.86852,70.0
1774822540.9870808,0.009598255157470703,2026-03-29T22:15:40.987,2026-03-29T18:15:40.987,-34061.625,-46856.07,-84750.03,-49837.77,-12685.904999999999,-18211.86,6670.08,5647.545,15.22253095226098,14.897214226579768,11.806564672001668,11.105831357320893,13.006726051396381,17.377804554514533,29.751627532633915,-4.926223651049799,0.045287970000000004,-1.00805406,-0.16442829,-18.311999999999998,-13.67296,19.86852,70.0
1774822540.9871156,3.4809112548828125e-05,2026-03-29T22:15:40.987,2026-03-29T18:15:40.987,-34123.5,-46923.119999999995,-84826.53,-49922.549999999996,-12773.205,-18288.405,6620.8949999999995,5653.3949999999995,10.629380241355465,5.608011555371016,1.21108088112969,1.8390298617686258,7.664008607861195,20.275006250174403,45.54108990225766,-0.3974357176576837,0.045287970000000004,-1.00805406,-0.16442829,-18.311999999999998,-13.67296,19.86852,70.0
1774822540.9871488,3.314018249511719e-05,2026-03-29T22:15:40.987,2026-03-29T18:15:40.987,-34117.244999999995,-46910.564999999995,-84815.145,-49910.22,-12764.97,-18305.415,6622.29,5671.304999999999,1.3173275644230984,-5.911188782923329,-9.620878213136956,-7.986602988571017,-0.8570029238019463,14.410816539790552,39.93784893941814,4.196187299338316,0.045287970000000004,-1.00805406,-0.16442829,-18.311999999999998,-13.67296,19.86852,70.0
1774822540.987167,1.811981201171875e-05,2026-03-29T22:15:40.987,2026-03-29T18:15:40.987,-34110.765,-46904.04,-84807.22499999999,-49903.875,-12760.289999999999,-18294.93,6581.384999999999,5677.785,-8.403840997602831,-14.299792394086941,-15.770455999035557,-13.98175162370658,-8.75870482220361,2.2964635502751314,15.518238819457752,6.260994032063854,0.045287970000000004,-1.00805406,-0.16442829,-18.311999999999998,-13.67296,19.86852,70.0
1774822540.989246,0.002079010009765625,2026-03-29T22:15:40.989,2026-03-29T18:15:40.989,-34130.79,-46922.939999999995,-84821.04,-49910.895,-12758.939999999999,-18280.079999999998,6508.62,5681.565,-14.117630311640484,-15.833136168766059,-14.607163872135157,-13.60761844396024,-12.639728593452043,-10.838949790724426,-16.175725256166643,4.681349400323668,0.045287970000000004,-1.00805406,-0.16442829,-18.311999999999998,-13.67296,19.86852,70.0
1774822540.989257,1.1205673217773438e-05,2026-03-29T22:15:40.989,2026-03-29T18:15:40.989,-34124.04,-46889.64,-84788.28,-49890.555,-12747.24,-18280.125,6487.425,5680.3949999999995,-13.33090989249673,-10.095061940232222,-6.923456061016585,-7.260462258150104,-10.974552924797369,-19.32478196361521,-40.14873866006883,0.42420365154575895,0.045287970000000004,-1.00805406,-0.16442829,-18.311999999999998,-13.67296,19.86852,70.0
1774822540.9930398,0.0037827491760253906,2026-03-29T22:15:40.993,2026-03-29T18:15:40.993,-34100.28,-46860.075,-84759.03,-49867.875,-12728.385,-18257.355,6497.639999999999,5675.67,-6.574494896070183,-0.042939585518093265,3.5482786182448027,2.012802900046608,-4.703302579498546,-19.50937476331589,-45.12193648544179,-4.031539271321396,0.045287970000000004,-1.00805406,-0.16442829,-18.311999999999998,-13.67296,19.86852,70.0
1774822540.993053,1.3113021850585938e-05,2026-03-29T22:15:40.993,2026-03-29T18:15:40.993,-34052.445,-46848.015,-84754.8,-49859.909999999996,-12715.965,-18240.344999999998,6493.23,5670.495,2.9182939229254647,9.508672045300745,11.95835175865184,9.989451384644092,3.290411160516664,-11.331340503932228,-28.898553006251795,-6.111955552325459,0.045287970000000004,-1.00805406,-0.16442829,-18.311999999999998,-13.67296,19.86852,70.0
1774822540.9972944,0.004241466522216797,2026-03-29T22:15:40.997,2026-03-29T18:15:40.997,-34077.869999999995,-46877.31,-84784.095,-49883.895,-12735.404999999999,-18260.46,6567.389999999999,5676.705,10.771328333547965,14.2105277571353,14.606878839046177,13.216116433881803,9.526487194060845,1.6737493707999398,0.652548144402638,-4.611661307353455,0.0476073,-1.005917835,-0.168395565,-17.97628,-14.66486,19.65488,70.0
1774822540.9973135,1.9073486328125e-05,2026-03-29T22:15:40.997,2026-03-29T18:15:40.997,-34143.795,-46945.845,-84856.635,-49956.93,-12805.064999999999,-18322.29,6622.92,5694.75,13.505073776176076,12.179011931304768,10.58536751109852,10.517356194103744,11.460745272380363,13.919059047931471,29.44060252695453,-0.38081066436170946,0.0476073,-1.005917835,-0.168395565,-17.97628,-14.66486,19.65488,70.0
1774822541.0009692,0.003655672073364258,2026-03-29T22:15:41.000,2026-03-29T18:15:41.000,-34165.53,-46963.575,-84870.45,-49968.854999999996,-12816.09,-18331.155,6630.974999999999,5708.61,10.094353177623027,4.744861152435952,2.0579177838588842,3.402073912253292,8.519491827140849,20.180207899694235,43.93324930907922,4.1517168144474486,0.0476073,-1.005917835,-0.168395565,-17.97628,-14.66486,19.65488,70.0
1774822541.0009904,2.1219253540039062e-05,2026-03-29T22:15:41.000,2026-03-29T18:15:41.000,-34122.96,-46924.424999999996,-84834.18,-49933.305,-12782.295,-18296.954999999998,6608.655,5708.835,2.338881220590028,-4.343899375524575,-6.885684895939357,-4.759560643946213,2.21793332122628,17.827809688676957,37.58341081784066,6.353622836092213,0.0476073,-1.005917835,-0.168395565,-17.97628,-14.66486,19.65488,70.0
1774822541.005682,0.004691600799560547,2026-03-29T22:15:41.005,2026-03-29T18:15:41.005,-34129.53,-46932.57,-84845.565,-49946.04,-12794.4,-18307.26,6602.219999999999,5706.405,-6.0795506912607005,-10.810215383685234,-12.20287281836249,-10.346362774229156,-4.623373563694693,7.923820421670578,13.822174439637898,4.891835464940854,0.0476073,-1.005917835,-0.168395565,-17.97628,-14.66486,19.65488,70.0
1774822541.0057025,2.0503997802734375e-05,2026-03-29T22:15:41.005,2026-03-29T18:15:41.005,-34168.455,-46947.465,-84849.03,-49946.354999999996,-12790.439999999999,-18304.469999999998,6600.42,5702.76,-11.361541997281465,-11.875829282892528,-11.739662868650115,-11.107205076819813,-9.157118231628118,-5.270535719262674,-15.764739385179283,0.5148259272630179,0.0476073,-1.005917835,-0.168395565,-17.97628,-14.66486,19.65488,70.0
1774822541.0091932,0.0034906864166259766,2026-03-29T22:15:41.009,2026-03-29T18:15:41.009,-34143.479999999996,-46950.975,-84853.665,-49948.695,-12797.55,-18331.29,6563.474999999999,5693.985,-11.322499531459345,-7.460189403204023,-6.0952350844290715,-7.060334418234157,-9.695518115989513,-16.14118524283667,-37.11711535231178,-4.33541066751567,0.0476073,-1.005917835,-0.168395565,-17.97628,-14.66486,19.65488,70.0
1774822541.0092163,2.3126602172851562e-05,2026-03-29T22:15:41.009,2026-03-29T18:15:41.009,-34124.22,-46927.395,-84832.875,-49930.155,-12784.05,-18325.844999999998,6539.355,5687.505,-6.2942736072845635,-0.03095428888714625,1.8322252875029708,-0.3164787581338817,-6.310008805809331,-20.115748015028643,-40.43762031059285,-6.878671219852757,0.0476073,-1.005917835,-0.168395565,-17.97628,-14.66486,19.65488,70.0
1774822541.0130377,0.0038213729858398438,2026-03-29T22:15:41.013,2026-03-29T18:15:41.013,-34148.07,-46943.909999999996,-84850.73999999999,-49945.77,-12794.085,-18320.04,6543.405,5693.849999999999,1.175160665669488,6.7385149453732005,8.325014471609117,6.013863434514351,-0.6487869095139955,-15.58275295899697,-24.73407365703102,-5.570045684013384,0.0476073,-1.005917835,-0.168395565,-17.97628,-14.66486,19.65488,70.0
1774822541.0130508,1.3113021850585938e-05,2026-03-29T22:15:41.013,2026-03-29T18:15:41.013,-34142.715,-46936.89,-84841.11,-49932.99,-12776.445,-18299.34,6541.965,5710.1849999999995,7.615313335460838,9.786940385841804,10.597864779565,9.26549234031879,4.8720918881281685,-4.532939624088296,1.9583938455626293,-1.0091176318846344,0.0476073,-1.005917835,-0.168395565,-17.97628,-14.66486,19.65488,70.0
1774822541.0176916,0.004640817642211914,2026-03-29T22:15:41.017,2026-03-29T18:15:41.017,-34129.665,-46922.04,-84828.78,-49920.93,-12763.439999999999,-18285.614999999998,6621.075,5728.724999999999,10.261772277143233,8.057440738897304,7.992708932952785,8.339550577969394,8.103930383478726,8.325452986960235,26.671242635191426,4.339344165369669,0.05346666,-1.00134021,-0.16735797,-19.761699999999998,-13.3525,20.585739999999998,70.0
1774822541.017709,1.7404556274414062e-05,2026-03-29T22:15:41.017,2026-03-29T18:15:41.017,-34113.06,-46899.72,-84799.215,-49890.24,-12735.404999999999,-18259.2,6668.235,5744.205,8.24774465945281,2.827735747720219,2.1046403961155864,4.030260741196537,7.981793579249427,17.57926929007862,37.831369433416555,7.4810830332320695,0.05346666,-1.00134021,-0.16735797,-19.761699999999998,-13.3525,20.585739999999998,70.0
1774822541.0213091,0.0036001205444335938,2026-03-29T22:15:41.021,2026-03-29T18:15:41.021,-34125.03,-46918.215,-84815.595,-49907.34,-12754.395,-18273.915,6619.23,5743.304999999999,2.842504952283454,-3.101765388197596,-4.136314000405312,-1.510555569789076,4.823887308923448,19.387998570937746,30.723871489674845,6.559350806422449,0.05346666,-1.00134021,-0.16735797,-19.761699999999998,-13.3525,20.585739999999998,70.0
1774822541.0213387,2.956390380859375e-05,2026-03-29T22:15:41.021,2026-03-29T18:15:41.021,-34122.735,-46910.295,-84809.47499999999,-49903.74,-12753.18,-18278.37,6606.63,5732.6849999999995,-3.298615871201334,-6.882433625849041,-7.917590388063676,-5.84439759979834,0.06417019570905537,13.069616120752949,9.492858300234703,1.9291655147164564,0.05346666,-1.00134021,-0.16735797,-19.761699999999998,-13.3525,20.585739999999998,70.0
1774822541.0250096,0.003670930862426758,2026-03-29T22:15:41.025,2026-03-29T18:15:41.025,-34141.5,-46928.88,-84836.7,-49937.13,-12791.88,-18319.95,6585.795,5721.389999999999,-7.446128793751035,-6.987001376594502,-7.8123352328411775,-7.3202182370184286,-4.401756700451045,1.3448149175208335,-15.17004020451795,-3.9737059091846687,0.05346666,-1.00134021,-0.16735797,-19.761699999999998,-13.3525,20.585739999999998,70.0
1774822541.0250268,1.71661376953125e-05,2026-03-29T22:15:41.025,2026-03-29T18:15:41.025,-34114.635,-46906.784999999996,-84816.405,-49923.54,-12784.904999999999,-18316.53,6574.23,5711.4,-8.01844235204685,-3.815231948234906,-4.291793701483475,-5.678620425617522,-6.957891136696846,-10.840062854896617,-31.39391213952411,-7.924406658627147,0.05346666,-1.00134021,-0.16735797,-19.761699999999998,-13.3525,20.585739999999998,70.0
1774822541.0291736,0.0041468143463134766,2026-03-29T22:15:41.029,2026-03-29T18:15:41.029,-34077.24,-46859.04,-84779.86499999999,-49896.405,-12769.56,-18338.13,6552.585,5712.3,-5.162676038894351,0.6975456817271005,0.6859013666996787,-1.9802192221328765,-6.814735764793319,-18.399753729674202,-31.863021410092255,-7.672204660813016,0.05346666,-1.00134021,-0.16735797,-19.761699999999998,-13.3525,20.585739999999998,70.0
1774822541.0291948,2.1219253540039062e-05,2026-03-29T22:15:41.029,2026-03-29T18:15:41.029,-34115.4,-46907.505,-84812.44499999999,-49915.665,-12783.06,-18362.88,6565.23,5719.635,-0.4939777419918514,4.190974886445247,4.730023981766141,2.0199852292247322,-4.20022704676002,-18.22688730607229,-17.139266429936036,-3.210992586983033,0.05346666,-1.00134021,-0.16735797,-19.761699999999998,-13.3525,20.585739999999998,70.0
1774822541.0332851,0.004090309143066406,2026-03-29T22:15:41.033,2026-03-29T18:15:41.033,-34119.36,-46927.08,-84836.83499999999,-49939.244999999995,-12800.925,-18344.7,6594.66,5735.88,3.7946613470293746,5.0949377136907845,6.1587418893414565,4.701002662425595,-0.1851269257955524,-10.46137774433406,4.944197928879773,3.155098139648734,0.05346666,-1.00134021,-0.16735797,-19.761699999999998,-13.3525,20.585739999999998,70.0
1774822541.0333083,2.3126602172851562e-05,2026-03-29T22:15:41.033,2026-03-29T18:15:41.033,-34115.265,-46904.715,-84816.62999999999,-49924.439999999995,-12786.975,-18304.695,6614.91,5753.655,5.969945434758926,3.3308878598084726,4.685587010091814,5.217808725536711,3.7464701289059907,1.6015398195725514,23.37899740192706,8.013987156702987,0.05346666,-1.00134021,-0.16735797,-19.761699999999998,-13.3525,20.585739999999998,70.0
1774822541.0371015,0.0037932395935058594,2026-03-29T22:15:41.037,2026-03-29T18:15:41.037,-34146.765,-46896.884999999995,-84795.61499999999,-49899.24,-12753.72,-18256.77,6586.245,5762.88,5.448894684637453,0.1886151322680962,1.3787005174399134,3.7117354798804922,6.214853270521967,12.909553114046673,29.450148466298362,8.683315500057926,0.06042465,-1.0026829800000001,-0.165587955,-17.884719999999998,-9.506979999999999,20.463659999999997,70.0
1774822541.0371222,2.0742416381835938e-05,2026-03-29T22:15:41.037,2026-03-29T18:15:41.037,-34123.095,-46895.805,-84804.48,-49899.465,-12738.645,-18237.87,6500.5199999999995,5759.775,2.8731759919422712,-2.488163090783045,-2.006371423866298,1.0762022416728383,6.389100418699513,18.76499938586124,20.86794240783783,4.690368701113258,0.06042465,-1.0026829800000001,-0.165587955,-17.884719999999998,-9.506979999999999,20.463659999999997,70.0
1774822541.0418448,0.00472259521484375,2026-03-29T22:15:41.041,2026-03-29T18:15:41.041,-34111.395,-46920.195,-84821.84999999999,-49904.055,-12737.115,-18243.765,6466.455,5749.92,-0.37568973038611003,-3.3288825578084102,-3.9327374333542107,-1.5373760239597691,4.239699840938719,16.770392407356848,2.600958651599051,-1.9214784764275907,0.06042465,-1.0026829800000001,-0.165587955,-17.884719999999998,-9.506979999999999,20.463659999999997,70.0
1774822541.0418692,2.4318695068359375e-05,2026-03-29T22:15:41.041,2026-03-29T18:15:41.041,-34103.835,-46908.36,-84818.565,-49907.34,-12740.13,-18245.07,6557.985,5744.205,-2.906571326293955,-2.121940925736107,-3.768654144510404,-3.211563918012496,0.5389067181503052,7.805789583483977,-15.872700534701048,-7.648993522183417,0.06042465,-1.0026829800000001,-0.165587955,-17.884719999999998,-9.506979999999999,20.463659999999997,70.0
1774822541.0477312,0.005861997604370117,2026-03-29T22:15:41.047,2026-03-29T18:15:41.047,-34100.1,-46883.25,-84795.56999999999,-49893.39,-12733.289999999999,-18250.92,6643.844999999999,5744.07,-3.9124705470402192,0.1777706924285848,-1.9537382818955966,-3.548739799058255,-3.3900370564546063,-4.357894635870312,-25.417144205243666,-9.397402442129291,0.06042465,-1.0026829800000001,-0.165587955,-17.884719999999998,-9.506979999999999,20.463659999999997,70.0
1774822541.047745,1.3828277587890625e-05,2026-03-29T22:15:41.047,2026-03-29T18:15:41.047,-34169.805,-46930.365,-84823.83,-49918.634999999995,-12772.845,-18314.28,6615.045,5748.4349999999995,-3.3758064895935966,2.0765890309002613,0.3696481534150809,-2.6856725669387203,-6.110829825594023,-14.640541908978207,-21.734283045925352,-6.159428919666753,0.06042465,-1.0026829800000001,-0.165587955,-17.884719999999998,-9.506979999999999,20.463659999999997,70.0
1774822541.0477593,1.430511474609375e-05,2026-03-29T22:15:41.047,2026-03-29T18:15:41.047,-34154.28,-46931.354999999996,-84824.955,-49918.005,-12774.465,-18311.579999999998,6575.985,5764.32,-1.8692275625120272,2.4260360759664557,2.0128262985930343,-1.1076623534911298,-6.576049943111332,-18.768888989092094,-7.301077021157499,0.4083610612055824,0.06042465,-1.0026829800000001,-0.165587955,-17.884719999999998,-9.506979999999999,20.463659999999997,70.0
1774822541.0477667,7.3909759521484375e-06,2026-03-29T22:15:41.047,2026-03-29T18:15:41.047,-34080.57,-46904.939999999995,-84820.5,-49921.515,-12780.855,-18309.42,6580.71,5775.705,-0.14157020886440966,1.066189248829121,2.3267902013574635,0.5999638827885517,-4.530896597013057,-15.049163997999411,10.122771554385931,6.839602431630068,0.06042465,-1.0026829800000001,-0.165587955,-17.884719999999998,-9.506979999999999,20.463659999999997,70.0
1774822541.0532136,0.005446910858154297,2026-03-29T22:15:41.053,2026-03-29T18:15:41.053,-34059.06,-46887.659999999996,-84808.53,-49913.415,-12769.83,-18284.04,6628.094999999999,5782.995,1.2500281575058112,-1.1157477437744845,1.4374788264792102,1.9440858705947441,-0.6620158503344858,-5.063231091586106,21.56750440264238,9.699252365077001,0.06042465,-1.0026829800000001,-0.165587955,-17.884719999999998,-9.506979999999999,20.463659999999997,70.0
1774822541.0532289,1.52587890625e-05,2026-03-29T22:15:41.053,2026-03-29T18:15:41.053,-34117.38,-46917.765,-84832.56,-49933.215,-12782.564999999999,-18292.59,6609.78,5792.804999999999,2.0830163413675136,-2.7246911679359487,0.0584246847727455,2.613211211267072,3.5979471256971647,6.998308054093547,21.404178565344147,7.428952896141486,0.06042465,-1.0026829800000001,-0.165587955,-17.884719999999998,-9.506979999999999,20.463659999999997,70.0
1774822541.0591102,0.005881309509277344,2026-03-29T22:15:41.059,2026-03-29T18:15:41.059,-34150.905,-46949.67,-84862.935,-49960.485,-12806.369999999999,-18320.399999999998,6544.349999999999,5787.54,2.3767543867787007,-2.680425987221775,-0.970127881564787,2.488639626413056,6.5781323406929975,16.08800034333627,10.090649098759606,1.2010216254912736,0.06176742,-1.00048572,-0.171081105,-18.510379999999998,-7.87416,18.28148,70.0
1774822541.0591288,1.8596649169921875e-05,2026-03-29T22:15:41.059,2026-03-29T18:15:41.059,-34186.95,-46963.439999999995,-84868.37999999999,-49965.39,-12815.369999999999,-18340.92,6554.655,5771.835,2.1995794718245882,-0.8604889632095734,-1.1451237878736984,1.629820646391426,7.022717520862871,18.410029502773874,-6.216329207414847,-5.6884809899633355,0.06176742,-1.00048572,-0.171081105,-18.510379999999998,-7.87416,18.28148,70.0
1774822541.0672555,0.00812673568725586,2026-03-29T22:15:41.067,2026-03-29T18:15:41.067,-34160.895,-46941.075,-84836.745,-49927.455,-12773.744999999999,-18294.57,6603.929999999999,5766.84,1.5498010568118155,1.7957625982803893,-0.5262154346821237,0.2647212946919304,4.63481048733403,13.007151845680223,-18.9198365231941,-9.572457019154157,0.06176742,-1.00048572,-0.171081105,-18.510379999999998,-7.87416,18.28148,70.0
1774822541.067288,3.24249267578125e-05,2026-03-29T22:15:41.067,2026-03-29T18:15:41.067,-34118.28,-46910.07,-84821.08499999999,-49924.845,-12780.99,-18299.88,6595.695,5768.1449999999995,0.40328087246561767,3.7837105354620184,0.36891408378783974,-1.2273524533875664,0.26761866819155705,2.1622461710152723,-21.41983350727781,-8.375535072145242,0.06176742,-1.00048572,-0.171081105,-18.510379999999998,-7.87416,18.28148,70.0
1774822541.067319,3.0994415283203125e-05,2026-03-29T22:15:41.067,2026-03-29T18:15:41.067,-34112.7,-46877.445,-84776.265,-49872.15,-12724.47,-18246.915,6593.4,5787.045,-1.120448231626627,3.8641597934633456,0.9093445668592695,-2.3785247615060046,-4.356114647339968,-9.557396670375997,-12.47385842422903,-2.7317957123196583,0.06176742,-1.00048572,-0.171081105,-18.510379999999998,-7.87416,18.28148,70.0
1774822541.06733,1.0967254638671875e-05,2026-03-29T22:15:41.067,2026-03-29T18:15:41.067,-34125.39,-46912.229999999996,-84814.65,-49903.83,-12755.88,-18291.96,6534.134999999999,5811.075,-2.6256749263793595,1.7775632348350077,0.7278266260277756,-2.762672704099018,-7.319045084210463,-17.217758054887554,3.20340165383243,4.3479529081137995,0.06176742,-1.00048572,-0.171081105,-18.510379999999998,-7.87416,18.28148,70.0
1774822541.0693517,0.00202178955078125,2026-03-29T22:15:41.069,2026-03-29T18:15:41.069,-34126.784999999996,-46919.924999999996,-84831.25499999999,-49925.564999999995,-12781.439999999999,-18330.075,6518.61,5826.51,-3.4903031393305897,-1.5515629909764015,-0.0773421288313877,-2.165670891391278,-7.316236428986434,-17.596187537903276,17.382726878842035,9.085827583695048,0.06176742,-1.00048572,-0.171081105,-18.510379999999998,-7.87416,18.28148,70.0
1774822541.0693653,1.3589859008789062e-05,2026-03-29T22:15:41.069,2026-03-29T18:15:41.069,-34116.39,-46909.305,-84820.455,-49925.88,-12792.105,-18345.96,6516.405,5834.025,-3.1330095296046387,-4.445773951297374,-1.013693581856825,-0.71918793431753,-4.248041420633141,-10.5449815312349,22.554911819767995,8.961133637020806,0.06176742,-1.00048572,-0.171081105,-18.510379999999998,-7.87416,18.28148,70.0
1774822541.0734487,0.004083395004272461,2026-03-29T22:15:41.073,2026-03-29T18:15:41.073,-34101.405,-46892.744999999995,-84797.64,-49903.92,-12767.13,-18303.57,6539.085,5832.675,-1.377321606446371,-5.330330057575903,-1.4854507957392387,1.0881865098119432,0.6792108218670334,0.9399685544136449,15.809984152930344,4.060943948763981,0.06176742,-1.00048572,-0.171081105,-18.510379999999998,-7.87416,18.28148,70.0
1774822541.0734696,2.09808349609375e-05,2026-03-29T22:15:41.073,2026-03-29T18:15:41.073,-34084.305,-46864.665,-84768.03,-49868.909999999996,-12729.465,-18274.545,6511.005,5822.01,1.306053846013447,-3.573073701969292,-1.1366768523287423,2.563509043559614,5.420229689700791,11.98280044345314,0.39337911792206853,-2.9705935196352797,0.06176742,-1.00048572,-0.171081105,-18.510379999999998,-7.87416,18.28148,70.0
1774822541.0773146,0.0038449764251708984,2026-03-29T22:15:41.077,2026-03-29T18:15:41.077,-34073.729999999996,-46831.005,-84731.12999999999,-49829.715,-12688.199999999999,-18233.954999999998,6499.71,5813.37,3.8677755511772975,0.13308363734019144,-0.060135133856214905,3.084745496687768,7.948396192578162,17.89570592505013,-15.865092925890293,-8.357504762479111,0.063537435,-1.00207263,-0.18914746500000001,-22.56954,-7.59948,19.609099999999998,70.0
1774822541.0773354,2.0742416381835938e-05,2026-03-29T22:15:41.077,2026-03-29T18:15:41.077,-34125.39,-46860.479999999996,-84761.86499999999,-49863.15,-12720.015,-18248.085,6520.32,5815.485,5.093823140761446,4.058297531294935,1.236524529499011,2.3830099029827014,7.139631023995711,16.176003146857543,-24.484952468564437,-9.223858316576155,0.063537435,-1.00207263,-0.18914746500000001,-22.56954,-7.59948,19.609099999999998,70.0
1774822541.0811286,0.0037932395935058594,2026-03-29T22:15:41.081,2026-03-29T18:15:41.081,-34125.795,-46896.93,-84823.605,-49938.479999999996,-12804.029999999999,-18326.295,6488.594999999999,5827.86,4.198931553743544,6.266226542370457,2.085887981031464,0.693811163840408,3.288267133950146,7.578728018989555,-20.671923051897842,-5.136878076482932,0.063537435,-1.00207263,-0.18914746500000001,-22.56954,-7.59948,19.609099999999998,70.0
1774822541.081156,2.7418136596679688e-05,2026-03-29T22:15:41.081,2026-03-29T18:15:41.081,-34122.195,-46959.255,-84891.59999999999,-49998.689999999995,-12854.07,-18368.055,6544.17,5846.67,1.3013294169964809,5.578394917153978,2.003100436673353,-1.3111256769389306,-1.9890387031006762,-4.201143073535086,-5.872743483570872,1.6700446998170202,0.063537435,-1.00207263,-0.18914746500000001,-22.56954,-7.59948,19.609099999999998,70.0
1774822541.085226,0.0040700435638427734,2026-03-29T22:15:41.085,2026-03-29T18:15:41.085,-34156.665,-46970.369999999995,-84872.87999999999,-49959.134999999995,-12795.345,-18311.805,6647.985,5865.66,-2.4983902803129334,2.188765140814829,0.9408758507519134,-2.7982867308175585,-6.436622028667275,-14.10991259139672,12.774741975433091,7.51241917815477,0.063537435,-1.00207263,-0.18914746500000001,-22.56954,-7.59948,19.609099999999998,70.0
1774822541.0852468,2.0742416381835938e-05,2026-03-29T22:15:41.085,2026-03-29T18:15:41.085,-34158.645,-46893.78,-84785.895,-49881.24,-12733.74,-18280.079999999998,6634.08,5873.849999999999,-5.532305948610386,-2.3867227082442466,-0.6695209734744799,-3.13629671497308,-8.138882321850106,-17.907146718541647,25.88575311838784,9.248694692449371,0.063537435,-1.00207263,-0.18914746500000001,-22.56954,-7.59948,19.609099999999998,70.0
1774822541.0893235,0.004076719284057617,2026-03-29T22:15:41.089,2026-03-29T18:15:41.089,-34236.27,-46913.67,-84783.95999999999,-49888.665,-12754.98,-18307.89,6623.415,5868.405,-6.318757993599232,-6.0127366251890795,-2.1102318509027795,-2.181468923949763,-6.362776258967865,-13.993923958972603,26.505094651094048,5.973920503029558,0.063537435,-1.00207263,-0.18914746500000001,-22.56954,-7.59948,19.609099999999998,70.0
1774822541.0893445,2.09808349609375e-05,2026-03-29T22:15:41.089,2026-03-29T18:15:41.089,-34096.095,-46891.665,-84779.37,-49870.979999999996,-12724.425,-18249.48,6685.155,5863.05,-4.303521198003328,-6.95270978907774,-2.708050938067099,-0.3476983487537063,-1.8850452633709944,-4.103192214831735,13.704173256517372,-0.502124705208785,0.063537435,-1.00207263,-0.18914746500000001,-22.56954,-7.59948,19.609099999999998,70.0
1774822541.0932393,0.003894805908203125,2026-03-29T22:15:41.093,2026-03-29T18:15:41.093,-34068.015,-46918.08,-84831.48,-49922.415,-12771.494999999999,-18287.505,6650.775,5854.86,-0.21034964728511626,-4.708147657064932,-2.1477467684911336,1.5766456433615197,3.3469787285451527,7.454102315080401,-6.7280574597752905,-6.64783668103449,0.063537435,-1.00207263,-0.18914746500000001,-22.56954,-7.59948,19.609099999999998,70.0
1774822541.0932593,2.002716064453125e-05,2026-03-29T22:15:41.093,2026-03-29T18:15:41.093,-34121.295,-46938.645,-84849.075,-49943.52,-12795.074999999999,-18317.655,6591.105,5853.15,4.208553905161472,-0.27040693112975683,-0.6227539747938295,2.781496335012265,7.0727775434773035,15.665913116370087,-24.9266847488952,-9.13179048602934,0.063537435,-1.00207263,-0.18914746500000001,-22.56954,-7.59948,19.609099999999998,70.0
1774822541.098814,0.005554676055908203,2026-03-29T22:15:41.098,2026-03-29T18:15:41.098,-34120.665,-46925.729999999996,-84841.73999999999,-49942.89,-12797.64,-18324.989999999998,6557.355,5865.165,6.941942936458414,4.337869410547608,1.2429905729649555,2.792879330236873,7.711716888867646,17.00366545045396,-31.71012101155389,-6.629185137981176,0.06982404,-1.00512438,-0.20043894,-23.54618,-6.821219999999999,16.83178,70.0
1774822541.0988348,2.0742416381835938e-05,2026-03-29T22:15:41.098,2026-03-29T18:15:41.098,-34110.9,-46898.145,-84819.105,-49932.99,-12791.205,-18318.465,6524.865,5884.92,6.661359510076575,7.010350453175524,2.663393203704525,1.6697453362923376,5.047989024735793,10.957931643472676,-23.163159470475254,-0.5326905735194885,0.06982404,-1.00512438,-0.20043894,-23.54618,-6.821219999999999,16.83178,70.0
1774822541.1019187,0.003083944320678711,2026-03-29T22:15:41.101,2026-03-29T18:15:41.101,-34084.71,-46845.9,-84771.36,-49895.955,-12762.09,-18297.315,6498.045,5906.07,3.3822144740392,6.538766727975788,3.02734616228647,-0.04702611329394225,0.3040581148486765,0.24793939405719714,-2.7750513711427303,5.815707517292133,0.06982404,-1.00512438,-0.20043894,-23.54618,-6.821219999999999,16.83178,70.0
1774822541.1019323,1.3589859008789062e-05,2026-03-29T22:15:41.101,2026-03-29T18:15:41.101,-34054.155,-46826.729999999996,-84743.235,-49854.78,-12711.555,-18241.739999999998,6500.295,5910.165,-1.491398563919406,3.163119057897303,2.1578672576905813,-1.6006985894208718,-4.423149433681583,-10.390378927585763,19.995333373391688,8.950944427110244,0.06982404,-1.00512438,-0.20043894,-23.54618,-6.821219999999999,16.83178,70.0
1774822541.1052082,0.0032758712768554688,2026-03-29T22:15:41.105,2026-03-29T18:15:41.105,-34108.515,-46920.78,-84814.425,-49901.22,-12743.145,-18264.239999999998,6580.259999999999,5910.705,-5.783097850244675,-1.561932621415282,0.38558782027494026,-2.3664710685279875,-7.10190974769339,-16.30325963068791,34.13294671789702,7.17347871558344,0.06982404,-1.00512438,-0.20043894,-23.54618,-6.821219999999999,16.83178,70.0
1774822541.105229,2.0742416381835938e-05,2026-03-29T22:15:41.105,2026-03-29T18:15:41.105,-34118.865,-46934.685,-84838.68,-49926.375,-12767.265,-18287.415,6718.995,5906.07,-7.543870022483412,-5.506945082834725,-1.5885358459816488,-2.1149447493275804,-6.654539742543163,-14.973360642439117,32.38972711751292,1.4717866316375872,0.06982404,-1.00512438,-0.20043894,-23.54618,-6.821219999999999,16.83178,70.0
1774822541.109367,0.004137992858886719,2026-03-29T22:15:41.109,2026-03-29T18:15:41.109,-34120.799999999996,-46923.975,-84826.75499999999,-49916.384999999995,-12758.039999999999,-18270.63,6724.08,5890.23,-5.962950561785447,-6.95186669430275,-2.978367817367221,-1.07428606001698,-3.399578917623938,-7.114511176973229,14.94727677396657,-5.022683970680475,0.06982404,-1.00512438,-0.20043894,-23.54618,-6.821219999999999,16.83178,70.0
1774822541.1093895,2.2649765014648438e-05,2026-03-29T22:15:41.109,2026-03-29T18:15:41.109,-34117.244999999995,-46913.715,-84818.565,-49914.72,-12762.99,-18277.695,6617.025,5880.6449999999995,-1.7524444514285737,-5.3490145578345505,-3.225913858952351,0.22237014938262561,1.138401158332755,3.680324857734083,-10.4125939139021,-8.749557391698794,0.06982404,-1.00512438,-0.20043894,-23.54618,-6.821219999999999,16.83178,70.0
1774822541.113198,0.0038084983825683594,2026-03-29T22:15:41.113,2026-03-29T18:15:41.113,-34116.795,-46901.159999999996,-84804.345,-49902.84,-12753.63,-18272.655,6576.66,5884.605,3.1819674788453356,-1.5204221322302802,-2.2181461750883913,1.2133358521525928,4.946957472587417,12.575384447597564,-31.81353445843163,-7.666728525047996,0.06982404,-1.00512438,-0.20043894,-23.54618,-6.821219999999999,16.83178,70.0
1774822541.1132255,2.7418136596679688e-05,2026-03-29T22:15:41.113,2026-03-29T18:15:41.113,-34125.795,-46918.215,-84823.605,-49919.985,-12766.814999999999,-18285.12,6600.42,5896.844999999999,6.628249694436887,2.7756216115084804,-0.32698015268005104,1.5644238986135823,6.431979332522834,15.670783543664031,-38.873548095054026,-2.367574712205446,0.06982404,-1.00512438,-0.20043894,-23.54618,-6.821219999999999,16.83178,70.0
1774822541.1172168,0.003991365432739258,2026-03-29T22:15:41.117,2026-03-29T18:15:41.117,-34153.335,-46954.89,-84861.62999999999,-49953.104999999996,-12794.039999999999,-18311.895,6604.469999999999,5913.045,7.089007971166455,5.676834688029624,1.7360236040252672,1.2825522738620847,5.098003478607942,11.736779975441037,-27.736173228231724,4.242482373334018,0.07183819500000001,-1.006161975,-0.20776314,-22.310119999999998,-0.73248,15.76358,70.0
