unix_time_s,dt_s,UTC,LOCAL,EMG1_Raw,EMG2_Raw,EMG3_Raw,EMG4_Raw,EMG5_Raw,EMG6_Raw,EMG7_Raw,EMG8_Raw,EMG1_Filtered,EMG2_Filtered,EMG3_Filtered,EMG4_Filtered,EMG5_Filtered,EMG6_Filtered,EMG7_Filtered,EMG8_Filtered,Accel1_Raw,Accel2_Raw,Accel3_Raw,Gyro1_Raw,Gyro2_Raw,Gyro3_Raw,Battery
1774822512.3415332,,2026-03-29T22:15:12.341,2026-03-29T18:15:12.341,-34322.534999999996,-46830.015,-84631.815,-49577.85,-12884.894999999999,-18083.204999999998,6618.78,1936.71,0.8663873132167692,1.417585281508362,1.6725940269818533,1.5142497969893547,0.29563230969747745,0.8732304892591658,1.9280330220347617,-0.2834347401890226,-0.035827545,-0.9547094700000001,-0.31506267,-5.70724,9.018659999999999,-1.6633399999999998,71.0
1774822512.3415487,1.5497207641601562e-05,2026-03-29T22:15:12.341,2026-03-29T18:15:12.341,-34329.78,-46834.244999999995,-84635.955,-49583.205,-12899.43,-18092.25,6568.245,1931.5349999999999,6.092211193419707,7.086812428455618,8.087646091138108,11.656043605950691,9.591406361744584,7.749967450374512,-3.3211392668610076,-7.188077529947196,-0.035827545,-0.9547094700000001,-0.31506267,-5.70724,9.018659999999999,-1.6633399999999998,71.0
1774822512.341563,1.430511474609375e-05,2026-03-29T22:15:12.341,2026-03-29T18:15:12.341,-34314.57,-46809.134999999995,-84606.97499999999,-49554.54,-12896.505,-18091.8,6547.41,1919.2949999999998,8.291622684040258,9.243778759209766,10.477584843060628,16.156976313479074,14.557754191846865,10.792575075832003,-7.127882198356793,-10.99481658195592,-0.035827545,-0.9547094700000001,-0.31506267,-5.70724,9.018659999999999,-1.6633399999999998,71.0
1774822512.3415678,4.76837158203125e-06,2026-03-29T22:15:12.341,2026-03-29T18:15:12.341,-34308.72,-46793.52,-84587.265,-49533.119999999995,-12896.414999999999,-18121.68,6525.8099999999995,1900.125,6.480257123919902,7.011396536953472,7.859141495476593,12.889782748784189,12.607245906478076,8.379822833295776,-7.915896678257484,-9.796985762469754,-0.035827545,-0.9547094700000001,-0.31506267,-5.70724,9.018659999999999,-1.6633399999999998,71.0
1774822512.341573,5.245208740234375e-06,2026-03-29T22:15:12.341,2026-03-29T18:15:12.341,-34331.715,-46820.61,-84614.44499999999,-49558.994999999995,-12918.33,-18131.265,6574.275,1881.4499999999998,1.6268942806898916,1.6198309652990053,1.6711644149365792,3.4909171498480083,4.442388719890642,1.6413129438390992,-5.394282314577794,-3.9765714772002902,-0.035827545,-0.9547094700000001,-0.31506267,-5.70724,9.018659999999999,-1.6633399999999998,71.0
1774822512.341577,4.0531158447265625e-06,2026-03-29T22:15:12.341,2026-03-29T18:15:12.341,-34323.795,-46826.189999999995,-84628.215,-49586.67,-12941.055,-18130.094999999998,6632.054999999999,1883.5649999999998,-3.8586201356911016,-4.2573245739250964,-4.99849192501553,-7.456381114423111,-6.171397616388514,-6.069575121763152,-0.6442557519737896,3.879845514507695,-0.035827545,-0.9547094700000001,-0.31506267,-5.70724,9.018659999999999,-1.6633399999999998,71.0
1774822512.341582,5.0067901611328125e-06,2026-03-29T22:15:12.341,2026-03-29T18:15:12.341,-34332.705,-46833.84,-84635.28,-49597.965,-12956.265,-18149.04,6584.175,1889.0549999999998,-7.326282224315651,-7.835818923933776,-8.960867727221526,-14.66896001250513,-14.14299178877788,-10.84334441247639,4.355823919713772,10.126465112428994,-0.035827545,-0.9547094700000001,-0.31506267,-5.70724,9.018659999999999,-1.6633399999999998,71.0
1774822512.3415856,3.5762786865234375e-06,2026-03-29T22:15:12.341,2026-03-29T18:15:12.341,-34345.935,-46843.965,-84643.83,-49604.22,-12963.869999999999,-18162.63,6536.565,1901.385,-7.174803266953265,-7.554649437084463,-8.46922914079143,-14.73324149050086,-15.501244071674282,-10.193039816955583,7.551909837749657,11.761261264518678,-0.035827545,-0.9547094700000001,-0.31506267,-5.70724,9.018659999999999,-1.6633399999999998,71.0
1774822512.3499627,0.0083770751953125,2026-03-29T22:15:12.349,2026-03-29T18:15:12.349,-34339.275,-46821.555,-84608.685,-49559.354999999996,-12915.404999999999,-18113.489999999998,6580.575,1916.3249999999998,-3.5973131483893592,-3.765090630076589,-4.002427079257282,-7.7383293207609265,-9.372306854219579,-4.342951535702216,7.642526414431143,7.886850161006002,-0.036926175,-0.95300049,-0.317198895,-6.653359999999999,10.254719999999999,-1.8769799999999999,71.0
1774822512.3499796,1.6927719116210938e-05,2026-03-29T22:15:12.349,2026-03-29T18:15:12.349,-34321.77,-46806.57,-84591.54,-49533.03,-12896.64,-18087.48,6616.755,1920.105,1.5663597082541796,1.5332503598779106,2.069532766552242,2.816658066477205,1.4960165798224814,3.838352683832298,4.589461718836298,0.21050765507174393,-0.036926175,-0.95300049,-0.317198895,-6.653359999999999,10.254719999999999,-1.8769799999999999,71.0
1774822512.350008,2.8371810913085938e-05,2026-03-29T22:15:12.350,2026-03-29T18:15:12.350,-34313.04,-46804.814999999995,-84592.395,-49533.659999999996,-12921.39,-18085.68,6617.925,1910.2949999999998,5.774244898553271,5.739804603550084,6.73133448800458,11.775509169400987,11.964828620839384,10.247776806539587,-0.3770658332455868,-7.697436023613699,-0.036926175,-0.95300049,-0.317198895,-6.653359999999999,10.254719999999999,-1.8769799999999999,71.0
1774822512.350016,8.106231689453125e-06,2026-03-29T22:15:12.350,2026-03-29T18:15:12.350,-34313.49,-46802.655,-84589.515,-49539.15,-12921.75,-18104.85,6607.304999999999,1890.81,7.038776654592005,6.937669500575976,7.828574326323026,14.858108959667272,16.939530056469582,11.605618836366594,-5.249368946596412,-12.071495781004769,-0.036926175,-0.95300049,-0.317198895,-6.653359999999999,10.254719999999999,-1.8769799999999999,71.0
1774822512.3582723,0.008256196975708008,2026-03-29T22:15:12.358,2026-03-29T18:15:12.358,-34321.905,-46813.185,-84600.58499999999,-49540.59,-12879.359999999999,-18106.649999999998,6604.11,1877.22,4.87131677413731,4.776814997501397,5.077644662804246,10.722339419632199,13.853174102846477,7.128548475137167,-8.035829675026848,-10.763541564631481,-0.036926175,-0.95300049,-0.317198895,-6.653359999999999,10.254719999999999,-1.8769799999999999,71.0
1774822512.3582845,1.2159347534179688e-05,2026-03-29T22:15:12.358,2026-03-29T18:15:12.358,-34321.005,-46814.04,-84603.105,-49543.47,-12881.025,-18108.27,6594.12,1867.095,0.46290438229151537,0.5442479524714149,0.09916977847648073,1.5533486619523431,3.9849194770474297,-1.0345403561123836,-7.5545038492953385,-4.3189213858308175,-0.036926175,-0.95300049,-0.317198895,-6.653359999999999,10.254719999999999,-1.8769799999999999,71.0
1774822512.3582942,9.775161743164062e-06,2026-03-29T22:15:12.358,2026-03-29T18:15:12.358,-34312.815,-46803.195,-84597.93,-49550.895,-12906.585,-18119.204999999998,6582.78,1864.125,-3.960714587611573,-3.569305996025023,-4.497085767342613,-8.080850140211684,-8.06165313665469,-8.841052684935285,-3.9237590836670213,4.23218391599276,-0.036926175,-0.95300049,-0.317198895,-6.653359999999999,10.254719999999999,-1.8769799999999999,71.0
1774822512.358299,4.76837158203125e-06,2026-03-29T22:15:12.358,2026-03-29T18:15:12.358,-34312.59,-46790.28,-84579.885,-49538.115,-12897.99,-18106.965,6588.855,1872.99,-6.263783716707184,-5.5994588494139315,-6.472371923570191,-13.511450296620714,-16.512729163091922,-12.362532727285403,1.4464387246208927,10.80047631515723,-0.036926175,-0.95300049,-0.317198895,-6.653359999999999,10.254719999999999,-1.8769799999999999,71.0
1774822512.3667767,0.00847768783569336,2026-03-29T22:15:12.366,2026-03-29T18:15:12.366,-34324.47,-46798.965,-84583.70999999999,-49537.799999999996,-12894.885,-18100.844999999998,6582.78,1877.04,-5.435507092486546,-4.752775404163931,-5.0575688854611816,-12.244900285865842,-17.19996237036157,-9.761480641085296,6.378629084661654,12.209789865636445,-0.036926175,-0.95300049,-0.317198895,-6.653359999999999,10.254719999999999,-1.8769799999999999,71.0
1774822512.3667965,1.9788742065429688e-05,2026-03-29T22:15:12.366,2026-03-29T18:15:12.366,-34325.729999999996,-46829.07,-84618.94499999999,-49551.479999999996,-12899.609999999999,-18099.315,6579.855,1869.3899999999999,-2.0315105330357097,-1.708312752456106,-1.2470755012701518,-5.116698904390075,-9.619099470945276,-2.241506364152693,8.787108961471752,7.757317688442626,-0.036926175,-0.95300049,-0.317198895,-6.653359999999999,10.254719999999999,-1.8769799999999999,71.0
1774822512.3668115,1.5020370483398438e-05,2026-03-29T22:15:12.366,2026-03-29T18:15:12.366,-34317.0,-46824.03,-84617.595,-49558.95,-12914.279999999999,-18115.92,6571.44,1856.655,2.1698427677697487,1.833548271365363,2.821218064807738,4.2151489682158685,2.747076950994834,6.517878137544247,7.548448345375916,-0.4156696060881698,-0.040466205,-0.9484839,-0.31774821000000003,-11.094019999999999,10.16316,-2.92992,71.0
1774822512.3668187,7.152557373046875e-06,2026-03-29T22:15:12.366,2026-03-29T18:15:12.366,-34301.97,-46800.765,-84594.59999999999,-49549.455,-12915.359999999999,-18118.71,6521.264999999999,1841.445,5.093206582673161,4.079679162508332,5.0362275711648,11.144004735058228,14.034948650594119,12.172938173481283,3.028011486349641,-8.346617430716089,-0.040466205,-0.9484839,-0.31774821000000003,-11.094019999999999,10.16316,-2.92992,71.0
1774822512.3766177,0.009799003601074219,2026-03-29T22:15:12.376,2026-03-29T18:15:12.376,-34305.21,-46792.799999999996,-84579.39,-49534.02,-12900.105,-18109.665,6508.8,1826.46,5.392885130575398,4.050198136370301,4.403511167250413,12.396335593904757,18.792160884030896,11.876744044496363,-2.9846043650413354,-12.183063012987773,-0.040466205,-0.9484839,-0.31774821000000003,-11.094019999999999,10.16316,-2.92992,71.0
1774822512.376636,1.8358230590820312e-05,2026-03-29T22:15:12.376,2026-03-29T18:15:12.376,-34286.85,-46774.17,-84558.375,-49515.345,-12889.664999999999,-18113.04,6539.985,1815.975,3.0711289700334503,2.0040270192701746,1.493375420573936,7.586882853982307,14.620541202360176,5.710737092471486,-7.954497911500433,-10.076654528759445,-0.040466205,-0.9484839,-0.31774821000000003,-11.094019999999999,10.16316,-2.92992,71.0
1774822512.3766515,1.5497207641601562e-05,2026-03-29T22:15:12.376,2026-03-29T18:15:12.376,-34314.659999999996,-46807.335,-84599.50499999999,-49554.674999999996,-12921.795,-18123.614999999998,6593.535,1814.8049999999998,-0.595654947525433,-0.7999088113716323,-1.9556424918076958,-0.69587506757076,3.383887168819927,-3.3332283219416703,-9.65621906189113,-3.0981842637424353,-0.040466205,-0.9484839,-0.31774821000000003,-11.094019999999999,10.16316,-2.92992,71.0
1774822512.3766577,6.198883056640625e-06,2026-03-29T22:15:12.376,2026-03-29T18:15:12.376,-34335.09,-46813.994999999995,-84592.70999999999,-49554.63,-12909.96,-18094.094999999998,6605.37,1826.0549999999998,-3.7509047310452917,-2.836744487359199,-4.029997833430189,-8.268543290804637,-9.628039400217554,-10.819023963528755,-7.175192735204254,5.290743616598323,-0.040466205,-0.9484839,-0.31774821000000003,-11.094019999999999,10.16316,-2.92992,71.0
1774822512.385327,0.008669376373291016,2026-03-29T22:15:12.385,2026-03-29T18:15:12.385,-34339.229999999996,-46829.79,-84614.84999999999,-49586.22,-12956.67,-18160.38,6539.49,1831.86,-4.897523351554795,-3.1303683663419606,-3.6788254782156597,-11.466519320771901,-18.203395494739656,-13.05595622213013,-1.4041603120468835,10.95571322968601,-0.040466205,-0.9484839,-0.31774821000000003,-11.094019999999999,10.16316,-2.92992,71.0
1774822512.3853438,1.6689300537109375e-05,2026-03-29T22:15:12.385,2026-03-29T18:15:12.385,-34331.49,-46832.4,-84615.61499999999,-49574.384999999995,-12948.525,-18158.805,6560.639999999999,1833.435,-3.6070234648323023,-1.7181184487115375,-1.2412985821133036,-8.923298482535397,-18.18865556485254,-8.924878285839277,5.236031117227934,11.143846996795546,-0.040466205,-0.9484839,-0.31774821000000003,-11.094019999999999,10.16316,-2.92992,71.0
1774822512.385358,1.430511474609375e-05,2026-03-29T22:15:12.385,2026-03-29T18:15:12.385,-34311.69,-46813.095,-84598.65,-49546.215,-12897.539999999999,-18086.85,6589.17,1830.5549999999998,-0.6623851238322379,0.45492278378467604,1.7996660967615052,-2.1481187275551346,-9.50831445243866,-0.4336323223226126,9.793322249992627,5.845774071285687,-0.040466205,-0.9484839,-0.31774821000000003,-11.094019999999999,10.16316,-2.92992,71.0
1774822512.3853624,4.291534423828125e-06,2026-03-29T22:15:12.385,2026-03-29T18:15:12.385,-34310.295,-46807.965,-84598.605,-49545.99,-12894.525,-18080.91,6584.804999999999,1817.415,2.401731204874213,2.1178111379240567,3.6779532961173307,5.338771048055709,3.762633534746597,8.27274669401541,10.100955383481162,-2.22002734198464,-0.040466205,-0.9484839,-0.31774821000000003,-11.094019999999999,10.16316,-2.92992,71.0
1774822512.391921,0.006558656692504883,2026-03-29T22:15:12.391,2026-03-29T18:15:12.391,-34323.255,-46815.795,-84599.775,-49547.384999999995,-12902.445,-18098.28,6611.175,1797.12,4.097360950421548,2.389854512043208,3.3338996366840536,9.82903753554003,15.325041065974492,12.953534669117346,5.826214105381422,-8.992184037290393,-0.040588275,-0.948667005,-0.31787028,-11.58234,8.9271,-1.35814,71.0
1774822512.391937,1.5974044799804688e-05,2026-03-29T22:15:12.391,2026-03-29T18:15:12.391,-34325.729999999996,-46821.96,-84606.39,-49542.884999999995,-12893.355,-18089.145,6630.344999999999,1776.78,3.705000709687416,1.236520510518141,0.9905876766214212,9.26516417879332,19.664433160926663,11.352181624900835,-1.2640210691886,-11.118810473203649,-0.040588275,-0.948667005,-0.31787028,-11.58234,8.9271,-1.35814,71.0
1774822512.3919492,1.2159347534179688e-05,2026-03-29T22:15:12.391,2026-03-29T18:15:12.391,-34324.244999999995,-46835.415,-84625.065,-49564.17,-12915.945,-18105.93,6616.485,1770.48,1.56849761697297,-0.5676080522077027,-1.9897915407672728,4.181687611682171,14.69632647395313,4.287780432542549,-8.007852124218797,-7.636168105614652,-0.040588275,-0.948667005,-0.31787028,-11.58234,8.9271,-1.35814,71.0
1774822512.3919532,4.0531158447265625e-06,2026-03-29T22:15:12.391,2026-03-29T18:15:12.391,-34341.39,-46850.939999999995,-84644.50499999999,-49587.39,-12938.265,-18123.165,6585.075,1782.54,-1.1519927871917306,-1.9220195037458625,-3.8792836921543676,-2.681227925178241,2.7714095359256867,-4.772028757434861,-11.258802487044631,-0.4234217158667675,-0.040588275,-0.948667005,-0.31787028,-11.58234,8.9271,-1.35814,71.0
1774822512.40951,0.01755666732788086,2026-03-29T22:15:12.409,2026-03-29T18:15:12.409,-34333.155,-46835.595,-84625.245,-49574.52,-12929.76,-18117.405,6579.179999999999,1793.1599999999999,-3.1073668532372998,-2.041144942302616,-3.5553748595664825,-7.842040020840617,-10.446796747596249,-11.431497774117975,-9.37467590065294,6.790581506611066,-0.040588275,-0.948667005,-0.31787028,-11.58234,8.9271,-1.35814,71.0
1774822512.4095376,2.765655517578125e-05,2026-03-29T22:15:12.409,2026-03-29T18:15:12.409,-34315.965,-46811.79,-84594.645,-49551.705,-12935.564999999999,-18116.28,6598.71,1797.3899999999999,-3.4291014146323002,-0.8901696335281486,-1.134899506794027,-8.84229710918942,-18.69198844889535,-12.519358123358387,-3.071517708477745,10.351340761493471,-0.040588275,-0.948667005,-0.31787028,-11.58234,8.9271,-1.35814,71.0
1774822512.4095592,2.1696090698242188e-05,2026-03-29T22:15:12.409,2026-03-29T18:15:12.409,-34304.715,-46790.729999999996,-84566.79,-49528.485,-12947.22,-18113.219999999998,6613.29,1795.725,-2.1080862376228753,0.819663168927714,2.0767416367401617,-5.417103404737252,-18.08694823277888,-7.610609988904269,4.811113620839391,8.541363906170032,-0.040588275,-0.948667005,-0.31787028,-11.58234,8.9271,-1.35814,71.0
1774822512.4095669,7.62939453125e-06,2026-03-29T22:15:12.409,2026-03-29T18:15:12.409,-34294.229999999996,-46785.78,-84567.42,-49537.979999999996,-12970.394999999999,-18126.719999999998,6587.91,1781.7749999999999,0.07890583145538421,2.0592650156486623,4.293830676249255,0.4857712664456076,-8.9786052356021,0.8183779263853909,10.583034191668451,2.4260880980946298,-0.040588275,-0.948667005,-0.31787028,-11.58234,8.9271,-1.35814,71.0
1774822512.4095757,8.821487426757812e-06,2026-03-29T22:15:12.409,2026-03-29T18:15:12.409,-34311.51,-46804.905,-84590.91,-49561.2,-12949.74,-18114.12,6541.11,1760.895,2.018535566516087,2.0811640829025126,4.2308920831695485,5.793032316890039,4.25848881045335,8.651716301155094,11.448784806950233,-4.742408527857965,-0.040588275,-0.948667005,-0.31787028,-11.58234,8.9271,-1.35814,71.0
1774822512.4095826,6.9141387939453125e-06,2026-03-29T22:15:12.409,2026-03-29T18:15:12.409,-34328.79,-46835.549999999996,-84626.50499999999,-49568.085,-12896.73,-18092.745,6603.884999999999,1746.1799999999998,2.8296976688008235,0.8487050730174133,1.8219866621210938,7.90070262952341,15.340924646686602,12.165105794748365,6.892599377815139,-9.241127995065343,-0.040588275,-0.948667005,-0.31787028,-11.58234,8.9271,-1.35814,71.0
1774822512.4095905,7.867813110351562e-06,2026-03-29T22:15:12.409,2026-03-29T18:15:12.409,-34322.67,-46835.549999999996,-84614.94,-49535.865,-12822.705,-18068.535,6626.5199999999995,1735.47,2.2603055863523105,-0.9442315856008624,-1.7148005355830103,5.950886812773534,19.08363575704081,9.814733711604315,-0.9966240504586966,-8.810850940134523,-0.03930654,-0.9489111450000001,-0.31835856,-11.18558,9.40016,-2.24322,71.0
1774822512.4095972,6.67572021484375e-06,2026-03-29T22:15:12.409,2026-03-29T18:15:12.409,-34312.5,-46817.865,-84597.48,-49533.21,-12855.195,-18080.73,6566.985,1730.79,0.7351660653289519,-2.2691084797401655,-4.509009839589085,1.164423000323515,13.844925579533257,2.9163144455293373,-8.46763436810708,-3.802685726538714,-0.03930654,-0.9489111450000001,-0.31835856,-11.18558,9.40016,-2.24322,71.0
1774822512.4096055,8.344650268554688e-06,2026-03-29T22:15:12.409,2026-03-29T18:15:12.409,-34301.159999999996,-46804.994999999995,-84587.985,-49529.43,-12859.47,-18059.579999999998,6572.5199999999995,1744.11,-0.9294550756926321,-2.3477796796884522,-5.032112178611366,-3.8897362411341883,2.2469206894433924,-5.084862918159582,-11.900226423304382,3.0517569703581464,-0.03930654,-0.9489111450000001,-0.31835856,-11.18558,9.40016,-2.24322,71.0
1774822512.4096115,5.9604644775390625e-06,2026-03-29T22:15:12.409,2026-03-29T18:15:12.409,-34313.49,-46813.68,-84595.59,-49540.95,-12876.705,-18062.145,6582.87,1752.21,-1.9642419258887591,-1.0968711950065786,-2.9243838925221284,-6.6642237805472435,-10.145465643782291,-10.35141959892353,-9.588587968971547,8.110834306609451,-0.03930654,-0.9489111450000001,-0.31835856,-11.18558,9.40016,-2.24322,71.0
1774822512.426203,0.016591548919677734,2026-03-29T22:15:12.426,2026-03-29T18:15:12.426,-34323.345,-46824.615,-84603.645,-49558.455,-12915.765,-18113.445,6593.94,1746.81,-2.002585967746698,0.8173106536228845,0.7892952526743479,-5.915572276061911,-17.51840811215449,-10.515873328698506,-2.6233875363405765,8.749611866519304,-0.03930654,-0.9489111450000001,-0.31835856,-11.18558,9.40016,-2.24322,71.0
1774822512.426225,2.193450927734375e-05,2026-03-29T22:15:12.426,2026-03-29T18:15:12.426,-34302.24,-46806.57,-84588.12,-49544.1,-12906.269999999999,-18111.51,6610.724999999999,1739.25,-1.1893047110575792,2.343780928976307,4.215310408866664,-2.2541329558336654,-16.561198793269458,-5.754035864725778,5.5977898501269525,4.725569378561021,-0.03930654,-0.9489111450000001,-0.31835856,-11.18558,9.40016,-2.24322,71.0
1774822512.426244,1.9073486328125e-05,2026-03-29T22:15:12.426,2026-03-29T18:15:12.426,-34309.619999999995,-46803.104999999996,-84577.995,-49526.549999999996,-12879.09,-18075.015,6610.365,1725.21,-0.02495537777852015,2.6286595942630866,5.5718565239198705,2.277622872523735,-7.962086113027301,1.4212872446439553,11.024841354066224,-1.730174069024405,-0.03930654,-0.9489111450000001,-0.31835856,-11.18558,9.40016,-2.24322,71.0
1774822512.4262514,7.3909759521484375e-06,2026-03-29T22:15:12.426,2026-03-29T18:15:12.426,-34320.869999999995,-46814.805,-84589.425,-49533.93,-12885.48,-18081.315,6592.41,1711.71,0.93435655125245,1.490926820311054,4.120687906820877,5.330009767649639,4.032820187488552,7.488546813834086,10.970222476021476,-7.131178688792798,-0.03930654,-0.9489111450000001,-0.31835856,-11.18558,9.40016,-2.24322,71.0
1774822512.42626,8.58306884765625e-06,2026-03-29T22:15:12.426,2026-03-29T18:15:12.426,-34315.155,-46813.95,-84588.84,-49537.935,-12895.605,-18094.094999999998,6583.86,1700.595,1.3456738653651295,-0.47136638088933547,0.5611657842084397,5.460926993558674,13.732321666808177,9.665225297536239,5.47332697891848,-8.60561804664618,-0.03930654,-0.9489111450000001,-0.31835856,-11.18558,9.40016,-2.24322,71.0
1774822512.426266,5.9604644775390625e-06,2026-03-29T22:15:12.426,2026-03-29T18:15:12.426,-34307.415,-46805.22,-84576.51,-49531.095,-12895.244999999999,-18096.344999999998,6591.0599999999995,1697.2649999999999,1.1855593523139134,-2.2035934977375415,-3.3206286135992826,2.814066346072742,16.726530631590386,7.199396381871664,-2.69287560179202,-5.419290324621512,-0.03930654,-0.9489111450000001,-0.31835856,-11.18558,9.40016,-2.24322,71.0
1774822512.426274,8.106231689453125e-06,2026-03-29T22:15:12.426,2026-03-29T18:15:12.426,-34309.215,-46808.189999999995,-84585.87,-49540.994999999995,-12905.01,-18108.719999999998,6559.2,1712.2949999999998,0.6724676323644173,-2.768815116990766,-5.565522972494624,-1.0566982904354039,11.908791442724784,1.5983581874480424,-9.40319925438281,0.6556300199448556,-0.03625479,-0.953061525,-0.31701579,-9.85796,11.506039999999999,-1.4039199999999998,71.0
1774822512.4262803,6.198883056640625e-06,2026-03-29T22:15:12.426,2026-03-29T18:15:12.426,-34326.63,-46834.424999999996,-84623.895,-49585.455,-12945.824999999999,-18140.67,6525.045,1725.2549999999999,0.08794732053363942,-1.8588906821563191,-5.043154566630344,-4.077279320605712,1.8577551930984133,-4.2549658660590515,-11.268394181249041,6.31383827688154,-0.03625479,-0.953061525,-0.31701579,-9.85796,11.506039999999999,-1.4039199999999998,71.0
1774822512.4345584,0.008278131484985352,2026-03-29T22:15:12.434,2026-03-29T18:15:12.434,-34324.74,-46812.104999999996,-84589.515,-49557.6,-12924.225,-18128.07,6506.865,1725.705,-0.3792279439949491,0.03720239701619976,-2.0246571817923997,-4.75711670611492,-8.536215015741513,-7.59401012530678,-7.370454429161757,8.503067419275004,-0.03625479,-0.953061525,-0.31701579,-9.85796,11.506039999999999,-1.4039199999999998,71.0
1774822512.4345791,2.0742416381835938e-05,2026-03-29T22:15:12.434,2026-03-29T18:15:12.434,-34307.145,-46822.095,-84618.22499999999,-49587.659999999996,-12960.494999999999,-18172.305,6465.105,1719.0,-0.679940460824632,1.8992221168872359,1.9650657875561781,-2.922771640409937,-14.47176190752287,-7.093737530063402,0.2537773593365372,6.062540527528816,-0.03625479,-0.953061525,-0.31701579,-9.85796,11.506039999999999,-1.4039199999999998,71.0
1774822512.4345968,1.7642974853515625e-05,2026-03-29T22:15:12.434,2026-03-29T18:15:12.434,-34300.17,-46810.89,-84592.215,-49540.229999999996,-12896.64,-18092.52,6539.94,1707.705,-0.8417369860600726,2.7296553298780375,4.932008947319863,0.27845510465144,-13.47644972738199,-3.386395258925518,7.648582547692689,0.3364674986339447,-0.03625479,-0.953061525,-0.31701579,-9.85796,11.506039999999999,-1.4039199999999998,71.0
1774822512.4346044,7.62939453125e-06,2026-03-29T22:15:12.434,2026-03-29T18:15:12.434,-34314.165,-46788.255,-84535.92,-49475.835,-12820.545,-18000.719999999998,6665.985,1689.705,-0.8696573509420441,2.0932676350288353,5.4247743677920495,3.0647897235865647,-6.430557564916122,1.4270263760883948,10.978646843299002,-5.5620429980073745,-0.03625479,-0.953061525,-0.31701579,-9.85796,11.506039999999999,-1.4039199999999998,71.0
1774822512.44209,0.007485628128051758,2026-03-29T22:15:12.442,2026-03-29T18:15:12.442,-34321.994999999995,-46809.54,-84563.055,-49514.759999999995,-12870.269999999999,-18062.055,6619.679999999999,1673.9099999999999,-0.701664598704435,0.34892139310712056,3.2536859388033577,3.9974751405100304,3.045865612704289,4.946596400731736,8.524209022050426,-8.436203646928865,-0.03625479,-0.953061525,-0.31701579,-9.85796,11.506039999999999,-1.4039199999999998,71.0
1774822512.442106,1.5974044799804688e-05,2026-03-29T22:15:12.442,2026-03-29T18:15:12.442,-34303.005,-46802.43,-84569.715,-49530.42,-12902.535,-18114.75,6552.405,1674.3149999999998,-0.261152035654836,-1.5505704268952925,-0.4425314134685048,2.719193271778927,10.45758401826876,5.681519530063781,1.5905140668203053,-6.7308004740953,-0.03625479,-0.953061525,-0.31701579,-9.85796,11.506039999999999,-1.4039199999999998,71.0
1774822512.459826,0.01771998405456543,2026-03-29T22:15:12.459,2026-03-29T18:15:12.459,-34317.854999999996,-46822.59,-84599.415,-49543.965,-12905.279999999999,-18106.29,6599.384999999999,1686.735,0.43011733500514693,-2.579124025727173,-3.8010821436560644,0.07671361459936395,12.588215037429476,3.6835995735158016,-6.158238742827034,-1.3688159087378913,-0.03625479,-0.953061525,-0.31701579,-9.85796,11.506039999999999,-1.4039199999999998,71.0
1774822512.4598458,1.9788742065429688e-05,2026-03-29T22:15:12.459,2026-03-29T18:15:12.459,-34315.515,-46824.57,-84602.52,-49538.205,-12875.22,-18056.925,6655.634999999999,1699.965,1.1707222494954892,-2.1936804528458183,-5.186442896447892,-2.404263344008479,8.901704527871159,0.3362303467027371,-10.611074234682706,4.749639242640378,-0.03625479,-0.953061525,-0.31701579,-9.85796,11.506039999999999,-1.4039199999999998,71.0
1774822512.4598632,1.7404556274414062e-05,2026-03-29T22:15:12.459,2026-03-29T18:15:12.459,-34314.119999999995,-46819.89,-84590.415,-49530.689999999995,-12872.925,-18059.895,6628.365,1700.145,1.6140202478540018,-0.6238638020109698,-3.9972891732006146,-3.378893663201525,1.5779384829000018,-2.5127391959526144,-9.378484104790285,8.314465157712801,-0.03674307,-0.9562963800000001,-0.31664958,-6.4397199999999994,12.86418,-2.7010199999999998,71.0
1774822512.45987,6.9141387939453125e-06,2026-03-29T22:15:12.459,2026-03-29T18:15:12.459,-34312.455,-46807.064999999995,-84571.155,-49520.34,-12872.025,-18065.295,6605.55,1697.6699999999998,1.431573297895244,1.2601610016316855,-0.9264578274325485,-2.401285412775982,-5.732450407064686,-3.55949423360496,-3.0761946838173446,7.393131290343788,-0.03674307,-0.9562963800000001,-0.31664958,-6.4397199999999994,12.86418,-2.7010199999999998,71.0
1774822512.459878,7.867813110351562e-06,2026-03-29T22:15:12.459,2026-03-29T18:15:12.459,-34308.9,-46794.869999999995,-84558.51,-49517.145,-12873.375,-18061.829999999998,6577.695,1687.6799999999998,0.5273273029144491,2.4265103867826414,2.437005295633843,-0.12208088856738428,-9.739106012102319,-2.6484214507815667,4.966895031888547,2.4745937530882256,-0.03674307,-0.9562963800000001,-0.31664958,-6.4397199999999994,12.86418,-2.7010199999999998,71.0
1774822512.4598844,6.4373016357421875e-06,2026-03-29T22:15:12.459,2026-03-29T18:15:12.459,-34330.365,-46813.814999999995,-84572.055,-49530.465,-12911.58,-18079.29,6559.335,1663.83,-0.8289066358700519,2.244291729313937,4.436862132310917,2.1179000723364574,-9.005529517141865,-0.6887015820970914,10.445265926284247,-3.7934170433085406,-0.03674307,-0.9562963800000001,-0.31664958,-6.4397199999999994,12.86418,-2.7010199999999998,71.0
1774822512.4598916,7.152557373046875e-06,2026-03-29T22:15:12.459,2026-03-29T18:15:12.459,-34315.02,-46818.045,-84583.935,-49549.725,-12967.425,-18110.204999999998,6594.57,1642.635,-2.0553205372698526,0.823938196149868,4.173862205582407,3.0534060436858006,-4.421355757234379,1.0032552256001495,10.358958641069027,-8.032110563012013,-0.03674307,-0.9562963800000001,-0.31664958,-6.4397199999999994,12.86418,-2.7010199999999998,71.0
1774822512.4598975,5.9604644775390625e-06,2026-03-29T22:15:12.459,2026-03-29T18:15:12.459,-34296.975,-46810.665,-84584.16,-49553.369999999995,-12926.88,-18102.51,6617.295,1635.57,-2.5087961571635695,-1.0479726678446109,1.9109749646098773,2.191059234370253,1.4752216822222353,1.5145385751381186,4.63805743141402,-7.954272407306367,-0.03674307,-0.9562963800000001,-0.31664958,-6.4397199999999994,12.86418,-2.7010199999999998,71.0
1774822512.459905,7.3909759521484375e-06,2026-03-29T22:15:12.459,2026-03-29T18:15:12.459,-34326.315,-46837.89,-84616.515,-49558.005,-12855.42,-18082.844999999998,6586.92,1646.145,-1.8234263921800296,-2.3410920374800774,-1.1227338188847638,0.060026610527146,5.881270121961304,0.8241008544650582,-3.7652498400693744,-3.5984510533824445,-0.03674307,-0.9562963800000001,-0.31664958,-6.4397199999999994,12.86418,-2.7010199999999998,71.0
1774822512.4599116,6.67572021484375e-06,2026-03-29T22:15:12.459,2026-03-29T18:15:12.459,-34323.39,-46829.475,-84607.83,-49553.775,-12885.75,-18098.325,6561.134999999999,1654.335,-0.1575112249243533,-2.343696437107614,-3.3985663373856756,-2.105991857878445,7.072996630244927,-0.2907800886043767,-10.393094954366957,2.6914330496340604,-0.03674307,-0.9562963800000001,-0.31664958,-6.4397199999999994,12.86418,-2.7010199999999998,71.0
1774822512.4680252,0.008113622665405273,2026-03-29T22:15:12.468,2026-03-29T18:15:12.468,-34327.44,-46830.555,-84607.785,-49564.979999999996,-12913.515,-18114.075,6507.495,1661.22,1.8049474275192416,-1.049268117448374,-3.8633134866952052,-3.0670400185234445,5.060090557428197,-0.8362404507336518,-11.629849055918356,7.5302281198594665,-0.03674307,-0.9562963800000001,-0.31664958,-6.4397199999999994,12.86418,-2.7010199999999998,71.0
1774822512.4680505,2.5272369384765625e-05,2026-03-29T22:15:12.468,2026-03-29T18:15:12.468,-34316.01,-46816.83,-84593.43,-49559.445,-12922.38,-18117.18,6452.955,1664.46,3.134915306565013,0.8411085603037777,-2.427341221397575,-2.2659918381354047,1.3139876798730226,-0.2931956128612018,-6.649154688928893,8.317163058358066,-0.03674307,-0.9562963800000001,-0.31664958,-6.4397199999999994,12.86418,-2.7010199999999998,71.0
1774822512.4680738,2.3365020751953125e-05,2026-03-29T22:15:12.468,2026-03-29T18:15:12.468,-34308.494999999995,-46810.755,-84589.47,-49547.79,-12937.904999999999,-18111.465,6531.929999999999,1666.1699999999998,3.105886767837725,2.2996055248985474,0.06066687722021907,-0.1329888430815173,-2.175025280721722,1.0153617997682638,2.081465228645369,4.637359837526056,-0.035949615,-0.944272485,-0.31603923,-12.65054,13.093079999999999,-4.63904,71.0
1774822512.468084,1.0251998901367188e-05,2026-03-29T22:15:12.468,2026-03-29T18:15:12.468,-34315.155,-46813.455,-84587.94,-49545.045,-12941.865,-18104.715,6639.57,1658.97,1.58864687987939,2.527910910947204,2.3043686304858686,2.1544689590701176,-3.946699265678538,2.112613276982206,10.03338899211027,-1.5173175434852517,-0.035949615,-0.944272485,-0.31603923,-12.65054,13.093079999999999,-4.63904,71.0
1774822512.4918776,0.023793458938598633,2026-03-29T22:15:12.491,2026-03-29T18:15:12.491,-34329.555,-46824.57,-84596.31,-49552.515,-12913.695,-18105.48,6648.21,1649.385,-0.8209620518566558,1.3881159554006262,3.2357787299936547,3.3185599557662333,-3.675955954241042,2.003670750567344,12.96681788154744,-6.826717386156176,-0.035949615,-0.944272485,-0.31603923,-12.65054,13.093079999999999,-4.63904,71.0
1774822512.4919057,2.8133392333984375e-05,2026-03-29T22:15:12.491,2026-03-29T18:15:12.491,-34324.155,-46820.295,-84589.47,-49540.814999999995,-12859.695,-18063.989999999998,6630.929999999999,1640.7,-3.033680041997896,-0.5226554482743652,2.5230692556679246,2.6807480758268465,-2.087085147901069,0.3725131113396374,9.176207878702485,-8.436575009852467,-0.035949615,-0.944272485,-0.31603923,-12.65054,13.093079999999999,-4.63904,71.0
1774822512.491934,2.8371810913085938e-05,2026-03-29T22:15:12.491,2026-03-29T18:15:12.491,-34318.125,-46827.0,-84600.405,-49544.595,-12915.72,-18096.93,6605.009999999999,1648.71,-3.969061165336711,-2.191565036630643,0.6687252162376411,0.5359680479618486,-0.3313137711538725,-2.0990522688408437,0.44503948579935776,-5.498067993265545,-0.035949615,-0.944272485,-0.31603923,-12.65054,13.093079999999999,-4.63904,71.0
1774822512.4919455,1.1444091796875e-05,2026-03-29T22:15:12.491,2026-03-29T18:15:12.491,-34312.59,-46816.02,-84590.73,-49548.465,-12938.445,-18109.35,6600.195,1666.935,-3.091687545474836,-2.729811685240097,-1.3164016377993684,-1.99767646757155,0.7442162142784028,-4.0209025648086225,-8.814044174646886,0.37942377825529155,-0.035949615,-0.944272485,-0.31603923,-12.65054,13.093079999999999,-4.63904,71.0
1774822512.4919593,1.3828277587890625e-05,2026-03-29T22:15:12.491,2026-03-29T18:15:12.491,-34315.604999999996,-46815.255,-84585.915,-49539.555,-12900.779999999999,-18084.915,6601.7699999999995,1680.84,-0.7109750483975297,-1.8435189790614552,-2.461267835642077,-3.5706389371126304,1.001589738227585,-4.067324490914677,-13.810688823973887,6.005938504414333,-0.035949615,-0.944272485,-0.31603923,-12.65054,13.093079999999999,-4.63904,71.0
1774822512.49197,1.0728836059570312e-05,2026-03-29T22:15:12.491,2026-03-29T18:15:12.491,-34310.97,-46812.6,-84579.165,-49524.795,-12848.13,-18055.44,6589.304999999999,1684.71,2.1211981991016087,0.01339756626726911,-2.3083128579669436,-3.318271352374441,0.8989671649094558,-1.807285737499906,-11.861247723725768,8.342018091595135,-0.035949615,-0.944272485,-0.31603923,-12.65054,13.093079999999999,-4.63904,71.0
1774822512.4919837,1.3589859008789062e-05,2026-03-29T22:15:12.491,2026-03-29T18:15:12.491,-34295.265,-46796.445,-84559.31999999999,-49512.645,-12868.92,-18068.985,6580.035,1680.615,4.085206672788072,1.8814406553771144,-1.081658405772378,-1.322256970457367,0.9997280620103449,1.901019189519164,-3.8127523379145427,6.144253783636986,-0.035949615,-0.944272485,-0.31603923,-12.65054,13.093079999999999,-4.63904,71.0
1774822512.491994,1.0251998901367188e-05,2026-03-29T22:15:12.491,2026-03-29T18:15:12.491,-34311.195,-46816.38,-84591.18,-49545.0,-12930.435,-18112.545,6567.66,1678.6799999999998,4.22145469077366,2.7998203358033895,0.5026417025855021,1.4242630162345686,1.4680106041506906,5.228557250623905,6.345257281702577,0.6332621031260126,-0.035949615,-0.944272485,-0.31603923,-12.65054,13.093079999999999,-4.63904,71.0
1774822512.492006,1.2159347534179688e-05,2026-03-29T22:15:12.492,2026-03-29T18:15:12.492,-34335.945,-46850.04,-84633.075,-49589.505,-12990.51,-18160.38,6546.33,1662.03,2.4063075932772517,2.304151711815007,1.6485197303481784,3.5266700279874037,1.9015425823701435,6.293011643425721,13.494439322547212,-5.177057520258152,-0.03027336,-0.945859395,-0.315856125,-14.5733,13.93238,-3.9676,71.0
1774822512.492016,1.0013580322265625e-05,2026-03-29T22:15:12.492,2026-03-29T18:15:12.492,-34329.015,-46831.32,-84604.545,-49559.58,-12950.324999999999,-18128.88,6577.245,1653.885,-0.5632804883859971,0.6578838748106981,1.8794362257246742,3.905510166702004,1.6194430663266235,4.208831696992546,13.995093841446687,-8.1231181474154,-0.03027336,-0.945859395,-0.315856125,-14.5733,13.93238,-3.9676,71.0
1774822512.4920282,1.2159347534179688e-05,2026-03-29T22:15:12.492,2026-03-29T18:15:12.492,-34319.205,-46813.5,-84576.51,-49522.68,-12849.119999999999,-18060.39,6588.36,1655.55,-3.328369570854491,-1.296807539698169,1.2247738477046857,2.347964315482235,0.2167024111428874,-0.3098991031301472,7.545499012340276,-6.613712236158789,-0.03027336,-0.945859395,-0.315856125,-14.5733,13.93238,-3.9676,71.0
1774822512.4920385,1.0251998901367188e-05,2026-03-29T22:15:12.492,2026-03-29T18:15:12.492,-34341.255,-46840.59,-84608.55,-49555.305,-12893.22,-18099.225,6541.38,1665.27,-4.604157486251045,-2.5814621993684237,0.1272094640557716,-0.38672530687591666,-1.9921890555771042,-5.169042878672307,-2.661804205438961,-1.4935249462939866,-0.03027336,-0.945859395,-0.315856125,-14.5733,13.93238,-3.9676,71.0
1774822512.5012362,0.009197711944580078,2026-03-29T22:15:12.501,2026-03-29T18:15:12.501,-34354.619999999995,-46854.765,-84630.23999999999,-49588.74,-12944.925,-18135.09,6466.634999999999,1673.73,-3.789013077183136,-2.5801007747011293,-0.841261063040716,-2.955050039137231,-3.9707891815816714,-7.885032746538346,-11.561099815321944,4.421929137456001,-0.03027336,-0.945859395,-0.315856125,-14.5733,13.93238,-3.9676,71.0
1774822512.5012605,2.4318695068359375e-05,2026-03-29T22:15:12.501,2026-03-29T18:15:12.501,-34334.415,-46820.205,-84590.01,-49561.38,-12933.494999999999,-18139.77,6454.575,1675.485,-1.252014171490277,-1.3362049560911915,-1.2790953611397256,-4.104999486784657,-4.4675810524967146,-6.868994268531771,-14.772313500581145,7.886633513577911,-0.03027336,-0.945859395,-0.315856125,-14.5733,13.93238,-3.9676,71.0
1774822512.5012836,2.3126602172851562e-05,2026-03-29T22:15:12.501,2026-03-29T18:15:12.501,-34296.84,-46791.45,-84560.355,-49524.21,-12896.955,-18099.225,6548.804999999999,1674.81,1.8402337752588747,0.4960868789423153,-1.1129785699550259,-3.2934129281023843,-2.7754702792613406,-2.3347514091716612,-10.785315988578306,6.999965576090103,-0.03027336,-0.945859395,-0.315856125,-14.5733,13.93238,-3.9676,71.0
1774822512.5012937,1.0013580322265625e-05,2026-03-29T22:15:12.501,2026-03-29T18:15:12.501,-34288.47,-46773.674999999996,-84532.23,-49484.744999999995,-12840.029999999999,-18027.899999999998,6670.8,1667.5649999999998,4.073312482149176,2.006262603405527,-0.5568620024442753,-0.937489321737043,0.7041827812223453,3.6796866507540638,-1.6664563617203318,2.2486755741571276,-0.03027336,-0.945859395,-0.315856125,-14.5733,13.93238,-3.9676,71.0
1774822512.5094655,0.008171796798706055,2026-03-29T22:15:12.509,2026-03-29T18:15:12.509,-34295.67,-46789.74,-84555.27,-49511.475,-12867.119999999999,-18048.465,6696.36,1650.375,4.445955217161876,2.491781828836641,0.06647703539921997,1.8137080225690112,4.47345433691639,8.244916482691941,8.042928010767058,-3.755910974028272,-0.03027336,-0.945859395,-0.315856125,-14.5733,13.93238,-3.9676,71.0
1774822512.509488,2.2649765014648438e-05,2026-03-29T22:15:12.509,2026-03-29T18:15:12.509,-34324.29,-46831.455,-84604.815,-49559.04,-12910.859999999999,-18086.309999999998,6635.384999999999,1631.7,2.826819276194296,1.7908762510262572,0.5140516756768454,3.6580248585015838,6.601387937460488,8.992671671214925,13.638439571504769,-7.705142951590971,-0.03027336,-0.945859395,-0.315856125,-14.5733,13.93238,-3.9676,71.0
1774822512.5095084,2.0265579223632812e-05,2026-03-29T22:15:12.509,2026-03-29T18:15:12.509,-34331.715,-46842.705,-84614.12999999999,-49565.115,-12915.765,-18087.704999999998,6600.24,1623.4199999999998,-0.00494331365486804,0.32360617423812776,0.7118025894648177,3.770467575861443,5.736184414430388,5.357083546520351,12.577002706580254,-7.407581493846544,-0.02416986,-0.95605224,-0.315856125,-7.9352,16.52658,-4.25754,71.0
1774822512.5095148,6.4373016357421875e-06,2026-03-29T22:15:12.509,2026-03-29T18:15:12.509,-34327.44,-46832.445,-84602.745,-49553.865,-12908.43,-18089.19,6589.98,1638.09,-2.74383790287718,-1.1594547585007557,0.7153459889214081,2.174016960855362,1.926905034218434,-1.0504990340337008,5.6447278257954405,-2.998917300707836,-0.02416986,-0.95605224,-0.315856125,-7.9352,16.52658,-4.25754,71.0
1774822512.5347135,0.025198698043823242,2026-03-29T22:15:12.534,2026-03-29T18:15:12.534,-34324.47,-46826.505,-84596.535,-49548.24,-12904.064999999999,-18090.0,6586.0199999999995,1652.6699999999998,-4.173367882981368,-1.9717896333359795,0.6007935629408768,-0.31630568681376503,-3.2304941597519936,-7.165059545255577,-3.5745402392874053,3.1183791940615313,-0.02416986,-0.95605224,-0.315856125,-7.9352,16.52658,-4.25754,71.0
1774822512.5347483,3.4809112548828125e-05,2026-03-29T22:15:12.534,2026-03-29T18:15:12.534,-34326.765,-46828.305,-84598.425,-49550.22,-12905.55,-18093.96,6573.78,1661.76,-3.7163257999334127,-1.8175235205711493,0.3823708433437636,-2.5242015853444224,-7.273325347518163,-9.960750033042396,-10.590908571962112,7.579757266005633,-0.02416986,-0.95605224,-0.315856125,-7.9352,16.52658,-4.25754,71.0
1774822512.5347753,2.6941299438476562e-05,2026-03-29T22:15:12.534,2026-03-29T18:15:12.534,-34320.555,-46821.689999999995,-84591.765,-49551.84,-12911.22,-18099.09,6543.45,1661.1299999999999,-1.6665295786040637,-0.89105317698872,0.02180995798332313,-3.4851417633396906,-8.083118692625735,-7.974449079727549,-12.247390968771978,7.900685282935599,-0.02416986,-0.95605224,-0.315856125,-7.9352,16.52658,-4.25754,71.0
1774822512.5347862,1.0967254638671875e-05,2026-03-29T22:15:12.534,2026-03-29T18:15:12.534,-34310.159999999996,-46812.509999999995,-84588.525,-49559.445,-12934.17,-18114.614999999998,6512.085,1653.615,0.9899214560967742,0.27818813134229564,-0.48206730542261106,-2.8754439134626484,-5.016891480863381,-2.082234534188511,-8.1668955411139,3.85066363136743,-0.02416986,-0.95605224,-0.315856125,-7.9352,16.52658,-4.25754,71.0
1774822512.5348,1.3828277587890625e-05,2026-03-29T22:15:12.534,2026-03-29T18:15:12.534,-34324.02,-46827.494999999995,-84606.075,-49585.365,-12986.055,-18129.195,6547.86,1639.935,3.058587751797635,1.129058158706875,-1.0026814207749546,-1.1031011253150909,0.6528734074085425,4.88694161175776,-0.731123098033308,-2.3971584487246496,-0.02416986,-0.95605224,-0.315856125,-7.9352,16.52658,-4.25754,71.0
1774822512.5348098,9.775161743164062e-06,2026-03-29T22:15:12.534,2026-03-29T18:15:12.534,-34329.78,-46818.18,-84584.11499999999,-49553.729999999996,-12940.92,-18102.42,6598.304999999999,1629.99,3.684134550767633,1.3469492322061947,-1.2839405781587694,0.9525672826434718,6.269182816048811,9.530299920519079,6.299490937287547,-7.432909697283646,-0.02416986,-0.95605224,-0.315856125,-7.9352,16.52658,-4.25754,71.0
1774822512.5348227,1.2874603271484375e-05,2026-03-29T22:15:12.534,2026-03-29T18:15:12.534,-34335.405,-46828.439999999995,-84591.36,-49536.765,-12877.65,-18088.559999999998,6596.6849999999995,1623.5549999999998,2.70571867290549,0.9756662538064148,-1.0610764934882426,2.392612499779952,9.06992272363953,9.561754696314487,9.73194734464703,-8.46641229581288,-0.02416986,-0.95605224,-0.315856125,-7.9352,16.52658,-4.25754,71.0
1774822512.5348325,9.775161743164062e-06,2026-03-29T22:15:12.534,2026-03-29T18:15:12.534,-34311.465,-46810.125,-84574.98,-49513.86,-12854.744999999999,-18072.54,6602.985,1629.1799999999998,0.6722392673711032,0.32641832637280616,-0.2483495679709184,2.7040817215601956,7.584486819304381,4.961874756518528,8.428155428503246,-4.863987870702092,-0.02416986,-0.95605224,-0.315856125,-7.9352,16.52658,-4.25754,71.0
1774822512.534845,1.2636184692382812e-05,2026-03-29T22:15:12.534,2026-03-29T18:15:12.534,-34307.055,-46799.775,-84568.23,-49523.22,-12884.894999999999,-18083.475,6592.724999999999,1644.75,-1.4614864238742182,-0.23832503626339077,0.925956357448593,1.9310009513322393,2.4256326346046664,-2.001091163280468,3.6233501282253795,1.477504065686242,-0.0195312,-0.95287842,-0.317076825,-5.63094,19.807479999999998,-5.2646999999999995,71.0
1774822512.534855,9.775161743164062e-06,2026-03-29T22:15:12.534,2026-03-29T18:15:12.534,-34309.89,-46792.71,-84550.14,-49522.229999999996,-12896.775,-18096.524999999998,6562.44,1661.985,-2.790969308205191,-0.5085079157991212,1.9483903112125425,0.560964950211881,-3.9567172008030407,-7.898888142507633,-1.9732597806154886,7.1352066207989235,-0.0195312,-0.95287842,-0.317076825,-5.63094,19.807479999999998,-5.2646999999999995,71.0
1774822512.5348675,1.2636184692382812e-05,2026-03-29T22:15:12.534,2026-03-29T18:15:12.534,-34319.924999999996,-46800.225,-84549.23999999999,-49529.52,-12919.32,-18121.725,6531.344999999999,1669.4099999999999,-2.849337542301552,-0.5036362546087689,2.2391792590150517,-0.7739065603722909,-8.464996796476425,-9.854888074727771,-5.707979019528738,9.00909566729017,-0.0195312,-0.95287842,-0.317076825,-5.63094,19.807479999999998,-5.2646999999999995,71.0
1774822512.5348775,1.0013580322265625e-05,2026-03-29T22:15:12.534,2026-03-29T18:15:12.534,-34330.049999999996,-46825.56,-84584.565,-49564.125,-12982.949999999999,-18150.57,6546.0599999999995,1668.4199999999998,-1.7583916634457835,-0.3962602076748056,1.469911108831886,-1.603236496213328,-8.897840134704035,-6.975106325347383,-6.280613542605094,6.0157942239457,-0.0195312,-0.95287842,-0.317076825,-5.63094,19.807479999999998,-5.2646999999999995,71.0
1774822512.53489,1.239776611328125e-05,2026-03-29T22:15:12.534,2026-03-29T18:15:12.534,-34334.685,-46859.715,-84644.37,-49587.93,-12991.68,-18126.675,6590.969999999999,1663.605,-0.10296270709542818,-0.3500274018079643,-0.19116613517309375,-1.777711695516396,-5.061547321208741,-0.7750995307104592,-4.159007411058064,-0.29649490294225783,-0.0195312,-0.95287842,-0.317076825,-5.63094,19.807479999999998,-5.2646999999999995,71.0
1774822512.5349004,1.049041748046875e-05,2026-03-29T22:15:12.534,2026-03-29T18:15:12.534,-34330.049999999996,-46845.54,-84617.28,-49546.979999999996,-12904.244999999999,-18082.26,6609.509999999999,1650.96,1.380178927368982,-0.3877594155122998,-2.0657941141673155,-1.4311830721787635,1.1272263915787042,5.609142285645691,-1.0024122671418174,-6.556983538259509,-0.0195312,-0.95287842,-0.317076825,-5.63094,19.807479999999998,-5.2646999999999995,71.0
1774822512.5432954,0.008394956588745117,2026-03-29T22:15:12.543,2026-03-29T18:15:12.543,-34325.19,-46828.395,-84595.59,-49539.869999999995,-12858.885,-18060.614999999998,6585.344999999999,1636.47,2.134350204087588,-0.3783791461145858,-3.235140280021816,-0.8127959616979209,6.608703369942951,9.018097460392612,1.4589133290979672,-9.3792479025342,-0.0195312,-0.95287842,-0.317076825,-5.63094,19.807479999999998,-5.2646999999999995,71.0
1774822512.543324,2.86102294921875e-05,2026-03-29T22:15:12.543,2026-03-29T18:15:12.543,-34319.25,-46820.384999999995,-84585.015,-49533.345,-12869.234999999999,-18066.015,6574.365,1633.185,1.9847522935766457,-0.15001896246101384,-2.988579506605259,-0.11930273971479784,8.724749709523532,7.855510600532713,2.3845658714462075,-7.194691273517479,-0.0195312,-0.95287842,-0.317076825,-5.63094,19.807479999999998,-5.2646999999999995,71.0
1774822512.5509913,0.0076673030853271484,2026-03-29T22:15:12.550,2026-03-29T18:15:12.550,-34323.165,-46830.195,-84601.17,-49554.765,-12914.369999999999,-18108.54,6520.995,1644.48,1.141557969150882,0.34853446153008305,-1.2320796545617907,0.5656996668062457,6.54782601748111,2.858527983459285,2.0891303390446794,-1.1189969358145702,-0.0195312,-0.95287842,-0.317076825,-5.63094,19.807479999999998,-5.2646999999999995,71.0
1774822512.5510204,2.9087066650390625e-05,2026-03-29T22:15:12.551,2026-03-29T18:15:12.551,-34328.744999999995,-46839.24,-84615.03,-49577.49,-12952.574999999999,-18159.524999999998,6445.485,1653.345,0.038618576514963796,0.9520539179147144,1.3714497557127254,1.2073202416672917,1.3128125993601496,-3.3301039490819972,1.5417738266990242,5.625238960592067,-0.0195312,-0.95287842,-0.317076825,-5.63094,19.807479999999998,-5.2646999999999995,71.0
1774822512.5510435,2.3126602172851562e-05,2026-03-29T22:15:12.551,2026-03-29T18:15:12.551,-34325.325,-46821.195,-84584.655,-49551.255,-12936.285,-18140.895,6512.985,1653.7949999999998,-0.8878776231891711,1.3267421094230725,3.6406582722050342,1.7053457494600737,-4.261409035414809,-7.550996139934274,1.5057002217656215,9.427988128099654,-0.01269528,-0.95031495,-0.320128575,-8.14884,22.233819999999998,-5.55464,71.0
1774822512.5510535,1.0013580322265625e-05,2026-03-29T22:15:12.551,2026-03-29T18:15:12.551,-34329.24,-46815.03,-84563.01,-49524.659999999996,-12921.705,-18091.305,6626.16,1646.55,-1.3687817301740983,1.1516946636372105,4.413729307911288,1.8443693230812623,-7.395116793733319,-7.750870630623571,1.9232910843750233,8.231914352688534,-0.01269528,-0.95031495,-0.320128575,-8.14884,22.233819999999998,-5.55464,71.0
1774822512.5510657,1.2159347534179688e-05,2026-03-29T22:15:12.551,2026-03-29T18:15:12.551,-34321.005,-46820.25,-84579.03,-49539.689999999995,-12937.814999999999,-18095.76,6600.014999999999,1636.2,-1.355935673581372,0.3356202770803974,3.1390048452128765,1.3783232944653072,-6.666108861914475,-4.001395593749545,1.9665887632063181,2.6472869129018255,-0.01269528,-0.95031495,-0.320128575,-8.14884,22.233819999999998,-5.55464,71.0
1774822512.5510745,8.821487426757812e-06,2026-03-29T22:15:12.551,2026-03-29T18:15:12.551,-34333.74,-46830.555,-84595.815,-49565.97,-12945.195,-18116.28,6563.5199999999995,1619.235,-0.967942464527557,-0.8642442677830607,0.2185622559053334,0.22050596756029187,-2.686395510569472,1.599671945398527,0.7222311913391504,-4.36347027499192,-0.01269528,-0.95031495,-0.320128575,-8.14884,22.233819999999998,-5.55464,71.0
1774822512.5582893,0.007214784622192383,2026-03-29T22:15:12.558,2026-03-29T18:15:12.558,-34302.24,-46796.445,-84559.23,-49529.115,-12866.265,-18059.489999999998,6596.505,1605.195,-0.38717681264984316,-1.9109298035552422,-3.095462634899927,-1.381555230348724,2.298946728238851,6.072476289626743,-1.95377362181947,-9.067109210524624,-0.01269528,-0.95031495,-0.320128575,-8.14884,22.233819999999998,-5.55464,71.0
1774822512.558306,1.6689300537109375e-05,2026-03-29T22:15:12.558,2026-03-29T18:15:12.558,-34304.895,-46798.784999999996,-84554.50499999999,-49517.189999999995,-12867.48,-18049.59,6601.32,1601.28,0.22361753375136637,-2.233171172881542,-5.2401834159347755,-2.828507644212169,5.653228174839077,7.130119227837034,-5.020590725295677,-8.95887937817426,-0.01269528,-0.95031495,-0.320128575,-8.14884,22.233819999999998,-5.55464,71.0
1774822512.55832,1.4066696166992188e-05,2026-03-29T22:15:12.558,2026-03-29T18:15:12.558,-34334.595,-46833.03,-84591.98999999999,-49544.909999999996,-12899.34,-18072.09,6556.41,1618.02,0.7484417055600883,-1.532136462767518,-5.0827329923735425,-3.3783314954777985,5.752086621525907,4.355613005779603,-6.640561399920294,-4.104606194355717,-0.01269528,-0.95031495,-0.320128575,-8.14884,22.233819999999998,-5.55464,71.0
1774822512.558326,5.9604644775390625e-06,2026-03-29T22:15:12.558,2026-03-29T18:15:12.558,-34325.595,-46828.575,-84592.845,-49546.845,-12917.385,-18069.434999999998,6536.025,1635.435,1.0990473474597677,0.014127237231362293,-2.508770788320121,-2.51815545965416,2.7989164745660093,-0.6280507655390963,-5.235326156721669,2.8970100567680617,-0.01269528,-0.95031495,-0.320128575,-8.14884,22.233819999999998,-5.55464,71.0
1774822512.570423,0.012096881866455078,2026-03-29T22:15:12.570,2026-03-29T18:15:12.570,-34332.255,-46840.814999999995,-84612.78,-49575.375,-12973.59,-18119.114999999998,6547.32,1644.57,1.191077874200032,1.7731773669992157,1.4440095695130963,-0.31506541462797316,-1.3694300377497532,-5.067005108797771,-0.6171640739494711,8.311298774698857,-0.01269528,-0.95031495,-0.320128575,-8.14884,22.233819999999998,-5.55464,71.0
1774822512.5704525,2.956390380859375e-05,2026-03-29T22:15:12.570,2026-03-29T18:15:12.570,-34327.89,-46838.564999999995,-84608.45999999999,-49569.39,-12967.154999999999,-18131.265,6611.085,1648.935,0.9537048747606439,2.9216069749406213,5.004206089998077,2.4673396252931794,-4.355944222555958,-6.568476202583581,5.526429767924503,9.270797971973606,-0.01269528,-0.95031495,-0.320128575,-8.14884,22.233819999999998,-5.55464,71.0
1774822512.583283,0.012830495834350586,2026-03-29T22:15:12.583,2026-03-29T18:15:12.583,-34311.645,-46808.235,-84567.555,-49529.43,-12917.654999999999,-18104.04,6624.405,1645.56,0.37884928992248373,2.8364742304449657,6.467618426952298,4.607451526077104,-4.550555417851462,-4.377443557691871,10.211656795317403,5.305965888589797,-0.008422830000000001,-0.95080323,-0.324645165,-6.653359999999999,24.52282,-6.50076,71.0
1774822512.5833125,2.956390380859375e-05,2026-03-29T22:15:12.583,2026-03-29T18:15:12.583,-34326.72,-46822.994999999995,-84582.315,-49536.72,-12922.83,-18103.14,6599.295,1631.2949999999998,-0.42242469650142944,1.425289011982332,5.014591958751396,4.960928059212945,-2.0052901584729335,0.2384778967812579,10.624635093575202,-1.418560512989541,-0.008422830000000001,-0.95080323,-0.324645165,-6.653359999999999,24.52282,-6.50076,71.0
1774822512.583336,2.3603439331054688e-05,2026-03-29T22:15:12.583,2026-03-29T18:15:12.583,-34335.045,-46850.445,-84619.305,-49552.424999999996,-12874.68,-18076.05,6571.844999999999,1613.25,-1.2066043245699976,-0.7778571553696698,1.15041588853814,3.0585044560237082,1.640116648267322,4.693942064914979,5.745385574218336,-7.284040244768798,-0.008422830000000001,-0.95080323,-0.324645165,-6.653359999999999,24.52282,-6.50076,71.0
1774822512.5833464,1.0251998901367188e-05,2026-03-29T22:15:12.583,2026-03-29T18:15:12.583,-34333.11,-46846.53,-84614.175,-49554.854999999996,-12892.725,-18098.01,6528.33,1606.635,-1.6609561705071758,-2.8159786546074703,-3.4615704578454536,-0.5413628122222944,4.13070636991892,6.497703365364814,-2.785553017267706,-9.171585399579824,-0.008422830000000001,-0.95080323,-0.324645165,-6.653359999999999,24.52282,-6.50076,71.0
1774822512.5833592,1.2874603271484375e-05,2026-03-29T22:15:12.583,2026-03-29T18:15:12.583,-34331.85,-46844.369999999995,-84615.075,-49566.869999999995,-12929.984999999999,-18121.86,6493.275,1614.78,-1.532814964576157,-3.733126419703868,-6.723214991481475,-4.36929143853697,3.915557678707912,4.612663028359373,-11.15052355030214,-6.132553600441291,-0.008422830000000001,-0.95080323,-0.324645165,-6.653359999999999,24.52282,-6.50076,71.0
1774822512.5833683,9.059906005859375e-06,2026-03-29T22:15:12.583,2026-03-29T18:15:12.583,-34327.979999999996,-46858.229999999996,-84642.12,-49603.095,-12974.039999999999,-18165.87,6497.6849999999995,1637.1,-0.7685497712384243,-3.026141659395413,-7.062535947587927,-6.640277608176959,1.0669292767437617,0.033106607171163115,-15.08938478858255,0.12392527168940079,-0.008422830000000001,-0.95080323,-0.324645165,-6.653359999999999,24.52282,-6.50076,71.0
1774822512.5833795,1.1205673217773438e-05,2026-03-29T22:15:12.583,2026-03-29T18:15:12.583,-34298.64,-46813.455,-84592.665,-49555.259999999995,-12927.555,-18118.665,6554.5199999999995,1660.77,0.41376092140751186,-0.9088601387030241,-4.188919344051246,-6.088733602262257,-2.729015154870018,-4.735365466534049,-12.083623609571923,6.181454528103511,-0.008422830000000001,-0.95080323,-0.324645165,-6.653359999999999,24.52282,-6.50076,71.0
1774822512.583388,8.58306884765625e-06,2026-03-29T22:15:12.583,2026-03-29T18:15:12.583,-34291.26,-46777.725,-84533.67,-49484.25,-12849.029999999999,-18032.94,6620.67,1676.07,1.5720822980611266,1.745833899604278,0.7194297254812686,-2.6511651968018404,-5.122112279675148,-7.022405752791977,-2.862873312990734,8.780448160072169,-0.008422830000000001,-0.95080323,-0.324645165,-6.653359999999999,24.52282,-6.50076,71.0
1774822512.5833988,1.0728836059570312e-05,2026-03-29T22:15:12.583,2026-03-29T18:15:12.583,-34311.195,-46812.33,-84569.715,-49521.104999999996,-12885.705,-18061.875,6615.585,1672.7849999999999,2.206973914023418,3.7729084642086983,5.502988657699907,2.3640271584141437,-4.46914345021222,-5.450691013906358,8.633263772299992,6.57944650952446,-0.008422830000000001,-0.95080323,-0.324645165,-6.653359999999999,24.52282,-6.50076,71.0
1774822512.5834074,8.58306884765625e-06,2026-03-29T22:15:12.583,2026-03-29T18:15:12.583,-34320.51,-46822.455,-84578.895,-49528.619999999995,-12894.975,-18072.27,6592.5,1664.01,1.9826779224141013,4.232476469696604,7.978711354130857,6.7609143026152285,-0.8534910101462942,-0.7222192291777171,16.95810190021253,0.8592253966491921,-0.008422830000000001,-0.95080323,-0.324645165,-6.653359999999999,24.52282,-6.50076,71.0
1774822512.609798,0.026390552520751953,2026-03-29T22:15:12.609,2026-03-29T18:15:12.609,-34309.08,-46815.795,-84578.48999999999,-49530.24,-12901.5,-18082.485,6587.594999999999,1657.35,0.9018986423271835,2.8446719315429405,6.939436407519687,8.422912539590806,3.8459104528653865,4.7014124224560785,17.778723210323815,-5.204642642607209,-6.1035e-05,-0.954770505,-0.325377585,-4.97476,27.7732,-8.19462,71.0
1774822512.6098285,3.0517578125e-05,2026-03-29T22:15:12.609,2026-03-29T18:15:12.609,-34325.28,-46826.28,-84584.25,-49535.865,-12905.505,-18081.945,6592.1849999999995,1653.12,-0.6556444867658555,0.14148061985672208,2.7360922881089733,6.3340527985011015,6.921834351693825,7.876112220330963,10.134641184803817,-8.294084918498791,-6.1035e-05,-0.954770505,-0.325377585,-4.97476,27.7732,-8.19462,71.0
1774822512.609862,3.361701965332031e-05,2026-03-29T22:15:12.609,2026-03-29T18:15:12.609,-34334.64,-46836.674999999996,-84598.47,-49549.545,-12919.275,-18094.725,6569.099999999999,1661.5349999999999,-2.064033827556066,-2.740725618465854,-2.8351063838270787,1.1607325742001593,6.347322674757406,6.948603439344516,-2.845003573628153,-6.762923552228348,-6.1035e-05,-0.954770505,-0.325377585,-4.97476,27.7732,-8.19462,71.0
1774822512.6098733,1.1205673217773438e-05,2026-03-29T22:15:12.609,2026-03-29T18:15:12.609,-34329.555,-46825.064999999995,-84583.845,-49536.9,-12925.755,-18102.78,6527.61,1676.835,-2.7067427149650554,-4.544000876204782,-7.306214782037732,-4.926367526108981,2.00256627431832,2.1941655471856385,-15.227412206541883,-1.5218641160990778,-6.1035e-05,-0.954770505,-0.325377585,-4.97476,27.7732,-8.19462,71.0
1774822512.6098871,1.3828277587890625e-05,2026-03-29T22:15:12.609,2026-03-29T18:15:12.609,-34348.32,-46847.025,-84609.9,-49569.84,-12989.34,-18143.28,6524.009999999999,1689.12,-2.2501724276490753,-4.439021305085839,-8.635602709467745,-9.16505574485608,-4.088240020128302,-4.047127345641277,-21.03325777382462,4.484664736694237,-6.1035e-05,-0.954770505,-0.325377585,-4.97476,27.7732,-8.19462,71.0
1774822512.609898,1.0967254638671875e-05,2026-03-29T22:15:12.609,2026-03-29T18:15:12.609,-34324.155,-46817.009999999995,-84574.70999999999,-49541.805,-12952.664999999999,-18107.82,6597.945,1698.2549999999999,-0.8121806413753034,-2.4018623020267027,-6.140091197702442,-9.464673386818342,-8.706608272203258,-8.532616290385802,-17.161826844443148,7.915707022803771,-6.1035e-05,-0.954770505,-0.325377585,-4.97476,27.7732,-8.19462,71.0
1774822512.6099107,1.2636184692382812e-05,2026-03-29T22:15:12.609,2026-03-29T18:15:12.609,-34301.744999999995,-46791.09,-84544.785,-49516.74,-12875.085,-18059.85,6607.44,1694.97,1.0575232713089193,0.7510043969035489,-0.8363637481656256,-5.437775188110798,-9.127543500492104,-8.796119994611846,-5.036310557914597,6.881079343905347,-6.1035e-05,-0.954770505,-0.325377585,-4.97476,27.7732,-8.19462,71.0
1774822512.6099207,1.0013580322265625e-05,2026-03-29T22:15:12.609,2026-03-29T18:15:12.609,-34331.895,-46834.244999999995,-84590.01,-49544.055,-12890.609999999999,-18089.594999999998,6564.6449999999995,1678.455,2.588349279600089,3.6919077134979665,4.974720807517216,1.3088426205516686,-4.665029554086205,-4.476652173683397,9.89918415737791,1.981668126342338,-6.1035e-05,-0.954770505,-0.325377585,-4.97476,27.7732,-8.19462,71.0
1774822512.609933,1.2159347534179688e-05,2026-03-29T22:15:12.609,2026-03-29T18:15:12.609,-34337.655,-46854.945,-84614.895,-49556.655,-12926.835,-18112.32,6571.035,1662.21,3.1091840183689974,5.141125895722053,8.709820412611704,7.809268032111742,2.7794939650380663,2.40897523750124,20.663547469488424,-4.029245773134407,-6.1035e-05,-0.954770505,-0.325377585,-4.97476,27.7732,-8.19462,71.0
1774822512.609943,1.0013580322265625e-05,2026-03-29T22:15:12.609,2026-03-29T18:15:12.609,-34322.805,-46825.965,-84577.68,-49525.604999999996,-12892.635,-18063.45,6597.719999999999,1652.6699999999998,2.3436509856477015,4.420915668449054,8.653513766233699,11.052262989112844,9.529988414454646,8.422997732909925,22.05068370956941,-7.776285320400624,-6.1035e-05,-0.954770505,-0.325377585,-4.97476,27.7732,-8.19462,71.0
1774822512.6099553,1.239776611328125e-05,2026-03-29T22:15:12.609,2026-03-29T18:15:12.609,-34318.44,-46825.29,-84580.47,-49532.354999999996,-12898.71,-18066.69,6594.165,1645.605,0.5503611169103492,1.7669372174124385,4.745191540794962,9.387622123498732,11.961735198009618,10.432411129577327,13.17600130191906,-7.139614440470289,0.01025388,-0.959897445,-0.325987935,-0.79352,33.86194,-10.71252,71.0
1774822512.609965,9.775161743164062e-06,2026-03-29T22:15:12.609,2026-03-29T18:15:12.609,-34318.44,-46826.369999999995,-84582.45,-49529.52,-12917.564999999999,-18087.48,6585.12,1648.08,-1.5602675585217165,-1.7427200485154861,-1.3571951013197283,3.3635549325135146,8.428875984882009,7.2336804526925,-2.0001244046349864,-2.442150426573794,0.01025388,-0.959897445,-0.325987935,-0.79352,33.86194,-10.71252,71.0
1774822512.6606765,0.05071139335632324,2026-03-29T22:15:12.660,2026-03-29T18:15:12.660,-34322.04,-46827.54,-84586.995,-49544.505,-12932.505,-18091.305,6549.66,1655.46,-3.1074797154652467,-4.622279693315552,-6.980313352889751,-4.428809378126929,0.27585878485919,0.23716075964789307,-16.46741782149451,3.7138879905785354,0.01025388,-0.959897445,-0.325987935,-0.79352,33.86194,-10.71252,71.0
1774822512.6606977,2.1219253540039062e-05,2026-03-29T22:15:12.660,2026-03-29T18:15:12.660,-34326.854999999996,-46834.83,-84599.81999999999,-49568.174999999996,-12921.705,-18089.19,6498.179999999999,1654.245,-3.4083622307213473,-5.603486215022199,-9.607827666012083,-10.475938227774545,-8.656721734205918,-7.165340379111593,-23.45148194647656,7.8784544301412724,0.01025388,-0.959897445,-0.325987935,-0.79352,33.86194,-10.71252,71.0
1774822512.660719,2.1219253540039062e-05,2026-03-29T22:15:12.660,2026-03-29T18:15:12.660,-34322.354999999996,-46827.99,-84586.545,-49558.005,-12929.085,-18101.565,6546.87,1645.155,-2.2790116872756565,-4.191176941122807,-8.008359324084068,-11.9406043368227,-13.860699293850407,-11.261199938888197,-19.628168916511314,7.669396793068906,0.01025388,-0.959897445,-0.325987935,-0.79352,33.86194,-10.71252,71.0
1774822512.6607268,7.867813110351562e-06,2026-03-29T22:15:12.660,2026-03-29T18:15:12.660,-34310.924999999996,-46808.369999999995,-84562.2,-49531.185,-12907.394999999999,-18077.399999999998,6616.8,1635.12,-0.13665626058911476,-0.9084454429460308,-2.813720450787479,-8.00530137570103,-12.444380116020263,-9.88612154994934,-6.7229733658936235,3.1153083850845786,0.01025388,-0.959897445,-0.325987935,-0.79352,33.86194,-10.71252,71.0
1774822512.6607368,1.0013580322265625e-05,2026-03-29T22:15:12.660,2026-03-29T18:15:12.660,-34320.06,-46812.555,-84566.79,-49531.77,-12920.535,-18070.695,6598.8,1615.455,2.1504417875637127,2.887582335752578,3.723967002270022,-0.31922883744086933,-4.711439751653634,-3.5583837957352844,9.280407471471415,-3.3241216745056623,0.01025388,-0.959897445,-0.325987935,-0.79352,33.86194,-10.71252,71.0
1774822512.6607432,6.4373016357421875e-06,2026-03-29T22:15:12.660,2026-03-29T18:15:12.660,-34313.625,-46812.015,-84563.415,-49530.645,-12938.49,-18070.29,6584.219999999999,1594.7549999999999,3.6133339975358756,5.560078410442329,8.70677224015883,7.691925400353574,5.81650625802539,4.711987939369776,20.95200329434774,-8.086709412761463,0.01025388,-0.959897445,-0.325987935,-0.79352,33.86194,-10.71252,71.0
1774822512.6607509,7.62939453125e-06,2026-03-29T22:15:12.660,2026-03-29T18:15:12.660,-34321.095,-46822.095,-84572.19,-49535.955,-12932.369999999999,-18077.94,6580.9349999999995,1575.6299999999999,3.592837209801888,5.895036436975878,9.877398857307309,12.365564286105808,14.020866473335879,10.870917671618912,22.9088703063525,-8.467500997595977,0.01025388,-0.959897445,-0.325987935,-0.79352,33.86194,-10.71252,71.0
1774822512.6607568,5.9604644775390625e-06,2026-03-29T22:15:12.660,2026-03-29T18:15:12.660,-34332.84,-46827.36,-84576.19499999999,-49532.939999999995,-12905.64,-18074.745,6582.195,1574.19,2.036972438834497,3.6533647057375513,6.646933385912231,11.493916817060425,15.696829215226058,11.821749981096056,14.32794183166657,-4.1354750222199135,0.01025388,-0.959897445,-0.325987935,-0.79352,33.86194,-10.71252,71.0
1774822512.6607645,7.62939453125e-06,2026-03-29T22:15:12.660,2026-03-29T18:15:12.660,-34318.755,-46824.84,-84584.47499999999,-49545.585,-12914.144999999999,-18069.75,6580.8,1583.73,-0.4484241774970257,-0.27796276956194377,0.3945420545996934,5.3792357735907785,9.713098729451094,6.986933450475086,-0.7069997869404891,2.6359741193263955,0.02404779,-0.96215574,-0.323180325,3.9676,44.5592,-13.68822,71.0
1774822512.6607704,5.9604644775390625e-06,2026-03-29T22:15:12.660,2026-03-29T18:15:12.660,-34297.47,-46801.125,-84559.23,-49514.354999999996,-12852.314999999999,-18042.344999999998,6558.795,1584.405,-2.8307019270239273,-4.22511363014295,-6.114430837533077,-3.256986593735668,-1.290176680544047,-1.3587902573109536,-15.16913762767819,8.170962404842102,0.02404779,-0.96215574,-0.323180325,3.9676,44.5592,-13.68822,71.0
1774822512.6607778,7.3909759521484375e-06,2026-03-29T22:15:12.660,2026-03-29T18:15:12.660,-34334.055,-46830.33,-84580.69499999999,-49531.545,-12892.59,-18083.925,6526.485,1575.0449999999998,-4.0778622939708375,-6.434558470563409,-9.950776615521294,-10.492906196443414,-12.074288752952256,-9.169061016654199,-22.40874993028899,9.386370424653713,0.02404779,-0.96215574,-0.323180325,3.9676,44.5592,-13.68822,71.0
1774822512.660784,6.198883056640625e-06,2026-03-29T22:15:12.660,2026-03-29T18:15:12.660,-34358.22,-46867.229999999996,-84625.69499999999,-49588.2,-12956.58,-18127.665,6529.95,1559.1599999999999,-3.607019080817604,-5.853452399764961,-9.345512946483247,-13.004374722990105,-17.320911886538187,-12.602104644436473,-19.244718786017,5.4973564922740845,0.02404779,-0.96215574,-0.323180325,3.9676,44.5592,-13.68822,71.0
1774822512.6607916,7.62939453125e-06,2026-03-29T22:15:12.660,2026-03-29T18:15:12.660,-34330.725,-46838.43,-84600.09,-49576.68,-12957.3,-18133.829999999998,6538.094999999999,1533.96,-1.558979262710696,-2.636299128697716,-4.515587841061021,-9.610520424187001,-14.27508869425946,-9.921376462136083,-7.375861214683832,-1.5059433283258994,0.02404779,-0.96215574,-0.323180325,3.9676,44.5592,-13.68822,71.0
1774822512.6607976,5.9604644775390625e-06,2026-03-29T22:15:12.660,2026-03-29T18:15:12.660,-34323.93,-46843.02,-84607.245,-49572.72,-12952.8,-18123.3,6552.315,1508.04,1.2309853884114677,1.8676712297955667,2.3982305929272996,-1.8402650939795093,-4.19057206900755,-2.3764653742597246,7.518664304860843,-7.890174218773847,0.02404779,-0.96215574,-0.323180325,3.9676,44.5592,-13.68822,71.0
1774822512.6608055,7.867813110351562e-06,2026-03-29T22:15:12.660,2026-03-29T18:15:12.660,-34313.49,-46836.405,-84595.635,-49554.72,-12934.845,-18094.005,6573.285,1480.95,3.569580098104287,5.670998706044727,8.274718804371046,6.756781137845355,8.179475156027625,6.38260066469164,18.516701848414066,-10.17861843716652,0.02404779,-0.96215574,-0.323180325,3.9676,44.5592,-13.68822,71.0
1774822512.6608112,5.7220458984375e-06,2026-03-29T22:15:12.660,2026-03-29T18:15:12.660,-34330.229999999996,-46830.33,-84573.58499999999,-49530.15,-12905.505,-18058.725,6572.07,1474.02,4.416365836539769,7.024773755754975,10.424774381573569,12.244554460339865,16.843006874949673,12.080896131913873,20.699454845543368,-7.043992243617263,0.02404779,-0.96215574,-0.323180325,3.9676,44.5592,-13.68822,71.0
1774822512.6608188,7.62939453125e-06,2026-03-29T22:15:12.660,2026-03-29T18:15:12.660,-34317.854999999996,-46812.689999999995,-84565.89,-49518.854999999996,-12891.6,-18050.579999999998,6578.28,1493.37,3.3507731454139713,5.2300176756448264,7.8333152656134075,12.12206393036667,17.496429816502697,11.915742366041943,13.371901082842344,-0.06381442841547391,0.02404779,-0.96215574,-0.323180325,3.9676,44.5592,-13.68822,71.0
1774822512.6608233,4.5299530029296875e-06,2026-03-29T22:15:12.660,2026-03-29T18:15:12.660,-34304.985,-46799.415,-84556.89,-49513.905,-12889.17,-18048.645,6570.36,1503.81,0.7841756760796632,1.004510835667817,1.6524124352715426,6.480773791809226,9.677886234260063,5.942423678483288,0.2470724519149156,7.086347686115848,0.02404779,-0.96215574,-0.323180325,3.9676,44.5592,-13.68822,71.0
1774822512.6608276,4.291534423828125e-06,2026-03-29T22:15:12.660,2026-03-29T18:15:12.660,-34333.47,-46824.39,-84577.41,-49529.79,-12907.71,-18063.54,6538.32,1504.26,-2.190960777153927,-3.789360092636623,-5.299734855990582,-2.045509927386425,-2.936885672916729,-2.9387670045793954,-12.428861166546932,10.583909689824628,0.037414455,-0.962338845,-0.32079996,8.118319999999999,53.88306,-14.69538,71.0
1774822512.6608312,3.5762786865234375e-06,2026-03-29T22:15:12.660,2026-03-29T18:15:12.660,-34337.295,-46844.955,-84603.105,-49559.354999999996,-12972.015,-18107.774999999998,6545.565,1491.03,-4.264433174225306,-6.961801748999776,-9.822183661179615,-9.515017844732233,-14.274538695415586,-10.394231721907229,-18.865328141120454,8.512742777830235,0.037414455,-0.962338845,-0.32079996,8.118319999999999,53.88306,-14.69538,71.0
1774822512.6608355,4.291534423828125e-06,2026-03-29T22:15:12.660,2026-03-29T18:15:12.660,-34317.0,-46823.625,-84577.995,-49540.229999999996,-12990.555,-18115.965,6575.535,1469.925,-4.489009555300672,-7.001897925963463,-9.814038887888493,-12.516024868217075,-18.810105148602307,-12.77793817609024,-16.392776734453292,1.9120537620863527,0.037414455,-0.962338845,-0.32079996,8.118319999999999,53.88306,-14.69538,71.0
1774822512.6608388,3.337860107421875e-06,2026-03-29T22:15:12.660,2026-03-29T18:15:12.660,-34318.89,-46825.38,-84585.375,-49554.134999999995,-12972.105,-18105.704999999998,6587.28,1445.76,-2.7198298747968908,-3.808322707988221,-5.266262517424192,-9.744524989913224,-14.279813332450715,-8.92053051582211,-6.56995265609752,-5.753207110984111,0.037414455,-0.962338845,-0.32079996,8.118319999999999,53.88306,-14.69538,71.0
1774822512.6608431,4.291534423828125e-06,2026-03-29T22:15:12.660,2026-03-29T18:15:12.660,-34333.2,-46832.085,-84586.31999999999,-49550.22,-12908.654999999999,-18069.614999999998,6555.195,1421.595,0.2940711379023904,1.2134978886582368,1.7125199171849868,-2.583463539963333,-2.8200533693787615,-0.706730180600657,5.724497465551825,-10.427242987292106,0.037414455,-0.962338845,-0.32079996,8.118319999999999,53.88306,-14.69538,71.0
1774822512.6608467,3.5762786865234375e-06,2026-03-29T22:15:12.660,2026-03-29T18:15:12.660,-34329.33,-46824.165,-84570.885,-49532.895,-12867.795,-18061.559999999998,6528.105,1411.605,3.222366260680938,5.761795236600012,7.865437195463697,5.579619241718379,10.043369614541154,7.844479756952834,14.709113724135412,-9.625611865567707,0.037414455,-0.962338845,-0.32079996,8.118319999999999,53.88306,-14.69538,71.0
1774822512.6608512,4.5299530029296875e-06,2026-03-29T22:15:12.660,2026-03-29T18:15:12.660,-34294.275,-46784.52,-84531.33,-49499.549999999996,-12871.845,-18063.63,6522.21,1419.21,4.74239522444883,7.695900387569051,10.310432456665723,10.962487721637284,18.074765910428564,12.547093863256011,16.42961715514152,-3.7656558322025906,0.037414455,-0.962338845,-0.32079996,8.118319999999999,53.88306,-14.69538,71.0
1774822512.6608548,3.5762786865234375e-06,2026-03-29T22:15:12.660,2026-03-29T18:15:12.660,-34304.94,-46800.945,-84556.75499999999,-49532.22,-12915.269999999999,-18092.07,6533.099999999999,1422.8999999999999,4.143299863496608,6.054185331361854,7.90361151079403,11.157058603935244,17.369787966251753,11.098564462528246,10.508326069538228,4.051167940957466,0.037414455,-0.962338845,-0.32079996,8.118319999999999,53.88306,-14.69538,71.0
1774822512.6760476,0.015192747116088867,2026-03-29T22:15:12.676,2026-03-29T18:15:12.676,-34312.32,-46821.195,-84576.42,-49540.365,-12910.59,-18071.145,6604.695,1423.0349999999999,1.6665853353704358,1.5440157197851796,1.7922444066444705,6.2226684025004015,8.266677482081944,4.2084574993476265,0.136236244519548,9.691449577299634,0.037414455,-0.962338845,-0.32079996,8.118319999999999,53.88306,-14.69538,71.0
1774822512.6760783,3.075599670410156e-05,2026-03-29T22:15:12.676,2026-03-29T18:15:12.676,-34325.595,-46834.02,-84581.955,-49551.525,-12923.234999999999,-18071.325,6599.655,1412.01,-1.5834246376633225,-3.7503941809577714,-5.11751683220467,-1.3997122049774848,-4.813156959886337,-4.747692289585248,-9.606844183313331,10.19225744374029,0.037414455,-0.962338845,-0.32079996,8.118319999999999,53.88306,-14.69538,71.0
1774822512.676103,2.47955322265625e-05,2026-03-29T22:15:12.676,2026-03-29T18:15:12.676,-34329.915,-46849.14,-84600.765,-49562.955,-12932.369999999999,-18069.975,6592.005,1396.1699999999998,-4.130744362761889,-7.32852565908554,-9.537630319113822,-8.089704333337874,-15.519950293325463,-11.37974467617653,-14.23358586197421,5.33381781365855,0.042175185000000004,-0.95239014,-0.32031168,0.9308599999999999,55.515879999999996,-15.305779999999999,71.0
1774822512.676115,1.1920928955078125e-05,2026-03-29T22:15:12.676,2026-03-29T18:15:12.676,-34325.595,-46849.275,-84609.765,-49568.265,-12940.74,-18083.07,6510.96,1383.57,-4.802874701951987,-7.4611156941251915,-9.36948203188675,-10.775543963133902,-18.670767059272492,-12.431366885834183,-11.922376087017588,-2.258640344527756,0.042175185000000004,-0.95239014,-0.32031168,0.9308599999999999,55.515879999999996,-15.305779999999999,71.0
1774822512.6761289,1.3828277587890625e-05,2026-03-29T22:15:12.676,2026-03-29T18:15:12.676,-34311.825,-46823.4,-84580.965,-49551.75,-12953.115,-18070.92,6499.844999999999,1371.735,-3.279097738964671,-4.037829760021316,-4.715661077381182,-8.359115818877347,-12.769740706138265,-7.374933749169346,-4.222521590309662,-8.533770689530304,0.042175185000000004,-0.95239014,-0.32031168,0.9308599999999999,55.515879999999996,-15.305779999999999,71.0
1774822512.676139,1.0251998901367188e-05,2026-03-29T22:15:12.676,2026-03-29T18:15:12.676,-34335.18,-46826.775,-84568.905,-49531.32,-12926.654999999999,-18029.835,6622.74,1374.345,-0.2518031266146482,1.3454345968528945,2.1621213799674863,-2.170477409559067,-0.7229887744801429,1.3263915557566945,4.874089508966037,-10.186758924438005,0.042175185000000004,-0.95239014,-0.32031168,0.9308599999999999,55.515879999999996,-15.305779999999999,71.0
1774822512.6761515,1.239776611328125e-05,2026-03-29T22:15:12.676,2026-03-29T18:15:12.676,-34332.93,-46837.395,-84586.545,-49541.49,-12900.689999999999,-18051.614999999998,6642.8099999999995,1387.3049999999998,2.8835425464541156,6.123029058220436,7.929457813239692,4.738863563431263,11.594404962491254,9.417560889183482,10.97060352695158,-6.416531743422748,0.042175185000000004,-0.95239014,-0.32031168,0.9308599999999999,55.515879999999996,-15.305779999999999,71.0
1774822512.6761615,1.0013580322265625e-05,2026-03-29T22:15:12.676,2026-03-29T18:15:12.676,-34332.345,-46846.619999999995,-84601.70999999999,-49550.445,-12892.59,-18070.829999999998,6602.535,1408.77,4.67316155578549,7.983220575345671,9.793068598684668,9.096638089365026,18.21011000081198,12.92715325798065,11.383717659385777,0.6731835524908095,0.042175185000000004,-0.95239014,-0.32031168,0.9308599999999999,55.515879999999996,-15.305779999999999,71.0
1774822512.6849253,0.008763790130615234,2026-03-29T22:15:12.684,2026-03-29T18:15:12.684,-34329.104999999996,-46838.88,-84591.58499999999,-49544.145,-12916.17,-18075.239999999998,6588.855,1424.115,4.285917269349269,5.994774873110617,6.861666926577014,8.967351836258338,15.956852129855681,10.10831429254351,6.325184911847253,7.235155025640256,0.042175185000000004,-0.95239014,-0.32031168,0.9308599999999999,55.515879999999996,-15.305779999999999,71.0
1774822512.68495,2.47955322265625e-05,2026-03-29T22:15:12.684,2026-03-29T18:15:12.684,-34324.965,-46827.27,-84571.02,-49528.305,-12923.595,-18065.925,6582.014999999999,1424.205,1.9084783720687144,1.0839187225854334,0.5873491758882078,4.621743545825366,5.991413447924497,2.299664446240775,-1.3733660005607315,9.765802378907226,0.042175185000000004,-0.95239014,-0.32031168,0.9308599999999999,55.515879999999996,-15.305779999999999,71.0
1774822512.6849651,1.5020370483398438e-05,2026-03-29T22:15:12.684,2026-03-29T18:15:12.684,-34327.979999999996,-46830.33,-84578.04,-49541.805,-12917.564999999999,-18060.255,6572.429999999999,1423.845,-1.3371437730899838,-4.386556000038841,-5.937135197740237,-1.676640965760713,-6.798719519628436,-6.714248261834371,-7.785840180852242,6.986237477904639,0.042175185000000004,-0.95239014,-0.32031168,0.9308599999999999,55.515879999999996,-15.305779999999999,71.0
1774822512.684971,5.9604644775390625e-06,2026-03-29T22:15:12.684,2026-03-29T18:15:12.684,-34329.015,-46832.174999999996,-84585.19499999999,-49551.39,-12908.564999999999,-18059.355,6569.865,1412.19,-3.920586083485896,-7.749418023817742,-9.491388232951207,-6.831377843924576,-16.19543074194235,-12.534859673693118,-9.866120809920861,0.5035294671930481,0.042175185000000004,-0.95239014,-0.32031168,0.9308599999999999,55.515879999999996,-15.305779999999999,71.0
1774822512.700673,0.015702009201049805,2026-03-29T22:15:12.700,2026-03-29T18:15:12.700,-34329.555,-46832.4,-84586.5,-49551.884999999995,-12923.369999999999,-18066.329999999998,6570.045,1396.0349999999999,-4.628114519352404,-7.335421286065181,-8.314445675227248,-8.431601471002674,-17.675075302921467,-12.287173342224317,-6.889012795541007,-6.09555906976341,0.04541004,-0.94750734,-0.32543862,-7.202719999999999,55.18016,-10.92616,71.0
1774822512.700697,2.384185791015625e-05,2026-03-29T22:15:12.700,2026-03-29T18:15:12.700,-34327.53,-46836.18,-84587.48999999999,-49542.39,-12917.07,-18060.434999999998,6572.925,1387.3049999999998,-3.140552304364901,-3.3088111717111155,-2.9842822263418944,-5.88531757853246,-10.584807557991098,-6.027255178654808,-0.6786915306828185,-9.215130716921296,0.04541004,-0.94750734,-0.32543862,-7.202719999999999,55.18016,-10.92616,71.0
1774822512.7007196,2.2649765014648438e-05,2026-03-29T22:15:12.700,2026-03-29T18:15:12.700,-34323.165,-46824.119999999995,-84569.31,-49531.455,-12916.305,-18057.6,6566.445,1395.495,-0.18557457235992453,2.3851009334087467,3.852339171517505,-0.6323650600423193,1.5763220975555705,3.2644150026553365,5.432077218505585,-7.207521589539498,0.04541004,-0.94750734,-0.32543862,-7.202719999999999,55.18016,-10.92616,71.0
1774822512.70073,1.049041748046875e-05,2026-03-29T22:15:12.700,2026-03-29T18:15:12.700,-34317.315,-46804.77,-84546.94499999999,-49531.814999999995,-12944.699999999999,-18081.45,6558.21,1406.745,2.811976043980165,6.951799213285317,8.77882811156487,4.635976699260823,12.887748655965813,11.105747495070272,8.34285420515616,-1.253044004903669,0.04541004,-0.94750734,-0.32543862,-7.202719999999999,55.18016,-10.92616,71.0
1774822512.7007425,1.239776611328125e-05,2026-03-29T22:15:12.700,2026-03-29T18:15:12.700,-34311.555,-46788.93,-84528.765,-49531.005,-12971.25,-18113.445,6547.905,1414.62,4.4161026885740995,8.115288224181555,9.304415470753895,7.33871559057327,17.890445963063513,13.670638242093139,6.7342602164974945,5.310881013235972,0.04541004,-0.94750734,-0.32543862,-7.202719999999999,55.18016,-10.92616,71.0
1774822512.7007513,8.821487426757812e-06,2026-03-29T22:15:12.700,2026-03-29T18:15:12.700,-34323.119999999995,-46813.634999999995,-84559.455,-49544.685,-12949.74,-18094.364999999998,6537.465,1419.21,3.8718598305415033,5.253194927912486,5.118851114842463,6.26506335931996,14.217056216962165,9.644065675147733,1.659975272539204,8.837351795334033,0.04541004,-0.94750734,-0.32543862,-7.202719999999999,55.18016,-10.92616,71.0
1774822512.7007625,1.1205673217773438e-05,2026-03-29T22:15:12.700,2026-03-29T18:15:12.700,-34339.14,-46864.215,-84626.37,-49570.56,-12911.535,-18066.69,6534.495,1415.1599999999999,1.468048686996841,-0.26750556609577686,-1.7244199261177788,2.119013858421296,3.703314548335486,0.8797524475065331,-4.080859662627502,7.379572326770601,0.04541004,-0.94750734,-0.32543862,-7.202719999999999,55.18016,-10.92616,71.0
1774822512.7007713,8.821487426757812e-06,2026-03-29T22:15:12.700,2026-03-29T18:15:12.700,-34346.115,-46882.575,-84652.37999999999,-49579.064999999995,-12948.164999999999,-18085.635,6537.825,1405.71,-1.6071006479313876,-5.7357564637402,-7.8036091858473755,-2.8970522912404992,-8.53648097291254,-8.462291915482174,-7.436628937778641,1.7612100265395894,0.04541004,-0.94750734,-0.32543862,-7.202719999999999,55.18016,-10.92616,71.0
1774822512.7106593,0.009887933731079102,2026-03-29T22:15:12.710,2026-03-29T18:15:12.710,-34334.235,-46844.505,-84596.31,-49540.365,-12971.205,-18093.69,6538.995,1392.75,-3.8482928351348704,-8.420963931561937,-10.024283374651871,-6.22653195439643,-16.600409854027813,-13.892960672948833,-6.68345833909701,-4.878891662556257,0.04541004,-0.94750734,-0.32543862,-7.202719999999999,55.18016,-10.92616,71.0
1774822512.7106788,1.9550323486328125e-05,2026-03-29T22:15:12.710,2026-03-29T18:15:12.710,-34329.33,-46834.695,-84580.33499999999,-49535.189999999995,-12986.189999999999,-18108.899999999998,6552.45,1368.0449999999998,-4.16984850285533,-6.931750994664714,-7.180260249833898,-6.244949811704307,-16.640497080197687,-12.744930634503495,-2.2893917384967484,-8.818923746382474,0.04541004,-0.94750734,-0.32543862,-7.202719999999999,55.18016,-10.92616,71.0
1774822512.719571,0.008892297744750977,2026-03-29T22:15:12.719,2026-03-29T18:15:12.719,-34329.015,-46839.465,-84592.575,-49553.729999999996,-12933.269999999999,-18061.965,6578.505,1359.945,-2.4358778507234784,-1.9341193870639968,-0.5972292376069076,-3.047185040252554,-8.687940131513471,-5.469017612433857,3.3631167925091776,-7.814445615643969,0.050475945,-0.95531982,-0.32562172500000003,-2.6857599999999997,59.666599999999995,-11.12454,71.0
1774822512.7196589,8.7738037109375e-05,2026-03-29T22:15:12.719,2026-03-29T18:15:12.719,-34324.515,-46830.78,-84584.06999999999,-49550.31,-12879.855,-18008.28,6582.465,1370.61,0.4769654113118576,4.1406518753456885,6.480071894422784,1.6438564984879014,3.3988149855449414,4.548814907128297,7.2375420022772685,-2.3553169353066337,0.050475945,-0.95531982,-0.32562172500000003,-2.6857599999999997,59.666599999999995,-11.12454,71.0
1774822512.7197456,8.678436279296875e-05,2026-03-29T22:15:12.719,2026-03-29T18:15:12.719,-34327.665,-46833.615,-84583.75499999999,-49541.58,-12891.015,-18032.13,6554.429999999999,1378.26,3.115809153554277,8.272994847736353,10.475878657922117,5.382639343901681,13.81424208377833,12.572167915555958,7.231583978139997,4.576736198574048,0.050475945,-0.95531982,-0.32562172500000003,-2.6857599999999997,59.666599999999995,-11.12454,71.0
1774822512.71979,4.4345855712890625e-05,2026-03-29T22:15:12.719,2026-03-29T18:15:12.719,-34333.92,-46841.985,-84595.905,-49554.945,-12921.48,-18048.239999999998,6538.275,1381.05,4.172251792487495,8.348958700051064,9.273214947270311,6.252554587533505,17.593693617469828,14.755264910623012,3.278151420536356,9.12787831851794,0.050475945,-0.95531982,-0.32562172500000003,-2.6857599999999997,59.666599999999995,-11.12454,71.0
1774822512.719843,5.2928924560546875e-05,2026-03-29T22:15:12.719,2026-03-29T18:15:12.719,-34319.744999999995,-46825.47,-84577.545,-49543.11,-12920.22,-18051.524999999998,6540.974999999999,1376.9099999999999,3.1310923737532237,4.23405010305382,3.3153901250674074,3.8313605235130406,12.970004781536108,9.979300978297834,-2.603983456338474,8.691703775390259,0.050475945,-0.95531982,-0.32562172500000003,-2.6857599999999997,59.666599999999995,-11.12454,71.0
1774822512.7198873,4.4345855712890625e-05,2026-03-29T22:15:12.719,2026-03-29T18:15:12.719,-34311.195,-46814.04,-84560.625,-49528.845,-12937.365,-18043.425,6553.3949999999995,1358.01,0.525043405253895,-2.115969348058364,-4.546908167013142,-0.6096730140891805,2.1844775952711797,0.4099205973722304,-7.337531591603106,3.3704505542857754,0.050475945,-0.95531982,-0.32562172500000003,-2.6857599999999997,59.666599999999995,-11.12454,71.0
1774822512.726274,0.006386756896972656,2026-03-29T22:15:12.726,2026-03-29T18:15:12.726,-34315.2,-46820.205,-84567.42,-49543.02,-12991.814999999999,-18063.855,6562.62,1330.875,-2.332143150801648,-7.582557379313049,-10.416569329669171,-4.764452645397612,-9.612373207715745,-9.496426699410257,-8.371409922459351,-4.030437294147793,0.050475945,-0.95531982,-0.32562172500000003,-2.6857599999999997,59.666599999999995,-11.12454,71.0
1774822512.726294,2.002716064453125e-05,2026-03-29T22:15:12.726,2026-03-29T18:15:12.726,-34326.63,-46836.72,-84587.355,-49565.159999999996,-12994.515,-18105.704999999998,6531.075,1305.81,-4.002565229176064,-9.410907326678716,-11.270199930807829,-6.470482030240306,-16.825391005885372,-15.076657859740118,-5.016499850580561,-9.489536612931719,0.050475945,-0.95531982,-0.32562172500000003,-2.6857599999999997,59.666599999999995,-11.12454,71.0
1774822512.7263126,1.8596649169921875e-05,2026-03-29T22:15:12.726,2026-03-29T18:15:12.726,-34329.195,-46834.155,-84581.73,-49558.905,-12922.83,-18082.844999999998,6507.09,1288.7549999999999,-3.6443936435779394,-6.589688755307225,-6.495241199885689,-4.811664190775925,-16.06300007982781,-13.657655418426117,1.1532389670236678,-9.94590637889741,0.050475945,-0.95531982,-0.32562172500000003,-2.6857599999999997,59.666599999999995,-11.12454,71.0
1774822512.7263217,9.059906005859375e-06,2026-03-29T22:15:12.726,2026-03-29T18:15:12.726,-34330.185,-46815.435,-84548.87999999999,-49519.53,-12856.32,-18006.93,6564.42,1290.105,-1.4355377873209818,-0.39568685288627947,1.73039719665201,-0.5911729823336287,-7.7183372656560625,-5.8299375989859605,7.052327000363005,-4.988873549527052,0.050475945,-0.95531982,-0.32562172500000003,-2.6857599999999997,59.666599999999995,-11.12454,71.0
1774822512.7607553,0.034433603286743164,2026-03-29T22:15:12.760,2026-03-29T18:15:12.760,-34323.39,-46825.695,-84565.89,-49526.189999999995,-12889.394999999999,-18015.3,6603.66,1299.375,1.5126402024209673,6.184918097777077,9.435147361295947,4.063213539928726,4.24722089806483,4.806026773576708,9.624490641382907,2.8630354562396128,0.049133175,-0.96239988,-0.32433999,9.03392,66.73198,-11.0635,71.0
1774822512.7607923,3.695487976074219e-05,2026-03-29T22:15:12.760,2026-03-29T18:15:12.760,-34332.705,-46851.479999999996,-84605.48999999999,-49561.604999999996,-12928.59,-18046.934999999998,6579.675,1308.06,3.710722844759652,9.896029451216007,12.769360989724484,6.765156466287263,14.194340305606055,13.308417470643732,7.404780596660551,9.463762571038096,0.049133175,-0.96239988,-0.32433999,9.03392,66.73198,-11.0635,71.0
1774822512.7608268,3.457069396972656e-05,2026-03-29T22:15:12.760,2026-03-29T18:15:12.760,-34357.59,-46888.604999999996,-84646.98,-49601.115,-12969.63,-18080.415,6546.15,1305.7649999999999,4.0394818805961075,8.817645591920241,9.916084211489204,6.075579267902129,17.46376083404829,15.699505919027006,1.312655985369332,11.239602474366865,0.049133175,-0.96239988,-0.32433999,9.03392,66.73198,-11.0635,71.0
1774822512.760844,1.71661376953125e-05,2026-03-29T22:15:12.760,2026-03-29T18:15:12.760,-34305.255,-46814.939999999995,-84564.58499999999,-49523.715,-12898.71,-18016.02,6565.679999999999,1300.05,2.3162613697448875,3.3476705933163973,2.0528941573386743,2.2453719613898246,12.549763924940214,10.828789243656216,-5.740171719379313,7.1145923079595175,0.049133175,-0.96239988,-0.32433999,9.03392,66.73198,-11.0635,71.0
1774822512.7608645,2.0503997802734375e-05,2026-03-29T22:15:12.760,2026-03-29T18:15:12.760,-34300.485,-46787.534999999996,-84520.34999999999,-49475.79,-12850.38,-17966.925,6603.795,1283.04,-0.6062731332091891,-3.9386868499410483,-7.134806568341457,-2.880155722216562,1.7799368416460388,0.9200633098612878,-10.2550401281166,-0.8738339888618291,0.049133175,-0.96239988,-0.32433999,9.03392,66.73198,-11.0635,71.0
1774822512.7608805,1.5974044799804688e-05,2026-03-29T22:15:12.760,2026-03-29T18:15:12.760,-34326.045,-46831.365,-84568.77,-49524.345,-12898.935,-18013.05,6598.304999999999,1256.355,-3.2617613164218553,-9.5060600666476,-13.187906844192575,-6.755881470151116,-9.798835504529523,-9.455657212088719,-9.881767827000534,-8.610221850128536,0.049133175,-0.96239988,-0.32433999,9.03392,66.73198,-11.0635,71.0
1774822512.7608993,1.8835067749023438e-05,2026-03-29T22:15:12.760,2026-03-29T18:15:12.760,-34322.85,-46839.6,-84585.15,-49547.52,-12929.58,-18049.95,6562.53,1239.21,-4.303783228118113,-10.575211813582085,-13.036166100780303,-7.394679833237468,-16.790348229613468,-15.502613307209474,-4.623722630388936,-12.049047567907282,0.049133175,-0.96239988,-0.32433999,9.03392,66.73198,-11.0635,71.0
1774822512.7609148,1.5497207641601562e-05,2026-03-29T22:15:12.760,2026-03-29T18:15:12.760,-34326.54,-46832.939999999995,-84574.62,-49541.534999999996,-12928.23,-18046.89,6544.575,1234.62,-3.1849451257096972,-6.504383593452879,-6.540534762080575,-4.369063670241492,-15.960835765497205,-14.427242528261592,3.099077723454943,-9.3420376477623,0.049133175,-0.96239988,-0.32433999,9.03392,66.73198,-11.0635,71.0
1774822512.7609332,1.8358230590820312e-05,2026-03-29T22:15:12.760,2026-03-29T18:15:12.760,-34325.369999999995,-46825.875,-84563.86499999999,-49539.689999999995,-12925.215,-18032.219999999998,6553.035,1236.105,-0.4397828717518603,0.8491136237639545,3.3545131322864226,0.9420912588124462,-7.7258381058753365,-6.73115477970761,9.58329245346369,-1.819932370441636,0.049133175,-0.96239988,-0.32433999,9.03392,66.73198,-11.0635,71.0
1774822512.7609494,1.621246337890625e-05,2026-03-29T22:15:12.760,2026-03-29T18:15:12.760,-34321.455,-46820.384999999995,-84557.925,-49540.185,-12929.715,-18036.495,6561.495,1235.2949999999998,2.5734511589475253,7.983526889606678,11.966879976433969,5.993753302731719,4.06680303289934,4.029741374825109,11.633832625744697,6.689942697189015,0.049133175,-0.96239988,-0.32433999,9.03392,66.73198,-11.0635,71.0
1774822512.760968,1.8596649169921875e-05,2026-03-29T22:15:12.760,2026-03-29T18:15:12.760,-34298.909999999996,-46797.03,-84533.175,-49510.665,-12909.779999999999,-18024.434999999998,6582.42,1227.24,4.346371252279692,11.427216086160874,15.101068794353958,8.299692575250896,13.941613069123159,12.90212981305353,8.14102353462926,11.849082823373472,0.03869619,-0.9582495,-0.329161755,15.19896,72.88176,-10.117379999999999,71.0
1774822512.7609835,1.5497207641601562e-05,2026-03-29T22:15:12.760,2026-03-29T18:15:12.760,-34312.095,-46816.155,-84554.145,-49520.52,-12922.244999999999,-18017.145,6544.035,1201.05,3.974562917808415,9.42912082376136,11.090148117015639,6.6504358373300585,17.339443167456903,15.830773237113128,0.6634065530640519,11.0504361386019,0.03869619,-0.9582495,-0.329161755,15.19896,72.88176,-10.117379999999999,71.0
1774822512.7610018,1.8358230590820312e-05,2026-03-29T22:15:12.761,2026-03-29T18:15:12.761,-34323.165,-46832.58,-84575.83499999999,-49550.985,-12934.755,-18034.38,6477.57,1161.72,1.6151391613390609,2.840936836166643,1.661716628305382,1.7296155274132792,12.719371743353422,11.522352399923124,-7.284643964907211,4.7451777391143555,0.03869619,-0.9582495,-0.329161755,15.19896,72.88176,-10.117379999999999,71.0
1774822512.7610176,1.5735626220703125e-05,2026-03-29T22:15:12.761,2026-03-29T18:15:12.761,-34343.415,-46870.83,-84621.015,-49583.61,-12942.18,-18050.76,6529.86,1127.835,-1.5827497109831263,-5.250831206148601,-8.815146223453603,-4.179178085340753,2.2518613872811053,2.0162860734131045,-11.908340309104252,-3.827089667199281,0.03869619,-0.9582495,-0.329161755,15.19896,72.88176,-10.117379999999999,71.0
1774822512.761036,1.8358230590820312e-05,2026-03-29T22:15:12.761,2026-03-29T18:15:12.761,-34350.255,-46885.545,-84642.705,-49591.439999999995,-12951.855,-18048.015,6559.605,1102.545,-4.042415365879712,-10.981870945764253,-15.369856179597988,-8.264590548968128,-9.20586028259419,-8.289663552515236,-10.962929961246227,-10.340844551295405,0.03869619,-0.9582495,-0.329161755,15.19896,72.88176,-10.117379999999999,71.0
1774822512.7610517,1.5735626220703125e-05,2026-03-29T22:15:12.761,2026-03-29T18:15:12.761,-34342.155,-46868.805,-84623.535,-49591.53,-12976.289999999999,-18077.265,6506.82,1087.155,-4.539830255143368,-11.563539565483696,-14.798095591306664,-8.530165893157623,-16.367203260805688,-14.690208103917199,-4.848429809100759,-11.610450464451526,0.03869619,-0.9582495,-0.329161755,15.19896,72.88176,-10.117379999999999,71.0
1774822512.76107,1.8358230590820312e-05,2026-03-29T22:15:12.761,2026-03-29T18:15:12.761,-34324.515,-46833.795,-84573.22499999999,-49542.93,-12976.289999999999,-18081.18,6555.6449999999995,1088.955,-2.8120005894443234,-6.640047130541675,-7.225032052046927,-4.7641219896966795,-15.957087392889724,-14.336601482493053,3.5681565264974084,-7.175471282464252,0.03869619,-0.9582495,-0.329161755,15.19896,72.88176,-10.117379999999999,71.0
1774822512.7610855,1.5497207641601562e-05,2026-03-29T22:15:12.761,2026-03-29T18:15:12.761,-34320.33,-46835.415,-84573.98999999999,-49536.854999999996,-13011.435,-18089.46,6590.295,1094.355,0.30898359208932064,1.5118037475589774,3.897967223130395,1.3327142514900996,-8.209791804293197,-7.511607906619561,10.321148506972973,0.5565006823434082,0.03869619,-0.9582495,-0.329161755,15.19896,72.88176,-10.117379999999999,71.0
1774822512.7828753,0.0217897891998291,2026-03-29T22:15:12.782,2026-03-29T18:15:12.782,-34300.44,-46818.72,-84560.22,-49536.674999999996,-12976.965,-18054.225,6604.425,1096.47,3.303022426758159,9.047262059578973,13.383246268798151,6.929330422395341,3.2608261495335333,2.5586864579801873,12.242768593724081,7.637905870166941,0.03869619,-0.9582495,-0.329161755,15.19896,72.88176,-10.117379999999999,71.0
1774822512.783033,0.0001575946807861328,2026-03-29T22:15:12.783,2026-03-29T18:15:12.783,-34316.19,-46819.89,-84555.045,-49543.155,-12881.609999999999,-17979.93,6583.86,1086.075,4.7084748138210655,12.379753011840489,16.743666611732117,9.391220071807943,13.14896793109779,11.241741430273322,8.469296001996625,10.64172754615255,0.03869619,-0.9582495,-0.329161755,15.19896,72.88176,-10.117379999999999,71.0
1774822512.7831223,8.940696716308594e-05,2026-03-29T22:15:12.783,2026-03-29T18:15:12.783,-34320.42,-46806.435,-84529.305,-49510.08,-12841.92,-17952.03,6592.724999999999,1065.825,3.8387769836253858,9.895481204081158,12.324044856430904,7.524527701398189,16.91465490055135,14.647025830976828,0.8313806702237255,8.360947429371056,0.0280761,-0.93920658,-0.33239661,8.10306,72.63759999999999,-9.96478,71.0
1774822512.7831693,4.696846008300781e-05,2026-03-29T22:15:12.783,2026-03-29T18:15:12.783,-34318.44,-46813.545,-84545.45999999999,-49528.89,-12921.435,-17990.01,6585.884999999999,1045.845,1.1163053791922732,2.733292637280048,2.1106540916849585,2.1483909163274455,12.872824901635465,11.38192921075067,-7.0499903124693075,2.2855832087806784,0.0280761,-0.93920658,-0.33239661,8.10306,72.63759999999999,-9.96478,71.0
1774822512.7832255,5.626678466796875e-05,2026-03-29T22:15:12.783,2026-03-29T18:15:12.783,-34329.555,-46856.384999999995,-84603.95999999999,-49556.34,-12949.109999999999,-18007.469999999998,6582.465,1029.555,-2.1384909869341775,-5.746720084872591,-9.17528501598173,-4.276383206587998,2.951079046239736,3.116736469889149,-11.510249925765608,-4.327146634700703,0.0280761,-0.93920658,-0.33239661,8.10306,72.63759999999999,-9.96478,71.0
1774822512.78327,4.4345855712890625e-05,2026-03-29T22:15:12.783,2026-03-29T18:15:12.783,-34331.445,-46858.14,-84599.055,-49554.09,-12924.494999999999,-18033.57,6566.849999999999,1013.895,-4.355191113118865,-11.553899703444607,-16.28038933596382,-8.788618956023608,-8.226581152774163,-6.268121288015343,-10.575984128457053,-8.227900348031032,0.0280761,-0.93920658,-0.33239661,8.10306,72.63759999999999,-9.96478,71.0
1774822512.7833252,5.53131103515625e-05,2026-03-29T22:15:12.783,2026-03-29T18:15:12.783,-34338.78,-46858.994999999995,-84596.31,-49549.68,-12894.255,-18024.165,6558.48,1015.605,-4.477394761415717,-11.957728303239135,-15.881564606984714,-9.30236080930514,-15.496677444680435,-12.517912029379515,-4.8527001429244905,-7.819013849732428,0.0280761,-0.93920658,-0.33239661,8.10306,72.63759999999999,-9.96478,71.0
1774822512.78336,3.4809112548828125e-05,2026-03-29T22:15:12.783,2026-03-29T18:15:12.783,-34337.205,-46858.68,-84597.39,-49563.134999999995,-12915.63,-18008.19,6555.509999999999,1022.175,-2.4681355924771347,-6.777137071086744,-8.146317723825566,-5.5731839389096445,-15.548013464447603,-12.947699664758636,2.8416332752118243,-3.815362915433857,0.0280761,-0.93920658,-0.33239661,8.10306,72.63759999999999,-9.96478,71.0
1774822512.7929208,0.009560823440551758,2026-03-29T22:15:12.792,2026-03-29T18:15:12.792,-34328.97,-46845.9,-84579.97499999999,-49547.79,-12913.785,-18004.005,6552.99,1019.61,0.6860716809161522,1.5428621115996408,3.344548082614118,0.6932024134949577,-8.438297613377388,-7.599405530965925,8.885869116916927,1.3550654974145404,0.0280761,-0.93920658,-0.33239661,8.10306,72.63759999999999,-9.96478,71.0
1774822512.7929497,2.8848648071289062e-05,2026-03-29T22:15:12.792,2026-03-29T18:15:12.792,-34326.315,-46840.32,-84569.895,-49542.165,-12913.425,-18001.98,6556.1849999999995,1002.42,3.466529704514304,9.097401590711002,13.272975481881325,6.6349335907184575,2.4628082440432,0.8883088105294595,10.595309772438075,4.995185517452479,0.0280761,-0.93920658,-0.33239661,8.10306,72.63759999999999,-9.96478,71.0
1774822512.792977,2.7418136596679688e-05,2026-03-29T22:15:12.792,2026-03-29T18:15:12.792,-34324.515,-46837.439999999995,-84574.34999999999,-49545.405,-12915.675,-18001.44,6554.655,987.9749999999999,4.5614976823022975,12.369291549804249,17.065990517381234,9.555049044102326,12.067748038523275,8.585445221554728,7.440796620649482,5.582768808121799,0.0280761,-0.93920658,-0.33239661,8.10306,72.63759999999999,-9.96478,71.0
1774822512.7929888,1.1682510375976562e-05,2026-03-29T22:15:12.792,2026-03-29T18:15:12.792,-34319.52,-46829.115,-84567.87,-49541.04,-12911.939999999999,-17996.805,6556.815,972.045,3.4900249036374875,9.877260288712911,13.016432599548867,8.153834210393194,15.950327200890374,12.103655423504815,1.1804429754669097,3.428065826066711,0.0280761,-0.93920658,-0.33239661,8.10306,72.63759999999999,-9.96478,71.0
1774822512.793002,1.3113021850585938e-05,2026-03-29T22:15:12.793,2026-03-29T18:15:12.793,-34327.395,-46831.634999999995,-84564.765,-49537.53,-12908.475,-17992.26,6558.795,953.28,0.8115931559031091,2.8478115011483163,3.0522298092029314,3.105936170088242,12.396050768256288,10.095662109674501,-5.108769658068512,0.24964741880727595,0.021545355,-0.92931891,-0.337584585,-0.8698199999999999,71.61518,-8.82028,71.0
1774822512.793012,1.0013580322265625e-05,2026-03-29T22:15:12.793,2026-03-29T18:15:12.793,-34329.645,-46843.335,-84576.555,-49542.345,-12911.984999999999,-17994.239999999998,6562.9349999999995,935.9549999999999,-2.16887215222256,-5.394450285626666,-8.192755239450893,-3.273126051313759,3.169196685756432,3.754061831345074,-8.57242165727891,-1.9976048393536474,0.021545355,-0.92931891,-0.337584585,-0.8698199999999999,71.61518,-8.82028,71.0
1774822512.7930245,1.2636184692382812e-05,2026-03-29T22:15:12.793,2026-03-29T18:15:12.793,-34325.46,-46841.759999999995,-84577.995,-49547.159999999996,-12917.789999999999,-17997.93,6573.87,929.88,-4.044151806004664,-11.012529887054532,-15.553812220782023,-8.102824643150257,-7.351744796783475,-3.8650439624263657,-7.9097758008186485,-2.302225217885719,0.021545355,-0.92931891,-0.337584585,-0.8698199999999999,71.61518,-8.82028,71.0
1774822512.7930343,9.775161743164062e-06,2026-03-29T22:15:12.793,2026-03-29T18:15:12.793,-34329.78,-46843.965,-84582.81,-49553.865,-12924.09,-18004.094999999998,6568.065,939.51,-3.9759507918057952,-11.4567197156999,-15.726747529204214,-9.250130641540157,-14.251725381298217,-9.320669489377869,-3.857170570738347,-1.084131433268087,0.021545355,-0.92931891,-0.337584585,-0.8698199999999999,71.61518,-8.82028,71.0
1774822512.808407,0.015372753143310547,2026-03-29T22:15:12.808,2026-03-29T18:15:12.808,-34325.505,-46832.174999999996,-84564.765,-49536.18,-12913.965,-17990.415,6558.974999999999,946.395,-2.0710903106812966,-6.628338289869687,-8.759903406410306,-6.275635592825351,-14.384557878045737,-10.349314371223212,1.3550331395216368,0.2595355450341032,0.021545355,-0.92931891,-0.337584585,-0.8698199999999999,71.61518,-8.82028,71.0
1774822512.808429,2.193450927734375e-05,2026-03-29T22:15:12.808,2026-03-29T18:15:12.808,-34330.905,-46840.634999999995,-84572.055,-49550.805,-12958.74,-18012.239999999998,6559.425,938.5649999999999,0.7066268910292104,1.1263372619913232,2.0306508332507383,-0.5921185118891447,-7.820756954195224,-6.797776470591599,5.225345864031953,0.417406395478883,0.021545355,-0.92931891,-0.337584585,-0.8698199999999999,71.61518,-8.82028,71.0
1774822512.8084512,2.2172927856445312e-05,2026-03-29T22:15:12.808,2026-03-29T18:15:12.808,-34334.1,-46844.82,-84578.895,-49562.549999999996,-12980.564999999999,-18032.76,6555.33,927.18,3.028062152763808,8.163754875142873,11.652885586123885,5.215733908510314,2.234865959933417,-0.5458505254844149,6.217213982343975,-0.8673907866398501,0.021545355,-0.92931891,-0.337584585,-0.8698199999999999,71.61518,-8.82028,71.0
1774822512.8084612,1.0013580322265625e-05,2026-03-29T22:15:12.808,2026-03-29T18:15:12.808,-34330.455,-46833.615,-84566.565,-49548.869999999995,-12920.939999999999,-18000.45,6551.505,907.02,3.841536889089919,11.267801474697425,15.767792019831314,8.579104822795262,11.000186632488646,5.4759170405922335,4.382609434447989,-2.5618363178503927,0.021545355,-0.92931891,-0.337584585,-0.8698199999999999,71.61518,-8.82028,71.0
1774822512.8084738,1.2636184692382812e-05,2026-03-29T22:15:12.808,2026-03-29T18:15:12.808,-34329.555,-46832.31,-84564.18,-49537.08,-12869.73,-17965.53,6554.115,875.385,2.8530303062519855,9.129678398121559,12.660605495275723,8.089242813761661,14.394395690113774,8.664293273517035,1.1111476538695648,-3.0192274282760083,0.021545355,-0.92931891,-0.337584585,-0.8698199999999999,71.61518,-8.82028,71.0
1774822512.808483,9.059906005859375e-06,2026-03-29T22:15:12.808,2026-03-29T18:15:12.808,-34326.135,-46837.395,-84573.405,-49542.975,-12901.41,-17982.18,6564.0599999999995,844.875,0.6230040785975564,2.897766089232858,3.9525007160211714,4.085153896864163,10.950517455771802,7.866790728992931,-1.7780996786542997,-1.1621277465217734,0.021545355,-0.92931891,-0.337584585,-0.8698199999999999,71.61518,-8.82028,71.0
1774822512.8084939,1.0967254638671875e-05,2026-03-29T22:15:12.808,2026-03-29T18:15:12.808,-34320.33,-46835.865,-84567.015,-49529.34,-12893.22,-17976.015,6563.835,819.855,-1.745844969596691,-4.432022511400647,-6.240625228360362,-1.5587167779997773,2.4594408135564194,3.7670271757831895,-3.05136648693389,2.58483105368042,0.019958445000000002,-0.94006107,-0.344176365,2.48738,74.17886,-8.118319999999999,71.0
1774822512.808503,9.059906005859375e-06,2026-03-29T22:15:12.808,2026-03-29T18:15:12.808,-34329.6,-46843.335,-84577.185,-49537.89,-12899.789999999999,-17989.065,6526.035,816.435,-3.158134186576928,-9.46446924231873,-13.267620134800675,-6.3190722330737366,-6.942813847539335,-1.5772378005073349,-2.6164701745240886,6.264921379253133,0.019958445000000002,-0.94006107,-0.344176365,2.48738,74.17886,-8.118319999999999,71.0
1774822512.8189209,0.010417938232421875,2026-03-29T22:15:12.818,2026-03-29T18:15:12.818,-34334.909999999996,-46850.985,-84593.34,-49567.14,-12930.975,-18010.665,6509.5199999999995,805.365,-3.0370216918001223,-9.988416683884447,-14.080964947594277,-8.16150361836867,-12.7866686594385,-5.760727307613064,-1.3545189318179776,7.394558326647201,0.019958445000000002,-0.94006107,-0.344176365,2.48738,74.17886,-8.118319999999999,71.0
1774822512.8189452,2.4318695068359375e-05,2026-03-29T22:15:12.818,2026-03-29T18:15:12.818,-34327.755,-46838.88,-84576.555,-49557.33,-12928.68,-18001.755,6528.0599999999995,789.795,-1.5565857341061367,-5.952437804353766,-8.56445799236573,-6.412374560420075,-12.40202481376976,-7.111420986447876,-0.39450299081075846,4.492452653502423,0.019958445000000002,-0.94006107,-0.344176365,2.48738,74.17886,-8.118319999999999,71.0
1774822512.8189683,2.3126602172851562e-05,2026-03-29T22:15:12.818,2026-03-29T18:15:12.818,-34313.13,-46814.31,-84541.545,-49520.88,-12890.34,-17964.315,6562.575,770.13,0.49612305844612725,0.599088884626684,0.5309359427459682,-1.9905469908392275,-6.15055245373589,-5.340684446494338,-0.3163657006006441,-1.7638344451312358,0.019958445000000002,-0.94006107,-0.344176365,2.48738,74.17886,-8.118319999999999,71.0
1774822512.8189785,1.0251998901367188e-05,2026-03-29T22:15:12.818,2026-03-29T18:15:12.818,-34316.729999999996,-46812.509999999995,-84533.625,-49516.74,-12887.234999999999,-17960.13,6580.844999999999,740.0699999999999,2.1371498598695005,6.558891436545119,8.959035310854047,3.071896397863755,2.8177364001570164,-1.520737902830927,-0.7902191338519065,-8.525066738562005,0.019958445000000002,-0.94006107,-0.344176365,2.48738,74.17886,-8.118319999999999,71.0
1774822512.8267334,0.007754802703857422,2026-03-29T22:15:12.826,2026-03-29T18:15:12.826,-34320.284999999996,-46814.445,-84533.48999999999,-49530.465,-12907.215,-17978.04,6572.745,706.995,2.6608316745216136,9.237801492120552,12.973847862705789,6.571371586698468,10.13987282985682,2.526220748654891,-0.8759159420161873,-12.070053359554532,0.019958445000000002,-0.94006107,-0.344176365,2.48738,74.17886,-8.118319999999999,71.0
1774822512.8267612,2.7894973754882812e-05,2026-03-29T22:15:12.826,2026-03-29T18:15:12.826,-34333.424999999996,-46830.689999999995,-84549.69,-49547.43,-12926.519999999999,-17998.065,6522.12,674.55,1.9432247511329859,7.585001789426378,11.00526322435981,7.0973068506487555,12.363737174324934,5.091261034133296,0.21381079689788707,-9.823744345310194,0.019958445000000002,-0.94006107,-0.344176365,2.48738,74.17886,-8.118319999999999,71.0
1774822512.8267865,2.5272369384765625e-05,2026-03-29T22:15:12.826,2026-03-29T18:15:12.826,-34336.71,-46839.465,-84565.485,-49549.409999999996,-12928.769999999999,-18016.155,6466.59,651.015,0.4437072614782779,2.5912242933063423,4.261141578733516,4.595296950827716,8.585079165030113,5.287517027685348,2.390950036083193,-2.008890211977489,0.019958445000000002,-0.94006107,-0.344176365,2.48738,74.17886,-8.118319999999999,71.0
1774822512.8267944,7.867813110351562e-06,2026-03-29T22:15:12.826,2026-03-29T18:15:12.826,-34335.045,-46856.744999999995,-84599.81999999999,-49563.854999999996,-12924.675,-17998.829999999998,6521.535,628.92,-1.0691215330642798,-3.274322678475979,-3.967951463062977,0.3074605972898964,0.816477210480466,3.3178471004543355,4.518598182283072,8.06404968803376,0.019958445000000002,-0.94006107,-0.344176365,2.48738,74.17886,-8.118319999999999,71.0
1774822512.8268023,7.867813110351562e-06,2026-03-29T22:15:12.826,2026-03-29T18:15:12.826,-34296.975,-46821.24,-84564.09,-49531.68,-12876.66,-17924.265,6625.08,609.255,-1.910255652704005,-7.28359608655591,-9.916117162885364,-3.843720692429059,-7.06359801000184,0.2465122530455289,4.977484792001982,15.396039083297977,0.01318356,-0.9472632,-0.34710604500000003,2.9757,73.15644,-8.667679999999999,71.0
1774822512.8268082,5.9604644775390625e-06,2026-03-29T22:15:12.826,2026-03-29T18:15:12.826,-34313.13,-46839.33,-84578.44499999999,-49540.365,-12918.644999999999,-17944.739999999998,6586.245,584.1,-1.7895627693925775,-7.724024861043429,-11.075651721059845,-6.122685547271888,-11.24048260501424,-2.5566530121769757,2.700893003242822,15.798736766224335,0.01318356,-0.9472632,-0.34710604500000003,2.9757,73.15644,-8.667679999999999,71.0
1774822512.8435442,0.01673603057861328,2026-03-29T22:15:12.843,2026-03-29T18:15:12.843,-34322.58,-46839.015,-84572.81999999999,-49543.47,-12967.289999999999,-17971.515,6506.955,539.685,-0.8998846235867902,-4.630214888807579,-7.254737229904759,-5.705942164155701,-9.813466660177083,-4.015700315401227,-1.9311817379145804,8.235070525270594,0.01318356,-0.9472632,-0.34710604500000003,2.9757,73.15644,-8.667679999999999,71.0
1774822512.8435652,2.09808349609375e-05,2026-03-29T22:15:12.843,2026-03-29T18:15:12.843,-34343.19,-46856.205,-84592.8,-49561.92,-12953.88,-17999.954999999998,6561.63,497.15999999999997,0.2366979348694404,0.3389389373667753,-0.513854200552689,-2.963012142609968,-3.666517463630148,-3.735174369021666,-6.943217772499833,-4.288952896389571,0.01318356,-0.9472632,-0.34710604500000003,2.9757,73.15644,-8.667679999999999,71.0
1774822512.8435848,1.9550323486328125e-05,2026-03-29T22:15:12.843,2026-03-29T18:15:12.843,-34326.9,-46841.805,-84575.565,-49544.685,-12852.99,-17940.375,6606.585,453.28499999999997,1.0623424415830613,4.772092242969884,5.921148255319698,0.7926626635404473,4.042552181810846,-2.0513728558981157,-9.588683077845012,-15.897689395539356,0.01318356,-0.9472632,-0.34710604500000003,2.9757,73.15644,-8.667679999999999,71.0
1774822512.84359,5.245208740234375e-06,2026-03-29T22:15:12.843,2026-03-29T18:15:12.843,-34295.67,-46815.84,-84553.37999999999,-49530.689999999995,-12842.865,-17955.54,6563.16,405.765,1.2561862593003281,6.674525570610524,9.204708659270073,3.93259683500141,9.491318699009716,0.2123813919531618,-7.814554985983911,-20.639446837817964,0.01318356,-0.9472632,-0.34710604500000003,2.9757,73.15644,-8.667679999999999,71.0
1774822512.8435948,4.76837158203125e-06,2026-03-29T22:15:12.843,2026-03-29T18:15:12.843,-34312.095,-46835.595,-84575.385,-49555.034999999996,-12889.98,-17982.809999999998,6565.86,363.41999999999996,0.8536100844886337,5.368289256763128,8.134728977923485,5.221011959927504,10.084653908361668,2.134162267070605,-1.5992753307259655,-15.554456261874751,0.01318356,-0.9472632,-0.34710604500000003,2.9757,73.15644,-8.667679999999999,71.0
1774822512.8435984,3.5762786865234375e-06,2026-03-29T22:15:12.843,2026-03-29T18:15:12.843,-34300.799999999996,-46799.685,-84525.12,-49501.439999999995,-12844.394999999999,-17918.73,6576.884999999999,329.03999999999996,0.1712891971201967,1.7166403856247499,3.5710883036308325,4.293731931790018,5.693156120024119,3.0482122153038866,6.639739135984139,-2.427381909215322,0.01318356,-0.9472632,-0.34710604500000003,2.9757,73.15644,-8.667679999999999,71.0
1774822512.8436034,5.0067901611328125e-06,2026-03-29T22:15:12.843,2026-03-29T18:15:12.843,-34327.53,-46820.564999999995,-84537.58499999999,-49518.494999999995,-12883.994999999999,-17943.48,6558.705,294.57,-0.39921343323542535,-2.3908336548767424,-2.1231767593622584,1.7272477159036652,-1.3547511858856311,2.7419367765517464,12.948871309527751,12.781547867195624,0.01318356,-0.9472632,-0.34710604500000003,2.9757,73.15644,-8.667679999999999,71.0
1774822512.8436072,3.814697265625e-06,2026-03-29T22:15:12.843,2026-03-29T18:15:12.843,-34330.77,-46851.705,-84584.83499999999,-49574.025,-12957.39,-18002.969999999998,6575.355,245.7,-0.6058488611576983,-5.001968954612124,-6.287383598934846,-1.290696425476813,-7.491577380740597,1.4596705293838577,13.737682649866475,22.682606800265056,0.01318356,-0.9472632,-0.34710604500000003,2.9757,73.15644,-8.667679999999999,71.0
1774822512.8501647,0.006557464599609375,2026-03-29T22:15:12.850,2026-03-29T18:15:12.850,-34310.79,-46833.975,-84572.81999999999,-49561.155,-12923.144999999999,-17970.434999999998,6583.59,134.37,-0.4447017548061879,-5.028501126729651,-7.207218292961513,-3.5097669526480515,-9.708001404242134,-0.24536436343514095,7.761454901047399,22.09579200466928,0.0042114150000000005,-0.9484839,-0.351500565,4.25754,69.40248,-9.88848,71.0
1774822512.8501873,2.2649765014648438e-05,2026-03-29T22:15:12.850,2026-03-29T18:15:12.850,-34311.06,-46815.345,-84543.39,-49529.205,-12840.074999999999,-17908.92,6589.215,-8.1,-0.11778255584361721,-2.696519372129509,-4.815757648781739,-4.132340791470147,-7.025550053064313,-1.7317977294945177,-2.886731748766302,10.768599776091008,0.0042114150000000005,-0.9484839,-0.351500565,4.25754,69.40248,-9.88848,71.0
1774822512.8502035,1.621246337890625e-05,2026-03-29T22:15:12.850,2026-03-29T18:15:12.850,-34308.854999999996,-46819.35,-84546.09,-49522.59,-12845.88,-17914.005,6600.195,-143.73,0.11876234866655927,0.6632542604623445,-0.5682145415067285,-3.085212706545975,-0.9243499972682964,-2.48573484593359,-13.434344953245192,-6.2577538042762075,0.0042114150000000005,-0.9484839,-0.351500565,4.25754,69.40248,-9.88848,71.0
1774822512.8502104,6.9141387939453125e-06,2026-03-29T22:15:12.850,2026-03-29T18:15:12.850,-34312.095,-46833.75,-84562.56,-49527.99,-12860.144999999999,-17921.7,6602.985,-266.94,0.11853275700134339,3.341178846061719,3.3824144490255765,-0.9641749430663015,5.459033170317357,-2.27555175533173,-18.58028429475944,-20.924594067354956,0.0042114150000000005,-0.9484839,-0.351500565,4.25754,69.40248,-9.88848,71.0
1774822512.8750644,0.024853944778442383,2026-03-29T22:15:12.875,2026-03-29T18:15:12.875,-34315.604999999996,-46833.165,-84563.45999999999,-49532.22,-12869.91,-17934.344999999998,6587.099999999999,-370.53,-0.07476979330026044,4.106120859320052,5.261244334216619,1.2854092561467774,8.934268227078917,-1.2142641320076628,-15.164456421283601,-26.031286325566562,0.0042114150000000005,-0.9484839,-0.351500565,4.25754,69.40248,-9.88848,71.0
1774822512.8750968,3.24249267578125e-05,2026-03-29T22:15:12.875,2026-03-29T18:15:12.875,-34316.955,-46831.005,-84558.23999999999,-49529.07,-12870.449999999999,-17936.505,6575.8949999999995,-459.45,-0.2712969655383608,2.7695985415678797,4.467385495063973,2.787398569502905,7.84459159320673,0.2829471503399408,-4.008650094357072,-18.818011701988453,0.0042114150000000005,-0.9484839,-0.351500565,4.25754,69.40248,-9.88848,71.0
1774822512.8751235,2.6702880859375e-05,2026-03-29T22:15:12.875,2026-03-29T18:15:12.875,-34321.455,-46837.53,-84562.245,-49533.075,-12873.689999999999,-17942.579999999998,6566.3099999999995,-528.5699999999999,-0.26984998333959903,0.19952411146243873,1.7344197581595628,3.06934864855235,2.851042607394486,1.6391945595753583,10.110621408010031,-2.451671049937527,0.0042114150000000005,-0.9484839,-0.351500565,4.25754,69.40248,-9.88848,71.0
1774822512.8751354,1.1920928955078125e-05,2026-03-29T22:15:12.875,2026-03-29T18:15:12.875,-34315.47,-46831.32,-84558.87,-49534.56,-12875.355,-17941.094999999998,6571.08,-592.605,0.0014023590042352724,-2.189417463876062,-1.3661429384950396,2.189332651245837,-3.455481148312473,2.321394275054284,20.51333486477441,15.383281124338756,0.0042114150000000005,-0.9484839,-0.351500565,4.25754,69.40248,-9.88848,71.0
1774822512.875149,1.3589859008789062e-05,2026-03-29T22:15:12.875,2026-03-29T18:15:12.875,-34308.765,-46822.365,-84548.83499999999,-49530.42,-12875.984999999999,-17934.75,6571.035,-668.5649999999999,0.42426412506524785,-3.185612491510351,-3.280379098679821,0.6348246280962171,-7.891880100981732,2.0481040758213767,21.809281106858432,26.1531176544477,0.0042114150000000005,-0.9484839,-0.351500565,4.25754,69.40248,-9.88848,71.0
1774822512.87516,1.0967254638671875e-05,2026-03-29T22:15:12.875,2026-03-29T18:15:12.875,-34310.295,-46822.994999999995,-84547.395,-49529.115,-12871.125,-17926.92,6560.415,-758.475,0.7478686890441457,-2.3833566019832877,-3.2367571702898146,-0.930554741755476,-8.281684364361503,0.9191476250723576,12.692298876633604,24.623404766144546,0.0042114150000000005,-0.9484839,-0.351500565,4.25754,69.40248,-9.88848,71.0
1774822512.875173,1.3113021850585938e-05,2026-03-29T22:15:12.875,2026-03-29T18:15:12.875,-34305.525,-46816.92,-84540.23999999999,-49526.145,-12872.519999999999,-17936.325,6545.07,-862.155,0.7331438379930841,-0.34356226645098803,-1.5496174710492077,-1.9468495329330546,-4.51435852627558,-0.6002025842345573,-3.114770608259453,11.441439259059887,-0.006652815,-0.944272485,-0.358458555,-8.56086,61.28416,-9.980039999999999,71.0
1774822512.875183,1.0013580322265625e-05,2026-03-29T22:15:12.875,2026-03-29T18:15:12.875,-34309.89,-46818.405,-84541.31999999999,-49531.994999999995,-12884.175,-17955.675,6522.4349999999995,-963.045,0.3025629760612529,1.7482722321927167,0.6531346125271303,-2.148687326081388,1.4473467153695851,-1.8561819955708667,-18.36979045880281,-7.138618263764741,-0.006652815,-0.944272485,-0.358458555,-8.56086,61.28416,-9.980039999999999,71.0
1774822512.8906589,0.015475749969482422,2026-03-29T22:15:12.890,2026-03-29T18:15:12.890,-34309.17,-46817.595,-84541.23,-49538.79,-12888.945,-17954.235,6546.735,-1065.375,-0.39165481777777617,2.7320884646767327,2.096434100973533,-1.6079409958049753,6.589421648385138,-2.286362243080652,-25.67142541198602,-22.270705215241286,-0.006652815,-0.944272485,-0.358458555,-8.56086,61.28416,-9.980039999999999,71.0
1774822512.8906832,2.4318695068359375e-05,2026-03-29T22:15:12.890,2026-03-29T18:15:12.890,-34299.045,-46793.7,-84508.605,-49506.075,-12852.585,-17913.825,6600.33,-1165.725,-1.0244985300846923,2.0877239305506965,2.0497050578451725,-0.6396453556407834,8.365801361023758,-1.6831757736131778,-21.092058503025076,-26.796584319794686,-0.006652815,-0.944272485,-0.358458555,-8.56086,61.28416,-9.980039999999999,71.0
1774822512.8907073,2.4080276489257812e-05,2026-03-29T22:15:12.890,2026-03-29T18:15:12.890,-34314.705,-46825.83,-84549.915,-49526.189999999995,-12861.225,-17917.38,6594.4349999999995,-1259.595,-1.2561760414293557,0.1984963622728617,0.6838973057862927,0.36392902286099893,5.950231799401697,-0.3115387739138849,-6.281437756275285,-18.68882708286812,-0.006652815,-0.944272485,-0.358458555,-8.56086,61.28416,-9.980039999999999,71.0
1774822512.8907187,1.1444091796875e-05,2026-03-29T22:15:12.890,2026-03-29T18:15:12.890,-34318.305,-46846.71,-84579.12,-49540.5,-12869.595,-17926.515,6571.755,-1345.095,-0.9114353689403178,-1.865118857592274,-1.0751736677920782,1.0896995014943232,0.608550277933391,1.1927900284991078,12.083228190282695,-1.9752986944144413,-0.006652815,-0.944272485,-0.358458555,-8.56086,61.28416,-9.980039999999999,71.0
1774822512.8907325,1.3828277587890625e-05,2026-03-29T22:15:12.890,2026-03-29T18:15:12.890,-34312.32,-46836.945,-84566.16,-49530.645,-12859.109999999999,-17910.719999999998,6591.554999999999,-1423.3049999999998,-0.08640878247715873,-2.9232549603487437,-2.0978827545547856,1.3903378127431438,-4.970348710925014,2.11396273211119,25.346846824361737,15.283800494873782,-0.006652815,-0.944272485,-0.358458555,-8.56086,61.28416,-9.980039999999999,71.0
1774822512.8907435,1.0967254638671875e-05,2026-03-29T22:15:12.890,2026-03-29T18:15:12.890,-34300.619999999995,-46820.384999999995,-84546.18,-49518.54,-12850.244999999999,-17901.54,6609.78,-1508.04,0.8759788930133141,-2.323611520268058,-1.6995243781673406,1.2834517929101001,-8.029043273007273,2.0047373702047024,27.015839762176903,24.940130969656842,-0.006652815,-0.944272485,-0.358458555,-8.56086,61.28416,-9.980039999999999,71.0
1774822512.8907568,1.33514404296875e-05,2026-03-29T22:15:12.890,2026-03-29T18:15:12.890,-34292.655,-46808.235,-84531.015,-49508.909999999996,-12846.42,-17902.215,6608.88,-1606.455,1.53549437669932,-0.3063299348742674,-0.03656793378912493,0.8880325445187824,-7.098356851574674,0.9192107699397791,15.980630916385046,22.66658502108735,-0.006652815,-0.944272485,-0.358458555,-8.56086,61.28416,-9.980039999999999,71.0
1774822512.8907678,1.0967254638671875e-05,2026-03-29T22:15:12.890,2026-03-29T18:15:12.890,-34291.305,-46806.345,-84532.185,-49511.79,-12851.82,-17913.51,6591.6449999999995,-1700.6399999999999,1.559778391300921,2.095719583214341,1.9615150616848185,0.34560665530159196,-2.69101547906999,-0.5984057984726614,-2.7975755178408694,9.927777399152255,-0.006652815,-0.944272485,-0.358458555,-8.56086,61.28416,-9.980039999999999,71.0
1774822512.8932056,0.0024378299713134766,2026-03-29T22:15:12.893,2026-03-29T18:15:12.893,-34300.89,-46819.755,-84550.815,-49534.29,-12877.064999999999,-17943.614999999998,6543.45,-1814.715,0.8875281258555638,3.5774592902439686,3.0909734441553276,-0.23053743986264297,2.9897239600051027,-1.7780895189126742,-20.544624514081427,-6.9001343602138885,-0.00830076,-0.948544935,-0.362853075,-20.57048,54.69184,-8.43878,71.0
1774822512.8932204,1.4781951904296875e-05,2026-03-29T22:15:12.893,2026-03-29T18:15:12.893,-34295.22,-46811.7,-84543.56999999999,-49535.189999999995,-12889.215,-17971.29,6382.53,-1942.0649999999998,-0.22893047352112184,3.2434825789725497,2.5422230589730552,-0.7599625452352936,7.158261344884167,-2.0167191709402763,-28.836974720869897,-19.751302565642096,-0.00830076,-0.948544935,-0.362853075,-20.57048,54.69184,-8.43878,71.0
1774822512.8932357,1.52587890625e-05,2026-03-29T22:15:12.893,2026-03-29T18:15:12.893,-34309.485,-46811.88,-84542.48999999999,-49542.119999999995,-12903.255,-17983.8,6350.219999999999,-2096.5499999999997,-1.3238825004146764,1.1044925387524134,0.3843705832284775,-1.166971687159366,7.810969732388074,-1.1978205247302935,-23.666946239255736,-22.791553584097752,-0.00830076,-0.948544935,-0.362853075,-20.57048,54.69184,-8.43878,71.0
1774822512.8932424,6.67572021484375e-06,2026-03-29T22:15:12.893,2026-03-29T18:15:12.893,-34283.565,-46771.875,-84489.165,-49495.275,-12848.4,-17907.48,6577.83,-2271.555,-1.9175329312180298,-1.8729318435658577,-2.39947910204981,-1.3540421184222111,4.6788078990365864,0.23594067769194754,-7.417495887773996,-15.107523449775847,-0.00830076,-0.948544935,-0.362853075,-20.57048,54.69184,-8.43878,71.0
1774822512.9000843,0.006841897964477539,2026-03-29T22:15:12.900,2026-03-29T18:15:12.900,-34265.61,-46766.159999999996,-84478.95,-49472.775,-12815.279999999999,-17856.675,6709.1849999999995,-2481.66,-1.726110513535155,-4.206297550505718,-4.365538552356159,-1.2101431784404533,-0.6797815103357581,1.5079441000048106,12.24399858391043,-0.9053903472782996,-0.00830076,-0.948544935,-0.362853075,-20.57048,54.69184,-8.43878,71.0
1774822512.900105,2.0742416381835938e-05,2026-03-29T22:15:12.900,2026-03-29T18:15:12.900,-34272.045,-46802.43,-84525.84,-49496.174999999996,-12877.109999999999,-17885.969999999998,6665.085,-2814.8849999999998,-0.7907040676675857,-4.624967022871608,-4.339502861188436,-0.6645545122116282,-5.665516896772037,1.9216043890251702,26.03712011713788,12.768156480808905,-0.00830076,-0.948544935,-0.362853075,-20.57048,54.69184,-8.43878,71.0
