unix_time_s,dt_s,UTC,LOCAL,EMG1_Raw,EMG2_Raw,EMG3_Raw,EMG4_Raw,EMG5_Raw,EMG6_Raw,EMG7_Raw,EMG8_Raw,EMG1_Filtered,EMG2_Filtered,EMG3_Filtered,EMG4_Filtered,EMG5_Filtered,EMG6_Filtered,EMG7_Filtered,EMG8_Filtered,Accel1_Raw,Accel2_Raw,Accel3_Raw,Gyro1_Raw,Gyro2_Raw,Gyro3_Raw,Battery
1774823570.693284,,2026-03-29T22:32:50.693,2026-03-29T18:32:50.693,-21363.704999999998,-44205.165,-76834.215,-48810.33,-8668.485,-16305.435,8108.1449999999995,-65531.744999999995,-2.153083144560133,-2.0133255135339083,-2.7863096380741945,-2.3723134440041562,-2.1117796596955962,-2.272749722003539,-2.3613653783545114,-2.1831608222339263,0.131530425,-0.989438385,0.14392053,0.77826,0.59514,-6.683879999999999,67.0
1774823570.6932943,1.0251998901367188e-05,2026-03-29T22:32:50.693,2026-03-29T18:32:50.693,-21359.565,-44207.1,-76840.785,-48826.89,-8686.664999999999,-16324.019999999999,8109.224999999999,-65528.369999999995,-1.1075682697404854,-0.77302986403326,-1.7026682479398978,-7.061433950066667,-7.001601813793505,-5.446647807535759,-0.34791923868348124,1.274463332402818,0.131530425,-0.989438385,0.14392053,0.77826,0.59514,-6.683879999999999,67.0
1774823570.7045832,0.011288881301879883,2026-03-29T22:32:50.704,2026-03-29T18:32:50.704,-21338.01,-44178.84,-76805.28,-48809.115,-8675.505,-16315.785,8095.1849999999995,-65514.06,0.3227808926034391,0.5679059501564793,-0.04509614553193636,-8.530810778592945,-8.651242078449947,-6.090229960204332,1.6638138865290886,4.189014293029559,0.131530425,-0.989438385,0.14392053,0.77826,0.59514,-6.683879999999999,67.0
1774823570.704599,1.5735626220703125e-05,2026-03-29T22:32:50.704,2026-03-29T18:32:50.704,-21348.63,-44185.005,-76802.175,-48802.545,-8670.465,-16308.99,8113.1849999999995,-65511.54,1.4843902304396122,1.291686664021854,1.3720635466273436,-6.094020999929264,-6.308951330050684,-3.8935829500264,2.9714229652285713,5.4139140791174585,0.131530425,-0.989438385,0.14392053,0.77826,0.59514,-6.683879999999999,67.0
1774823570.7046113,1.239776611328125e-05,2026-03-29T22:32:50.704,2026-03-29T18:32:50.704,-21373.425,-44207.865,-76813.65,-48809.52,-8678.07,-16318.98,8115.66,-65517.975,1.900346617168739,1.123667631873669,1.9598521660008603,-0.8733571605993845,-1.0872691410714157,0.11235866100551126,3.1765570122730042,4.479066498446503,0.131530425,-0.989438385,0.14392053,0.77826,0.59514,-6.683879999999999,67.0
1774823570.704615,3.814697265625e-06,2026-03-29T22:32:50.704,2026-03-29T18:32:50.704,-21379.23,-44217.27,-76824.135,-48813.03,-8680.41,-16320.869999999999,8123.58,-65519.235,1.4672104945951714,0.3360195117195641,1.602135063698346,4.72171743031531,4.5692914861197895,4.042720534676677,2.273449639788276,1.7614452707991657,0.131530425,-0.989438385,0.14392053,0.77826,0.59514,-6.683879999999999,67.0
1774823570.7046206,5.4836273193359375e-06,2026-03-29T22:32:50.704,2026-03-29T18:32:50.704,-21356.73,-44200.439999999995,-76814.86499999999,-48802.185,-8669.34,-16310.925,8131.1849999999995,-65511.72,0.4655560231497748,-0.4635141907292733,0.6433694053139771,8.118810251483486,8.041317143464328,6.054982813312179,0.6077212279814495,-1.667631243264235,0.131530425,-0.989438385,0.14392053,0.77826,0.59514,-6.683879999999999,67.0
1774823570.7046242,3.5762786865234375e-06,2026-03-29T22:32:50.704,2026-03-29T18:32:50.704,-21343.41,-44190.314999999995,-76813.245,-48793.77,-8654.805,-16296.164999999999,8124.255,-65504.744999999995,-0.6047038699661855,-0.7217676017079979,-0.34931831923566437,7.779436879461888,7.7629720544948455,5.224306524425633,-1.2534123299912825,-4.456115495918472,0.131530425,-0.989438385,0.14392053,0.77826,0.59514,-6.683879999999999,67.0
1774823570.7088528,0.0042285919189453125,2026-03-29T22:32:50.708,2026-03-29T18:32:50.708,-21348.855,-44202.24,-76836.915,-48815.46,-8671.68,-16310.07,8108.775,-65507.67,-1.2728076231098333,-0.27913505433596947,-0.9048830057719092,3.904929914014117,3.9385236077825767,1.976707621549032,-2.6922318255092024,-5.491280271190223,0.131530425,-0.989438385,0.14392053,0.77826,0.59514,-6.683879999999999,67.0
1774823570.7088747,2.193450927734375e-05,2026-03-29T22:32:50.708,2026-03-29T18:32:50.708,-21355.335,-44210.115,-76843.44,-48830.625,-8692.244999999999,-16328.07,8100.945,-65510.505,-1.306671815934924,0.5374010365255356,-0.8747640269216341,-1.6770644911029258,-1.5860973105967375,-2.1268312681481283,-3.2158571909649076,-4.334245559385511,0.131530425,-0.989438385,0.14392053,0.77826,0.59514,-6.683879999999999,67.0
1774823570.7135365,0.0046617984771728516,2026-03-29T22:32:50.713,2026-03-29T18:32:50.713,-21369.735,-44217.72,-76838.715,-48828.735,-8692.65,-16323.93,8142.48,-65522.115,-0.7895096713497101,1.11909493193948,-0.45727867021382557,-6.383815831886968,-6.222083201938547,-5.147166093104046,-2.6062678651232924,-1.4053439042671259,0.12499968,-0.983945235,0.14623986,-2.01432,-3.25038,-5.84458,67.0
1774823570.713558,2.1457672119140625e-05,2026-03-29T22:32:50.713,2026-03-29T18:32:50.713,-21375.989999999998,-44220.78,-76843.98,-48832.965,-8694.945,-16323.705,8144.549999999999,-65527.92,-0.04062147788558077,0.9591811307482633,-0.027143526773878237,-8.087186952785945,-7.865919452844181,-5.695067661262904,-1.0118777114377149,2.1572229361778037,0.12499968,-0.983945235,0.14623986,-2.01432,-3.25038,-5.84458,67.0
1774823570.7152016,0.0016436576843261719,2026-03-29T22:32:50.715,2026-03-29T18:32:50.715,-21361.274999999998,-44205.255,-76828.59,-48814.604999999996,-8676.494999999999,-16310.835,8131.995,-65519.369999999995,0.5662110685273681,-0.007929729973704006,0.11706663535269826,-6.08838357388596,-5.86739831475941,-3.581101948897938,1.058070054180251,4.9250500235393035,0.12499968,-0.983945235,0.14623986,-2.01432,-3.25038,-5.84458,67.0
1774823570.7152107,9.059906005859375e-06,2026-03-29T22:32:50.715,2026-03-29T18:32:50.715,-21359.43,-44201.34,-76820.58,-48807.63,-8670.015,-16305.615,8128.755,-65521.259999999995,0.788609435788062,-1.3155725846165307,-0.0639836106857026,-1.4052023859454168,-1.2854705628423253,0.1219326828302802,2.8642087926292388,5.741927051800244,0.12499968,-0.983945235,0.14623986,-2.01432,-3.25038,-5.84458,67.0
1774823570.7197437,0.004533052444458008,2026-03-29T22:32:50.719,2026-03-29T18:32:50.719,-21365.19,-44200.979999999996,-76813.425,-48803.58,-8671.05,-16309.439999999999,8112.599999999999,-65535.615,0.6140744851744762,-2.1903738469151564,-0.341614725322646,3.746909029283159,3.6683601496628966,3.62340962943027,3.6819769665270563,4.206146606577745,0.12499968,-0.983945235,0.14623986,-2.01432,-3.25038,-5.84458,67.0
1774823570.719776,3.218650817871094e-05,2026-03-29T22:32:50.719,2026-03-29T18:32:50.719,-21380.535,-44215.83,-76828.41,-48809.835,-8680.59,-16323.705,8077.23,-65555.37,0.23047846204271683,-1.9847799239589812,-0.3854365100462867,7.015258284331786,6.708389620989376,5.289999451256939,3.0920485846830656,0.8725380718418663,0.12499968,-0.983945235,0.14623986,-2.01432,-3.25038,-5.84458,67.0
1774823570.7234442,0.0036683082580566406,2026-03-29T22:32:50.723,2026-03-29T18:32:50.723,-21377.79,-44216.46,-76833.58499999999,-48807.854999999996,-8677.305,-16321.68,8075.16,-65558.43,-0.10407311064947172,-0.5825832800863227,-0.002253471315225601,6.998687449598797,6.5441700196175425,4.4198123714605915,1.2003687668553282,-2.9290969010375396,0.12499968,-0.983945235,0.14623986,-2.01432,-3.25038,-5.84458,67.0
1774823570.7234635,1.9311904907226562e-05,2026-03-29T22:32:50.723,2026-03-29T18:32:50.723,-21361.094999999998,-44203.049999999996,-76828.905,-48803.174999999996,-8668.619999999999,-16310.699999999999,8097.974999999999,-65544.48,-0.2146787012437171,1.4569240171496334,0.6998180369542543,3.8539983100294095,3.4337419402957914,1.5429579405764342,-1.3295262130717242,-5.612171796604112,0.12499968,-0.983945235,0.14623986,-2.01432,-3.25038,-5.84458,67.0
1774823570.7274845,0.0040209293365478516,2026-03-29T22:32:50.727,2026-03-29T18:32:50.727,-21357.855,-44201.07,-76828.23,-48802.814999999995,-8666.775,-16305.164999999999,8089.155,-65533.545,-0.10144205122050733,3.1216094502303933,1.3302664309564198,-0.8455288636786135,-1.019486771669246,-1.8830384506514486,-3.487479433963965,-5.9940169047182374,0.12499968,-0.983945235,0.14623986,-2.01432,-3.25038,-5.84458,67.0
1774823570.727514,2.956390380859375e-05,2026-03-29T22:32:50.727,2026-03-29T18:32:50.727,-21355.469999999998,-44202.33,-76830.705,-48808.35,-8671.635,-16307.64,8094.105,-65519.145,0.07813977101333636,3.44708132635467,1.4231986093503024,-4.901967858226217,-4.693336562514044,-4.214311287676927,-4.318395752651077,-3.8255987906323,0.12499968,-0.983945235,0.14623986,-2.01432,-3.25038,-5.84458,67.0
1774823570.7315674,0.004053354263305664,2026-03-29T22:32:50.731,2026-03-29T18:32:50.731,-21364.02,-44213.085,-76837.59,-48824.325,-8689.365,-16324.83,8120.474999999999,-65508.479999999996,0.12236245960777177,2.047857070348836,0.7259453731332102,-6.534453960225001,-5.970770795742367,-4.420412230575851,-3.3564316342722678,0.05071270692523512,0.121154475,-0.985165935,0.148498155,-1.78542,-4.62378,-5.82932,67.0
1774823570.7315853,1.7881393432617188e-05,2026-03-29T22:32:50.731,2026-03-29T18:32:50.731,-21384.945,-44239.905,-76859.50499999999,-48840.84,-8704.935,-16339.32,8125.785,-65516.085,-0.07329287576393276,-0.6043346571271527,-0.595078633713256,-5.170723508769168,-4.461432099199968,-2.5487867265117075,-0.8890155221824371,4.0125739977081,0.121154475,-0.985165935,0.148498155,-1.78542,-4.62378,-5.82932,67.0
1774823570.7362247,0.004639387130737305,2026-03-29T22:32:50.736,2026-03-29T18:32:50.736,-21375.63,-44246.205,-76871.25,-48830.625,-8690.715,-16326.63,8097.12,-65513.79,-0.4309865092732222,-3.3265804692892096,-1.9643364355418067,-1.6317989074983204,-1.0939741105841685,0.35993617479935286,2.0994931880190695,6.333289351440914,0.121154475,-0.985165935,0.148498155,-1.78542,-4.62378,-5.82932,67.0
1774823570.7362397,1.5020370483398438e-05,2026-03-29T22:32:50.736,2026-03-29T18:32:50.736,-21372.48,-44259.435,-76900.00499999999,-48842.82,-8699.715,-16334.64,8089.74,-65510.954999999994,-0.7167733532103495,-4.756987555203391,-2.6470974453605645,2.3403476300935364,2.424327168637475,2.8389369077667794,4.3168334867064635,5.943037597816447,0.121154475,-0.985165935,0.148498155,-1.78542,-4.62378,-5.82932,67.0
1774823570.741454,0.005214214324951172,2026-03-29T22:32:50.741,2026-03-29T18:32:50.741,-21380.219999999998,-44244.674999999996,-76873.00499999999,-48818.159999999996,-8678.699999999999,-16314.93,8125.11,-65528.189999999995,-0.6721421989448754,-4.031178090394867,-2.1310775943075666,4.948237311180179,4.476842829480266,3.7400090325156228,4.733602294812398,2.9364420691472315,0.121154475,-0.985165935,0.148498155,-1.78542,-4.62378,-5.82932,67.0
1774823570.7414865,3.266334533691406e-05,2026-03-29T22:32:50.741,2026-03-29T18:32:50.741,-21383.145,-44227.845,-76846.815,-48807.99,-8674.11,-16313.22,8131.1849999999995,-65540.52,-0.18286022548952754,-1.2686756948076072,-0.4459466743778462,5.163995158311112,4.291553434703561,2.775899176431073,3.078129634124536,-1.4207535095869726,0.121154475,-0.985165935,0.148498155,-1.78542,-4.62378,-5.82932,67.0
1774823570.7447703,0.0032837390899658203,2026-03-29T22:32:50.744,2026-03-29T18:32:50.744,-21368.114999999998,-44203.77,-76824.72,-48806.909999999996,-8674.065,-16314.66,8132.219999999999,-65531.34,0.6115907843740734,2.392959746506167,1.7618696358812365,3.129762890644451,2.222854774250804,0.5991311369867522,0.009957432052674294,-5.217934610659623,0.121154475,-0.985165935,0.148498155,-1.78542,-4.62378,-5.82932,67.0
1774823570.7447844,1.4066696166992188e-05,2026-03-29T22:32:50.744,2026-03-29T18:32:50.744,-21361.23,-44190.405,-76810.455,-48806.64,-8678.654999999999,-16317.855,8128.799999999999,-65529.314999999995,1.342053181615569,5.268868124580364,3.4712826368965475,-0.02015144297862048,-0.5369764935386648,-1.5966225539805883,-3.1364268753835924,-6.74445680013944,0.121154475,-0.985165935,0.148498155,-1.78542,-4.62378,-5.82932,67.0
1774823570.7582335,0.01344919204711914,2026-03-29T22:32:50.758,2026-03-29T18:32:50.758,-21369.96,-44212.455,-76834.08,-48819.869999999995,-8691.164999999999,-16332.029999999999,8089.605,-65536.38,1.574856646678592,5.906214337564657,3.757975642790038,-2.7804945581854623,-2.6245923274138456,-2.722351838063427,-4.942468596271809,-5.276777801069041,0.121154475,-0.985165935,0.148498155,-1.78542,-4.62378,-5.82932,67.0
1774823570.7582529,1.9311904907226562e-05,2026-03-29T22:32:50.758,2026-03-29T18:32:50.758,-21379.005,-44216.325,-76836.69,-48823.155,-8688.51,-16329.914999999999,8049.014999999999,-65551.995,1.0471456579709006,3.8096912666226905,2.277870974368755,-4.003734014822378,-3.185131407413343,-2.340736120289273,-4.564743908636716,-1.4382056307383022,0.121154475,-0.985165935,0.148498155,-1.78542,-4.62378,-5.82932,67.0
1774823570.7582705,1.7642974853515625e-05,2026-03-29T22:32:50.758,2026-03-29T18:32:50.758,-21377.79,-44206.11,-76823.64,-48810.465,-8674.065,-16312.904999999999,8070.974999999999,-65554.02,-0.14821100372481583,-0.24589271617484332,-0.4844522575725714,-3.379227262367855,-2.223167114134225,-0.8367280256983879,-2.1470831558464374,3.054845454261198,0.11889618,-0.991025295,0.14660607,2.48738,-5.14262,-5.5699,67.0
1774823570.7582777,7.152557373046875e-06,2026-03-29T22:32:50.758,2026-03-29T18:32:50.758,-21350.114999999998,-44192.564999999995,-76805.235,-48788.145,-8659.529999999999,-16297.695,8129.745,-65512.845,-1.5391669611302827,-4.495246362281367,-3.355150523702025,-1.4616910910463572,-0.4804920888468462,0.8555156210997266,1.2239111388036097,6.163473050233846,0.11889618,-0.991025295,0.14660607,2.48738,-5.14262,-5.5699,67.0
1774823570.7582865,8.821487426757812e-06,2026-03-29T22:32:50.758,2026-03-29T18:32:50.758,-21344.715,-44190.854999999996,-76798.98,-48783.689999999995,-8657.369999999999,-16292.789999999999,8147.07,-65499.165,-2.452592911284687,-6.956666650866105,-4.970011707641646,0.7113974584295153,1.0472006401128524,1.7991219172744437,4.01365602127714,6.466945286186658,0.11889618,-0.991025295,0.14660607,2.48738,-5.14262,-5.5699,67.0
1774823570.758293,6.4373016357421875e-06,2026-03-29T22:32:50.758,2026-03-29T18:32:50.758,-21343.545,-44191.034999999996,-76804.56,-48791.88,-8659.664999999999,-16296.3,8139.285,-65505.735,-2.331620475095141,-6.358426658268867,-4.421023137886021,2.1759022970786366,1.6639902634354322,1.5660813079452445,4.956689911849549,3.8325391545661667,0.11889618,-0.991025295,0.14660607,2.48738,-5.14262,-5.5699,67.0
1774823570.7641232,0.005830287933349609,2026-03-29T22:32:50.764,2026-03-29T18:32:50.764,-21364.739999999998,-44209.935,-76831.065,-48815.955,-8685.494999999999,-16324.605,8112.195,-65525.67,-1.046293840605939,-2.7834892765157067,-1.744955134950706,2.4745726576340137,1.2954708196431073,0.43742442300373735,3.652560295768434,-0.5106789852018601,0.11889618,-0.991025295,0.14660607,2.48738,-5.14262,-5.5699,67.0
1774823570.76414,1.6689300537109375e-05,2026-03-29T22:32:50.764,2026-03-29T18:32:50.764,-21386.43,-44224.064999999995,-76851.315,-48832.515,-8700.074999999999,-16338.465,8104.32,-65544.795,0.9667017909933955,2.2896486121842177,2.001444909551776,1.770348825782503,0.42770567252403874,-0.8043501855630663,0.7497789147403631,-4.541646643993833,0.11889618,-0.991025295,0.14660607,2.48738,-5.14262,-5.5699,67.0
1774823570.7688222,0.004682302474975586,2026-03-29T22:32:50.768,2026-03-29T18:32:50.768,-21367.395,-44213.895,-76849.02,-48833.865,-8696.97,-16336.529999999999,8115.929999999999,-65526.93,2.834135492424657,6.60120154974628,5.154007742054753,0.6315564527972961,-0.2643641296269629,-1.3592289552609385,-2.3737310423863085,-6.39850392231847,0.11889618,-0.991025295,0.14660607,2.48738,-5.14262,-5.5699,67.0
1774823570.7688825,6.031990051269531e-05,2026-03-29T22:32:50.768,2026-03-29T18:32:50.768,-21372.344999999998,-44214.75,-76847.44499999999,-48836.295,-8693.64,-16333.47,8105.13,-65538.135,3.61916233509004,8.122852527057457,6.183184090346872,-0.34598990008223035,-0.3578020034691369,-0.8881099451398188,-4.277375475371401,-5.258847587889105,0.11889618,-0.991025295,0.14660607,2.48738,-5.14262,-5.5699,67.0
1774823570.7689023,1.9788742065429688e-05,2026-03-29T22:32:50.768,2026-03-29T18:32:50.768,-21377.07,-44211.375,-76839.39,-48828.555,-8686.619999999999,-16326.945,8094.42,-65546.775,2.7811498118077225,6.012497054688941,4.433725849852443,-0.8498387778936276,0.07348577935229927,0.28828274348874594,-4.143621153990385,-1.7236560235042997,0.11889618,-0.991025295,0.14660607,2.48738,-5.14262,-5.5699,67.0
1774823570.76891,7.62939453125e-06,2026-03-29T22:32:50.768,2026-03-29T18:32:50.768,-21363.165,-44199.045,-76820.31,-48814.875,-8680.815,-16321.635,8093.429999999999,-65533.005,0.500747727917057,1.0613759890532315,0.5052251800415416,-0.9329316867795234,0.5469136804527848,1.3833951290608906,-2.1466489039970975,2.483857388950555,0.11889618,-0.991025295,0.14660607,2.48738,-5.14262,-5.5699,67.0
1774823570.7751746,0.006264686584472656,2026-03-29T22:32:50.775,2026-03-29T18:32:50.775,-21357.135,-44192.744999999995,-76804.29,-48798.765,-8670.869999999999,-16312.724999999999,8110.844999999999,-65523.6,-2.312052996672028,-4.5973366257139725,-3.9365153517431843,-0.8574276115382891,0.5261049294037015,1.621228997029125,0.6710618853361724,5.359508663860778,0.12072723,-0.995663955,0.14514123,1.2055399999999998,-6.08874,-3.57084,67.0
1774823570.7751975,2.288818359375e-05,2026-03-29T22:32:50.775,2026-03-29T18:32:50.775,-21372.165,-44211.735,-76830.075,-48812.805,-8675.01,-16314.164999999999,8125.11,-65529.09,-4.371795076524079,-8.413826507920733,-6.868241504762662,-0.8343311860748317,-0.184012885635459,0.7215212521812316,2.940983489136155,5.58812068349282,0.12072723,-0.995663955,0.14514123,1.2055399999999998,-6.08874,-3.57084,67.0
1774823570.775218,2.0503997802734375e-05,2026-03-29T22:32:50.775,2026-03-29T18:32:50.775,-21372.48,-44215.064999999995,-76838.94,-48827.97,-8683.83,-16319.654999999999,8122.86,-65531.204999999994,-4.601336089212104,-8.576750567714726,-6.835903288333404,-0.8448203969866099,-1.253807168405269,-0.8907471750176276,3.6480016128975747,3.165910300655051,0.12072723,-0.995663955,0.14514123,1.2055399999999998,-6.08874,-3.57084,67.0
1774823570.7752311,1.3113021850585938e-05,2026-03-29T22:32:50.775,2026-03-29T18:32:50.775,-21364.829999999998,-44205.884999999995,-76817.565,-48819.33,-8683.65,-16321.23,8110.3949999999995,-65521.034999999996,-2.682355021633949,-4.8722766561065285,-3.672706181465283,-0.6637423613147523,-1.984953574521066,-2.2862677511799916,2.6033409315809313,-0.6289792058272256,0.12072723,-0.995663955,0.14514123,1.2055399999999998,-6.08874,-3.57084,67.0
1774823570.7801533,0.004922151565551758,2026-03-29T22:32:50.780,2026-03-29T18:32:50.780,-21364.649999999998,-44214.39,-76826.205,-48819.645,-8689.095,-16332.345,8083.259999999999,-65527.515,0.7041911860975643,1.1601933281630794,1.3450985449453996,-0.06670419425656804,-1.7303459422141354,-2.5473368174003297,0.48172324192842375,-3.8969174597243823,0.12072723,-0.995663955,0.14514123,1.2055399999999998,-6.08874,-3.57084,67.0
1774823570.7801816,2.8371810913085938e-05,2026-03-29T22:32:50.780,2026-03-29T18:32:50.780,-21350.655,-44202.645,-76819.86,-48806.865,-8669.295,-16314.75,8086.679999999999,-65552.265,4.100583498959093,6.871194857221008,6.011572104739917,0.9241373609436169,-0.3365975970088277,-1.3188880193574968,-1.5768687640970294,-5.071821171191968,0.12072723,-0.995663955,0.14514123,1.2055399999999998,-6.08874,-3.57084,67.0
1774823570.7836893,0.0035076141357421875,2026-03-29T22:32:50.783,2026-03-29T18:32:50.783,-21336.704999999998,-44188.92,-76809.33,-48799.305,-8658.855,-16298.91,8115.03,-65537.505,5.8971585176570525,9.673077257381856,8.168457274221606,1.9358942336513123,1.663038975621105,0.9201123374752656,-2.576782637413154,-3.6884939641407795,0.12072723,-0.995663955,0.14514123,1.2055399999999998,-6.08874,-3.57084,67.0
1774823570.7837126,2.3365020751953125e-05,2026-03-29T22:32:50.783,2026-03-29T18:32:50.783,-21365.73,-44207.415,-76828.905,-48813.479999999996,-8671.77,-16311.06,8085.735,-65546.055,5.093469698322428,8.21870133991522,6.710361787971796,2.3828758989607173,3.250127791178593,3.0400823808131907,-2.1624940264304406,-0.5787231162891208,0.12072723,-0.995663955,0.14514123,1.2055399999999998,-6.08874,-3.57084,67.0
1774823570.7880704,0.004357814788818359,2026-03-29T22:32:50.788,2026-03-29T18:32:50.788,-21364.739999999998,-44207.595,-76837.05,-48812.49,-8663.805,-16303.14,8102.745,-65523.6,1.8365145001877397,3.0472797435128096,2.146432434939814,1.7965604575047684,3.441681517636088,3.830339639569469,-0.7476142318179169,2.5936103570300935,0.12072723,-0.995663955,0.14514123,1.2055399999999998,-6.08874,-3.57084,67.0
1774823570.7880857,1.52587890625e-05,2026-03-29T22:32:50.788,2026-03-29T18:32:50.788,-21363.344999999998,-44224.38,-76863.915,-48835.125,-8683.47,-16322.805,8109.224999999999,-65508.03,-2.5472728019223734,-3.611806212463475,-3.5655123585765947,0.16482114198620632,1.862625545479347,2.667174556030012,0.772107997603221,4.209537591868958,0.12072723,-0.995663955,0.14514123,1.2055399999999998,-6.08874,-3.57084,67.0
1774823570.7930007,0.004914999008178711,2026-03-29T22:32:50.793,2026-03-29T18:32:50.793,-21359.79,-44216.369999999995,-76851.135,-48825.09,-8674.02,-16314.93,8103.42,-65517.704999999994,-6.0865892900655725,-8.807917064408153,-7.865812858685031,-1.9349283143379217,-0.9514351397101881,-0.08028200105594353,1.5467236579216974,3.526179126039092,0.125182785,-1.00500231,0.143371215,0.77826,-4.822159999999999,-1.2055399999999998,67.0
1774823570.7930136,1.2874603271484375e-05,2026-03-29T22:32:50.793,2026-03-29T18:32:50.793,-21356.73,-44209.034999999996,-76828.905,-48817.979999999996,-8672.445,-16314.795,8104.32,-65514.825,-7.0546001404658725,-10.186290076580987,-8.751647865771082,-3.5285890649698626,-3.7203497167943698,-3.148282890282696,1.241818248802259,1.032848487117126,0.125182785,-1.00500231,0.143371215,0.77826,-4.822159999999999,-1.2055399999999998,67.0
1774823570.7961953,0.0031816959381103516,2026-03-29T22:32:50.796,2026-03-29T18:32:50.796,-21367.44,-44204.085,-76813.155,-48812.13,-8672.31,-16314.615,8116.29,-65532.915,-4.810723126499326,-7.061101482313523,-5.7178839874592535,-3.706155834393434,-5.011737243984592,-4.966548844272539,0.192407143538362,-1.8455267476985782,0.125182785,-1.00500231,0.143371215,0.77826,-4.822159999999999,-1.2055399999999998,67.0
1774823570.7962177,2.2411346435546875e-05,2026-03-29T22:32:50.796,2026-03-29T18:32:50.796,-21361.77,-44203.14,-76819.59,-48815.369999999995,-8678.61,-16319.519999999999,8126.28,-65524.68,-0.18438233515777577,-0.752626466991629,-0.03426171909166697,-2.1281456932189227,-3.980398547132721,-4.4590123858847805,-0.8345307556767037,-3.531950434400064,0.125182785,-1.00500231,0.143371215,0.77826,-4.822159999999999,-1.2055399999999998,67.0
1774823570.8042476,0.008029937744140625,2026-03-29T22:32:50.804,2026-03-29T18:32:50.804,-21362.715,-44207.865,-76825.935,-48818.025,-8684.235,-16328.115,8107.155,-65528.954999999994,4.81750677769937,5.976084849236636,5.789973833762882,0.6995205537476474,-0.8733683811300184,-1.649532389175866,-1.1231381878474356,-3.1470464595561074,0.125182785,-1.00500231,0.143371215,0.77826,-4.822159999999999,-1.2055399999999998,67.0
1774823570.804273,2.5272369384765625e-05,2026-03-29T22:32:50.804,2026-03-29T18:32:50.804,-21374.46,-44206.244999999995,-76817.205,-48807.18,-8670.869999999999,-16315.38,8105.8949999999995,-65547.135,7.884902130148049,10.140263444328081,9.126889674553315,3.5642401981687897,2.986337426004882,2.258028575460078,-0.4538066218959022,-0.9716280167861256,0.125182785,-1.00500231,0.143371215,0.77826,-4.822159999999999,-1.2055399999999998,67.0
1774823570.8042936,2.0742416381835938e-05,2026-03-29T22:32:50.804,2026-03-29T18:32:50.804,-21371.175,-44215.604999999996,-76837.815,-48825.765,-8683.289999999999,-16325.189999999999,8111.88,-65542.95,7.4785710025543635,9.867709693449969,8.429742544629505,5.075750620848392,5.771693871876835,5.402037186342564,0.7509810890412925,1.7231406127279265,0.125182785,-1.00500231,0.143371215,0.77826,-4.822159999999999,-1.2055399999999998,67.0
1774823570.8043036,1.0013580322265625e-05,2026-03-29T22:32:50.804,2026-03-29T18:32:50.804,-21382.155,-44223.165,-76840.02,-48818.52,-8675.279999999999,-16318.125,8111.115,-65550.465,3.6009819179782188,5.245035222893597,3.9575319939887925,4.349909488077897,6.027333746047494,6.157561320070827,1.670711967044056,3.3842945120069596,0.125182785,-1.00500231,0.143371215,0.77826,-4.822159999999999,-1.2055399999999998,67.0
1774823570.810929,0.00662541389465332,2026-03-29T22:32:50.810,2026-03-29T18:32:50.810,-21383.145,-44219.655,-76827.95999999999,-48800.205,-8663.445,-16311.689999999999,8090.19,-65550.825,-2.1220096361140994,-1.708995939252735,-2.31900877450216,1.5067784575865117,3.4240631169882727,3.9695538852123553,1.586543877795119,3.040459269943147,0.125182785,-1.00500231,0.143371215,0.77826,-4.822159999999999,-1.2055399999999998,67.0
1774823570.810958,2.8848648071289062e-05,2026-03-29T22:32:50.810,2026-03-29T18:32:50.810,-21379.815,-44222.715,-76832.595,-48808.665,-8673.164999999999,-16319.115,8078.49,-65543.94,-7.1246065933818965,-7.935200259409799,-7.597563988869356,-2.2909698370031424,-0.9968836215896288,-0.3002582812679804,0.34919685367620173,0.8502880095928875,0.125182785,-1.00500231,0.143371215,0.77826,-4.822159999999999,-1.2055399999999998,67.0
1774823570.8132243,0.002266407012939453,2026-03-29T22:32:50.813,2026-03-29T18:32:50.813,-21369.105,-44222.715,-76843.98,-48822.795,-8685.09,-16329.195,8081.505,-65534.895,-9.062086082073419,-10.692336201522071,-9.512367825408337,-5.318496879740361,-5.243248427225673,-4.713167014477933,-1.4655972669419135,-1.9674923345487774,0.13269009,-1.011655125,0.14086878,2.4263399999999997,-3.78448,-0.09156,67.0
1774823570.8132386,1.430511474609375e-05,2026-03-29T22:32:50.813,2026-03-29T18:32:50.813,-21369.96,-44228.475,-76851.62999999999,-48819.015,-8682.029999999999,-16328.07,8094.69,-65533.814999999995,-6.919142537911976,-8.773063368094007,-7.2086812425591384,-6.086625702889637,-7.283671937402517,-7.145185182147199,-2.8268808719345184,-3.79359380583032,0.13269009,-1.011655125,0.14086878,2.4263399999999997,-3.78448,-0.09156,67.0
1774823570.8158748,0.0026361942291259766,2026-03-29T22:32:50.815,2026-03-29T18:32:50.815,-21360.195,-44209.71,-76825.17,-48796.515,-8663.49,-16310.835,8113.545,-65530.799999999996,-1.5370096564669247,-3.033686982637723,-1.7287973837134292,-4.081119053013395,-6.02779600633846,-6.3149229075316535,-2.816390401069573,-3.506709943617887,0.13269009,-1.011655125,0.14086878,2.4263399999999997,-3.78448,-0.09156,67.0
1774823570.8158977,2.288818359375e-05,2026-03-29T22:32:50.815,2026-03-29T18:32:50.815,-21356.73,-44192.924999999996,-76805.73,-48793.95,-8653.095,-16294.635,8149.95,-65530.53,4.713157633125486,3.995501773199212,4.467283536752088,-0.07339675322112905,-1.8978299968940064,-2.4475035298627734,-1.187739276645738,-1.1329602962329135,0.13269009,-1.011655125,0.14086878,2.4263399999999997,-3.78448,-0.09156,67.0
1774823570.8196528,0.0037550926208496094,2026-03-29T22:32:50.819,2026-03-29T18:32:50.819,-21346.92,-44187.795,-76801.14,-48798.854999999996,-8652.285,-16292.744999999999,8138.16,-65519.1,8.986334092702036,9.238690103820534,8.622963223019815,4.174877466795478,3.303884383206908,2.765351167302585,1.4060015381038093,2.1177855561134487,0.13269009,-1.011655125,0.14086878,2.4263399999999997,-3.78448,-0.09156,67.0
1774823570.8196719,1.9073486328125e-05,2026-03-29T22:32:50.819,2026-03-29T18:32:50.819,-21335.04,-44175.645,-76793.805,-48789.81,-8646.39,-16292.115,8125.2,-65505.015,9.27359264130401,10.432483394703613,8.929436269141993,6.700419458203217,7.194387776025054,6.916239430860239,3.674476775288557,4.468491671036657,0.13269009,-1.011655125,0.14086878,2.4263399999999997,-3.78448,-0.09156,67.0
1774823570.825258,0.005586147308349609,2026-03-29T22:32:50.825,2026-03-29T18:32:50.825,-21322.665,-44172.045,-76802.76,-48803.805,-8662.32,-16303.275,8146.08,-65491.649999999994,5.3556971322043685,7.107959242872146,5.323090392851949,6.260086449628453,7.915419512943477,8.005156457649605,4.336971492462848,4.530208647144106,0.13269009,-1.011655125,0.14086878,2.4263399999999997,-3.78448,-0.09156,67.0
1774823570.8252783,2.0265579223632812e-05,2026-03-29T22:32:50.825,2026-03-29T18:32:50.825,-21363.704999999998,-44205.84,-76830.165,-48828.555,-8683.154999999999,-16318.619999999999,8126.73,-65533.905,-1.057034176172022,0.7681695177240313,-0.5207596490454625,2.9463897187764037,5.025499897199101,5.40556307838692,2.827672878913687,2.087914422754753,0.13269009,-1.011655125,0.14086878,2.4263399999999997,-3.78448,-0.09156,67.0
1774823570.8288305,0.0035521984100341797,2026-03-29T22:32:50.828,2026-03-29T18:32:50.828,-21382.965,-44225.28,-76844.43,-48832.875,-8690.805,-16329.015,8114.445,-65545.245,-7.081251809541273,-5.802402201599314,-5.978710542861993,-1.809493586981767,-0.25134858243213065,0.20572394776427688,-0.3229778537647042,-1.716507752270354,0.13269009,-1.011655125,0.14086878,2.4263399999999997,-3.78448,-0.09156,67.0
1774823570.82885,1.9550323486328125e-05,2026-03-29T22:32:50.828,2026-03-29T18:32:50.828,-21386.655,-44237.34,-76859.595,-48840.165,-8698.32,-16337.025,8116.5599999999995,-65541.78,-9.974394358903917,-9.774134304735657,-8.675923093704839,-5.867334475329327,-5.553307935899391,-5.254047449107074,-3.6638818240326763,-4.927536542120838,0.13269009,-1.011655125,0.14086878,2.4263399999999997,-3.78448,-0.09156,67.0
1774823570.8319023,0.003052234649658203,2026-03-29T22:32:50.831,2026-03-29T18:32:50.831,-21386.43,-44237.384999999995,-76866.12,-48840.84,-8693.01,-16330.23,8121.6449999999995,-65541.78,-8.398917571894781,-9.498931275233748,-7.5338871196534045,-7.357237467208202,-8.452301751379443,-8.447459012788908,-5.50439490814826,-5.7831502057675115,0.140197395,-1.00658922,0.139831185,-0.18312,-2.79258,0.24416,67.0
1774823570.831918,1.5735626220703125e-05,2026-03-29T22:32:50.831,2026-03-29T18:32:50.831,-21371.715,-44219.295,-76843.8,-48830.04,-8685.09,-16325.189999999999,8116.0199999999995,-65536.785,-3.0464697666890928,-5.191441608784647,-3.1998961046016556,-5.55299820679195,-7.5763712521637805,-7.840029666949474,-4.775739043734787,-3.6660187065368377,0.140197395,-1.00658922,0.139831185,-0.18312,-2.79258,0.24416,67.0
1774823570.8359463,0.0040283203125,2026-03-29T22:32:50.835,2026-03-29T18:32:50.835,-21368.7,-44213.939999999995,-76835.11499999999,-48832.74,-8689.725,-16329.555,8113.634999999999,-65536.965,3.6724678022603814,1.2152984712766441,2.312042709882192,-1.2263614620837637,-3.25955559980212,-3.625675675485605,-1.6313516410151339,0.5095850608519282,0.140197395,-1.00658922,0.139831185,-0.18312,-2.79258,0.24416,67.0
1774823570.83596,1.3589859008789062e-05,2026-03-29T22:32:50.835,2026-03-29T18:32:50.835,-21367.98,-44208.0,-76824.81,-48825.494999999995,-8687.744999999999,-16328.789999999999,8096.174999999999,-65542.635,8.731288051129994,6.949778848360195,6.5727516789747344,3.6905403479078243,2.588446727853851,2.3309455087951267,2.5441415039119453,4.701953374197126,0.140197395,-1.00658922,0.139831185,-0.18312,-2.79258,0.24416,67.0
1774823570.842782,0.006822109222412109,2026-03-29T22:32:50.842,2026-03-29T18:32:50.842,-21360.015,-44199.945,-76817.79,-48811.365,-8675.865,-16318.484999999999,8088.344999999999,-65539.665,9.869802087137606,9.610948099102094,7.82522718582764,6.982883271527929,7.339501908546251,7.3306533014744835,5.757260320189857,6.754283790119846,0.140197395,-1.00658922,0.139831185,-0.18312,-2.79258,0.24416,67.0
1774823570.8428063,2.4318695068359375e-05,2026-03-29T22:32:50.842,2026-03-29T18:32:50.842,-21353.715,-44192.655,-76808.7,-48799.305,-8660.16,-16302.914999999999,8104.995,-65534.31,6.615744260970382,8.173823059733541,5.71293236810895,7.165186119820355,8.840333172223785,9.074158012546508,6.37390108875633,5.507213224577708,0.140197395,-1.00658922,0.139831185,-0.18312,-2.79258,0.24416,67.0
1774823570.8428311,2.47955322265625e-05,2026-03-29T22:32:50.842,2026-03-29T18:32:50.842,-21357.63,-44197.47,-76812.525,-48800.115,-8659.664999999999,-16304.13,8127.63,-65530.305,0.4776063473935252,3.3705887421178073,1.3451358321229003,4.158746350776057,6.394679581186735,6.725204176645477,3.956128828813931,1.43598827055233,0.140197395,-1.00658922,0.139831185,-0.18312,-2.79258,0.24416,67.0
1774823570.8428428,1.1682510375976562e-05,2026-03-29T22:32:50.842,2026-03-29T18:32:50.842,-21369.69,-44212.68,-76828.05,-48818.564999999995,-8680.949999999999,-16322.445,8137.17,-65531.79,-5.768460910407214,-2.686432995738245,-3.285711437795742,-0.67739340596128,1.0840309082119621,1.3087252670664355,-0.4633964735412471,-3.5321583798230263,0.140197395,-1.00658922,0.139831185,-0.18312,-2.79258,0.24416,67.0
1774823570.8478472,0.005004405975341797,2026-03-29T22:32:50.847,2026-03-29T18:32:50.847,-21379.5,-44219.564999999995,-76832.28,-48825.18,-8691.3,-16334.144999999999,8073.045,-65554.69499999999,-9.354304232224667,-7.444052446681773,-6.22845146141918,-5.172019968901589,-4.719227250325358,-4.743944871764749,-4.83090308103413,-6.949352774503592,0.140197395,-1.00658922,0.139831185,-0.18312,-2.79258,0.24416,67.0
1774823570.8478727,2.5510787963867188e-05,2026-03-29T22:32:50.847,2026-03-29T18:32:50.847,-21380.535,-44221.68,-76838.895,-48833.549999999996,-8696.789999999999,-16339.455,8055.99,-65567.385,-8.762114376959019,-8.986851226651726,-6.40322711269638,-7.330482220870461,-8.422729154020786,-8.697185948360488,-7.045289353142773,-7.068703101061179,0.140197395,-1.00658922,0.139831185,-0.18312,-2.79258,0.24416,67.0
1774823570.8518429,0.003970146179199219,2026-03-29T22:32:50.851,2026-03-29T18:32:50.851,-21375.945,-44217.54,-76834.53,-48826.845,-8688.869999999999,-16331.175,8070.344999999999,-65564.055,-4.368093932126755,-6.798374344535121,-3.9798936663567286,-6.229935979433565,-8.380701968030593,-8.756224410581234,-5.985904185383915,-3.7396727158374046,0.139831185,-0.9985326,0.13867152,-5.8751,-7.79786,2.7468,67.0
1774823570.8518648,2.193450927734375e-05,2026-03-29T22:32:50.851,2026-03-29T18:32:50.851,-21365.19,-44212.095,-76827.735,-48811.455,-8672.805,-16314.84,8086.679999999999,-65548.395,1.7862027047480777,-1.9081590824234238,-0.18266547239651287,-2.4150095811941776,-4.627887337142864,-4.885123859365789,-2.0842290428963075,1.4831959105059835,0.139831185,-0.9985326,0.13867152,-5.8751,-7.79786,2.7468,67.0
1774823570.8557067,0.003841876983642578,2026-03-29T22:32:50.855,2026-03-29T18:32:50.855,-21353.94,-44203.455,-76817.745,-48799.35,-8663.22,-16307.144999999999,8120.61,-65524.95,6.960011167786591,3.599696014236118,3.3331223749870382,2.375645276033472,1.1469042076354783,1.1760091893618172,2.85409034887993,6.08484761507542,0.139831185,-0.9985326,0.13867152,-5.8751,-7.79786,2.7468,67.0
1774823570.855724,1.7404556274414062e-05,2026-03-29T22:32:50.855,2026-03-29T18:32:50.855,-21348.54,-44202.465,-76818.915,-48802.455,-8664.795,-16304.894999999999,8164.53,-65503.71,8.951434822671338,7.478284526398459,5.212581419185469,6.0126407982007155,6.368601104684194,6.700997460689421,6.502278017746725,7.8225865370782195,0.139831185,-0.9985326,0.13867152,-5.8751,-7.79786,2.7468,67.0
1774823570.8625624,0.006838321685791016,2026-03-29T22:32:50.862,2026-03-29T18:32:50.862,-21348.63,-44206.335,-76826.16,-48807.945,-8667.675,-16306.965,8146.035,-65502.314999999995,7.039438417447299,8.226568415241521,4.91286151873686,6.932807314039353,8.732402987955366,9.21267006794723,7.1296520424161285,5.8332093287180005,0.139831185,-0.9985326,0.13867152,-5.8751,-7.79786,2.7468,67.0
1774823570.8625758,1.33514404296875e-05,2026-03-29T22:32:50.862,2026-03-29T18:32:50.862,-21362.13,-44210.115,-76828.455,-48809.25,-8669.88,-16310.88,8118.63,-65524.095,2.2242356298525356,5.652143088525133,2.8075570168656965,4.815229667739959,7.226347562917383,7.599985083594134,4.437283770371334,1.0614244256073797,0.139831185,-0.9985326,0.13867152,-5.8751,-7.79786,2.7468,67.0
1774823570.86259,1.430511474609375e-05,2026-03-29T22:32:50.862,2026-03-29T18:32:50.862,-21381.165,-44208.0,-76815.9,-48801.24,-8664.074999999999,-16305.21,8130.509999999999,-65549.385,-3.301015419751506,0.8880287739550263,-0.0970807974029344,0.6826583070516113,2.5646216245857483,2.611176967837399,-0.297837058431867,-4.203191402035066,0.139831185,-0.9985326,0.13867152,-5.8751,-7.79786,2.7468,67.0
1774823570.8625963,6.198883056640625e-06,2026-03-29T22:32:50.862,2026-03-29T18:32:50.862,-21377.745,-44213.445,-76823.81999999999,-48809.43,-8669.654999999999,-16310.97,8128.485,-65543.13,-7.166045582559986,-4.109421161414962,-2.6492199442726037,-3.5966363647672495,-3.153246866505153,-3.4961944204774236,-4.840313280387067,-7.447349609786444,0.139831185,-0.9985326,0.13867152,-5.8751,-7.79786,2.7468,67.0
1774823570.8752284,0.012632131576538086,2026-03-29T22:32:50.875,2026-03-29T18:32:50.875,-21374.145,-44216.235,-76831.245,-48819.6,-8677.98,-16315.695,8123.985,-65540.655,-7.847930243778178,-7.357047520153667,-4.002997174379851,-6.1618735172726185,-7.393597643839288,-7.983339629199249,-7.071520209535064,-7.154168497122991,0.139831185,-0.9985326,0.13867152,-5.8751,-7.79786,2.7468,67.0
1774823570.8752472,1.8835067749023438e-05,2026-03-29T22:32:50.875,2026-03-29T18:32:50.875,-21369.51,-44210.34,-76824.495,-48807.63,-8669.52,-16310.115,8117.955,-65540.205,-5.257422120592501,-7.615483742264785,-3.8604108267675357,-5.974526224578673,-8.317147432456803,-8.865799542819623,-5.996326800238907,-3.520661358776235,0.139831185,-0.9985326,0.13867152,-5.8751,-7.79786,2.7468,67.0
1774823570.8752656,1.8358230590820312e-05,2026-03-29T22:32:50.875,2026-03-29T18:32:50.875,-21366.09,-44209.89,-76824.9,-48807.494999999995,-8672.31,-16316.144999999999,8107.65,-65536.515,-0.6695016114632054,-4.844154848706751,-2.4596697695392673,-3.236045045708528,-5.580275718249803,-5.796443252007388,-2.194574012782662,1.670587286667105,0.136047015,-0.997983285,0.13708461,-7.889419999999999,-5.7835399999999995,2.57894,67.0
1774823570.8752725,6.9141387939453125e-06,2026-03-29T22:32:50.875,2026-03-29T18:32:50.875,-21360.465,-44211.509999999995,-76832.415,-48822.795,-8688.555,-16326.0,8106.929999999999,-65523.015,3.9144286553070184,-0.1847137727771068,-0.3850693676903816,0.7572919753972236,-0.45914402330923354,-0.2011821830958592,2.490975139089255,5.944373030483987,0.136047015,-0.997983285,0.13708461,-7.889419999999999,-5.7835399999999995,2.57894,67.0
1774823570.8809216,0.005649089813232422,2026-03-29T22:32:50.880,2026-03-29T18:32:50.880,-21355.695,-44212.229999999996,-76835.97,-48829.725,-8692.289999999999,-16327.035,8104.545,-65514.329999999994,6.648721143879831,4.502927487408339,1.6755209268583617,4.230996453833676,4.745886001540784,5.385061806158302,5.862334392698801,7.334973914606085,0.136047015,-0.997983285,0.13708461,-7.889419999999999,-5.7835399999999995,2.57894,67.0
1774823570.8809457,2.4080276489257812e-05,2026-03-29T22:32:50.880,2026-03-29T18:32:50.880,-21360.51,-44212.634999999995,-76830.84,-48821.13,-8677.845,-16311.779999999999,8109.54,-65526.795,6.57638402802606,7.366910215140121,3.1254589418137537,5.725761326384911,7.747535998465526,8.472461670167233,6.4159381942690015,5.303510338492045,0.136047015,-0.997983285,0.13708461,-7.889419999999999,-5.7835399999999995,2.57894,67.0
1774823570.880983,3.743171691894531e-05,2026-03-29T22:32:50.880,2026-03-29T18:32:50.880,-21374.505,-44213.04,-76825.08,-48813.119999999995,-8670.6,-16305.885,8120.5199999999995,-65542.095,3.9275992704195155,7.277994111005363,3.5733804473225206,4.7111073318740875,7.281727523063774,7.733122146961392,4.0244212289206835,0.9362651279585394,0.136047015,-0.997983285,0.13708461,-7.889419999999999,-5.7835399999999995,2.57894,67.0
1774823570.880993,9.775161743164062e-06,2026-03-29T22:32:50.880,2026-03-29T18:32:50.880,-21372.885,-44214.884999999995,-76827.375,-48818.744999999995,-8680.455,-16317.9,8113.7699999999995,-65538.045,-0.08521515484287641,4.266964407676347,2.888912693691435,1.7617261650190652,3.6428857893695503,3.577109125288296,-0.06388329757970032,-3.642217095224433,0.136047015,-0.997983285,0.13708461,-7.889419999999999,-5.7835399999999995,2.57894,67.0
1774823570.8895595,0.008566617965698242,2026-03-29T22:32:50.889,2026-03-29T18:32:50.889,-21368.745,-44215.2,-76827.105,-48820.365,-8684.64,-16321.545,8110.844999999999,-65529.63,-3.830604879914018,-0.47960188513410595,1.2318976493967637,-1.7546131840641768,-1.4832896983170591,-2.064210894516815,-3.8792817614620074,-6.321789130461405,0.136047015,-0.997983285,0.13708461,-7.889419999999999,-5.7835399999999995,2.57894,67.0
1774823570.8895743,1.4781951904296875e-05,2026-03-29T22:32:50.889,2026-03-29T18:32:50.889,-21369.105,-44215.47,-76823.73,-48811.634999999995,-8676.27,-16316.144999999999,8109.99,-65533.32,-5.9135075231819165,-5.070025682714016,-0.9454794970590348,-4.312474874041166,-5.800208080203143,-6.636812789295001,-5.69446615749184,-5.994785047342056,0.136047015,-0.997983285,0.13708461,-7.889419999999999,-5.7835399999999995,2.57894,67.0
1774823570.8895867,1.239776611328125e-05,2026-03-29T22:32:50.889,2026-03-29T18:32:50.889,-21364.965,-44213.174999999996,-76823.19,-48809.655,-8674.244999999999,-16315.92,8101.844999999999,-65536.38,-5.664025549589645,-7.643570612153574,-2.961981553539384,-4.891989698327169,-7.433313684405494,-8.126479186898761,-4.819244081585858,-3.0094692956361144,0.136047015,-0.997983285,0.13708461,-7.889419999999999,-5.7835399999999995,2.57894,67.0
1774823570.8895915,4.76837158203125e-06,2026-03-29T22:32:50.889,2026-03-29T18:32:50.889,-21344.13,-44197.65,-76804.37999999999,-48798.72,-8669.654999999999,-16309.935,8092.17,-65521.845,-3.307577893126101,-7.116189110992289,-4.075810357739301,-3.381483008599308,-5.749804193023816,-5.953824618664307,-1.8544651108568955,1.0938130640687664,0.136047015,-0.997983285,0.13708461,-7.889419999999999,-5.7835399999999995,2.57894,67.0
1774823570.8918607,0.002269268035888672,2026-03-29T22:32:50.891,2026-03-29T18:32:50.891,-21331.62,-44193.78,-76806.495,-48806.64,-8678.88,-16313.805,8092.71,-65511.045,0.19411378330933643,-3.6424396328663016,-3.7478090824490358,-0.5632682196573444,-1.6044502195244883,-1.2009640141223614,1.6831622067837477,4.3873527845641895,0.13195767,-0.990781155,0.137633925,-11.41448,-7.4011,1.6633399999999998,67.0
1774823570.8918812,2.0503997802734375e-05,2026-03-29T22:32:50.891,2026-03-29T18:32:50.891,-21344.94,-44210.07,-76833.315,-48815.865,-8681.265,-16314.48,8106.4349999999995,-65518.02,3.52945434217527,1.4056077187745095,-1.9117337553630485,2.2825656983787606,3.084568320491249,3.919857370333977,4.142616098952118,5.476821141205718,0.13195767,-0.990781155,0.137633925,-11.41448,-7.4011,1.6633399999999998,67.0
1774823570.8960724,0.004191160202026367,2026-03-29T22:32:50.896,2026-03-29T18:32:50.896,-21374.325,-44216.955,-76835.43,-48796.604999999996,-8657.279999999999,-16295.4,8117.235,-65540.52,5.498762518398822,5.960393952205632,0.8875461397601997,3.9589563998865405,6.223261578344224,7.09794492251505,4.520960515732253,4.091020285013042,0.13195767,-0.990781155,0.137633925,-11.41448,-7.4011,1.6633399999999998,67.0
1774823570.8960943,2.193450927734375e-05,2026-03-29T22:32:50.896,2026-03-29T18:32:50.896,-21371.94,-44204.534999999996,-76821.48,-48788.505,-8646.795,-16289.055,8114.219999999999,-65547.495,5.407168961464721,8.09522651665196,3.6055652477335927,3.854374314458813,6.482562699492137,6.974574413290146,2.870030707612883,1.091894661687123,0.13195767,-0.990781155,0.137633925,-11.41448,-7.4011,1.6633399999999998,67.0
1774823570.9094768,0.013382434844970703,2026-03-29T22:32:50.909,2026-03-29T18:32:50.909,-21354.795,-44192.564999999995,-76807.395,-48794.4,-8651.07,-16293.734999999999,8092.08,-65546.64,3.285152296282116,6.8430487616107385,5.0740946710787185,2.1571786727499718,3.867382555532565,3.731493786253334,0.16378934553281663,-2.041298837330526,0.13195767,-0.990781155,0.137633925,-11.41448,-7.4011,1.6633399999999998,67.0
1774823570.9095056,2.8848648071289062e-05,2026-03-29T22:32:50.909,2026-03-29T18:32:50.909,-21364.29,-44195.04,-76799.025,-48802.229999999996,-8660.789999999999,-16304.535,8047.575,-65558.11499999999,-0.11673195942695004,2.6482239567321186,4.514291760413016,-0.28819416812309445,-0.3326845627378629,-1.0410427226113697,-2.259211525456291,-3.952268704146684,0.13195767,-0.990781155,0.137633925,-11.41448,-7.4011,1.6633399999999998,67.0
1774823570.909533,2.7418136596679688e-05,2026-03-29T22:32:50.909,2026-03-29T18:32:50.909,-21367.8,-44208.54,-76805.45999999999,-48800.88,-8660.475,-16302.24,8085.33,-65534.445,-3.561675301431172,-2.765916687501507,1.9564386164293543,-2.393621520552935,-4.171130655517865,-5.117800241900097,-3.3650791707447443,-3.9968495029122098,0.13195767,-0.990781155,0.137633925,-11.41448,-7.4011,1.6633399999999998,67.0
1774823570.9095445,1.1444091796875e-05,2026-03-29T22:32:50.909,2026-03-29T18:32:50.909,-21389.715,-44253.36,-76851.315,-48842.189999999995,-8702.64,-16340.445,8150.3099999999995,-65519.549999999996,-5.737049876066648,-7.091695468638242,-1.6619216650735515,-3.30991518415991,-5.9485774993377944,-6.680089222140004,-2.867341749393889,-2.4242313448672506,0.13195767,-0.990781155,0.137633925,-11.41448,-7.4011,1.6633399999999998,67.0
1774823570.9095583,1.3828277587890625e-05,2026-03-29T22:32:50.909,2026-03-29T18:32:50.909,-21388.23,-44261.009999999995,-76866.61499999999,-48855.24,-8711.369999999999,-16354.08,8106.4349999999995,-65527.965,-5.7306820638877225,-8.421797011029888,-4.820551763057962,-2.7666834568008603,-4.972539053439422,-5.136259377048145,-1.252626723781122,-0.12451719441754808,0.13195767,-0.990781155,0.137633925,-11.41448,-7.4011,1.6633399999999998,67.0
1774823570.9095683,1.0013580322265625e-05,2026-03-29T22:32:50.909,2026-03-29T18:32:50.909,-21401.37,-44251.65,-76855.995,-48832.784999999996,-8687.88,-16333.289999999999,8055.405,-65566.53,-3.415248200088272,-6.103811375235144,-6.063030270056415,-1.1351183476597915,-1.8298443031726384,-1.3468524842483849,0.5711347198563478,1.8696201581163396,0.13195767,-0.990781155,0.137633925,-11.41448,-7.4011,1.6633399999999998,67.0
1774823570.9120872,0.002518892288208008,2026-03-29T22:32:50.912,2026-03-29T18:32:50.912,-21400.785,-44227.485,-76838.48999999999,-48802.68,-8657.82,-16306.38,8074.755,-65577.06,0.4215746848827706,-1.0753567364872707,-4.686416919276668,0.7898928677605289,1.937372284260493,2.832522775699082,1.7776718644404375,2.850019337811141,0.12487761,-0.979428645,0.1379391,-16.06878,-11.04824,0.50358,67.0
1774823570.9121094,2.2172927856445312e-05,2026-03-29T22:32:50.912,2026-03-29T18:32:50.912,-21362.535,-44197.74,-76827.825,-48802.545,-8657.414999999999,-16301.519999999999,8124.705,-65529.405,4.299722387844967,4.498174404417314,-1.1393743097600995,2.1699928980187457,4.582257294681263,5.455560148807343,2.0005000650192333,2.6557958585392916,0.12487761,-0.979428645,0.1379391,-16.06878,-11.04824,0.50358,67.0
1774823570.9160569,0.00394749641418457,2026-03-29T22:32:50.916,2026-03-29T18:32:50.916,-21356.64,-44202.509999999995,-76833.675,-48827.43,-8680.77,-16322.625,8124.21,-65535.075,6.590817202491724,8.153379512009053,3.095887873807825,2.4868827674693965,4.9674714788225245,5.397816109552565,1.4110091214124598,1.600949979838863,0.12487761,-0.979428645,0.1379391,-16.06878,-11.04824,0.50358,67.0
1774823570.916086,2.9087066650390625e-05,2026-03-29T22:32:50.916,2026-03-29T18:32:50.916,-21354.93,-44198.189999999995,-76815.495,-48826.439999999995,-8684.91,-16329.24,8081.235,-65551.635,6.20045031622046,8.228672711204299,6.126402709524067,1.7325072410949371,3.061594055042043,2.8468416123261364,0.5044382757715414,0.21526384385491398,0.12487761,-0.979428645,0.1379391,-16.06878,-11.04824,0.50358,67.0
1774823570.92011,0.004024028778076172,2026-03-29T22:32:50.920,2026-03-29T18:32:50.920,-21340.53,-44181.405,-76791.375,-48802.14,-8661.645,-16306.83,8098.83,-65533.32,3.1043036534653288,4.637955098004827,6.512640841956091,0.358554930134486,-0.10267360331798056,-0.8478576785571953,-0.2403379519819122,-1.0227757344731052,0.12487761,-0.979428645,0.1379391,-16.06878,-11.04824,0.50358,67.0
1774823570.9201317,2.1696090698242188e-05,2026-03-29T22:32:50.920,2026-03-29T18:32:50.920,-21354.795,-44182.08,-76784.94,-48781.215,-8637.615,-16282.035,8153.37,-65533.68,-1.529989302132783,-1.0505357563953777,3.9710439180968558,-0.9702699785113696,-2.968060302180578,-3.8711021566845396,-0.6136425168051824,-1.8255503625833283,0.12487761,-0.979428645,0.1379391,-16.06878,-11.04824,0.50358,67.0
1774823570.9239545,0.003822803497314453,2026-03-29T22:32:50.923,2026-03-29T18:32:50.923,-21371.535,-44201.744999999995,-76810.68,-48799.215,-8651.789999999999,-16293.33,8166.6449999999995,-65536.11,-5.750823835270145,-6.291852440431768,-0.43596862759992105,-1.6916268532745862,-4.215066195768407,-4.831663003817271,-0.7067273113239009,-2.085386658027037,0.12487761,-0.979428645,0.1379391,-16.06878,-11.04824,0.50358,67.0
1774823570.9239748,2.0265579223632812e-05,2026-03-29T22:32:50.923,2026-03-29T18:32:50.923,-21376.98,-44211.06,-76819.00499999999,-48808.799999999996,-8663.265,-16303.859999999999,8149.545,-65534.265,-7.638488422634806,-8.709515516015681,-4.7426461883144135,-1.5823989976159123,-3.3752240917199194,-3.4098635997760014,-0.7394174384915637,-1.7919005671881814,0.12487761,-0.979428645,0.1379391,-16.06878,-11.04824,0.50358,67.0
1774823570.9283164,0.004341602325439453,2026-03-29T22:32:50.928,2026-03-29T18:32:50.928,-21366.045,-44201.52,-76804.155,-48799.979999999996,-8656.695,-16298.82,8137.844999999999,-65519.64,-6.191744575931646,-7.189824765280871,-6.971627845032443,-0.8179140075577752,-1.0075186055956504,-0.4582365510041514,-0.8280381729795607,-0.9835047888393764,0.12487761,-0.979428645,0.1379391,-16.06878,-11.04824,0.50358,67.0
1774823570.928331,1.4543533325195312e-05,2026-03-29T22:32:50.928,2026-03-29T18:32:50.928,-21362.085,-44205.84,-76811.805,-48804.84,-8653.365,-16299.765,8114.67,-65528.505,-1.8696490488736561,-2.413556659878873,-6.063109405689726,0.15642800055538625,1.6293198255216412,2.4740284345135533,-0.8661944290940091,0.21790763013454498,0.12487761,-0.979428645,0.1379391,-16.06878,-11.04824,0.50358,67.0
1774823570.9324305,0.004099607467651367,2026-03-29T22:32:50.932,2026-03-29T18:32:50.932,-21343.05,-44186.04,-76792.05,-48786.03,-8632.529999999999,-16279.605,8120.745,-65520.045,3.5077724675707045,3.4370842003063085,-2.395145047971913,0.864164679917685,3.229007794098751,3.9388816955738855,-0.6064627305342776,1.533183070206554,0.11975067,-0.9866918100000001,0.13708461,-13.94764,-14.35966,0.54936,67.0
1774823570.932479,4.839897155761719e-05,2026-03-29T22:32:50.932,2026-03-29T18:32:50.932,-21343.41,-44187.119999999995,-76801.905,-48795.435,-8639.955,-16284.689999999999,8137.259999999999,-65519.369999999995,7.514415698188078,7.676050258939798,2.3672314321566033,1.0254930931146407,3.0822908090855416,3.304013776067135,0.11087741269413616,2.514860182215219,0.11975067,-0.9866918100000001,0.13708461,-13.94764,-14.35966,0.54936,67.0
1774823570.9505863,0.01810741424560547,2026-03-29T22:32:50.950,2026-03-29T18:32:50.950,-21362.489999999998,-44217.945,-76841.91,-48824.82,-8670.465,-16317.539999999999,8115.255,-65526.299999999996,8.222204061703023,8.359112244212149,6.037396545487605,0.6668388231178808,1.396440710741726,1.0314641556295314,1.144946688246783,2.6758742033494887,0.11975067,-0.9866918100000001,0.13708461,-13.94764,-14.35966,0.54936,67.0
1774823570.9506056,1.9311904907226562e-05,2026-03-29T22:32:50.950,2026-03-29T18:32:50.950,-21371.13,-44236.034999999996,-76858.155,-48839.085,-8685.675,-16332.795,8122.95,-65526.93,5.147621327847428,5.194008898014536,6.930587188058032,0.06984625290988762,-0.8568426143316049,-1.605500914635859,2.0250637061398984,1.7373216316284465,0.11975067,-0.9866918100000001,0.13708461,-13.94764,-14.35966,0.54936,67.0
1774823570.950641,3.528594970703125e-05,2026-03-29T22:32:50.950,2026-03-29T18:32:50.950,-21362.355,-44225.189999999995,-76843.305,-48829.229999999996,-8679.869999999999,-16329.105,8120.5199999999995,-65521.53,-0.4319793338954751,-0.31943873388492644,4.657376558592321,-0.40198383936175347,-2.4721695875529957,-3.207643878303426,2.1656137705955105,-0.13314285508684426,0.11975067,-0.9866918100000001,0.13708461,-13.94764,-14.35966,0.54936,67.0
1774823570.95065,9.059906005859375e-06,2026-03-29T22:32:50.950,2026-03-29T18:32:50.950,-21362.94,-44204.22,-76806.405,-48804.255,-8660.565,-16310.474999999999,8109.945,-65530.35,-5.991439440651244,-5.5934671455604805,0.3043530794291629,-0.5031827363114335,-2.639442390407675,-2.9778403834956784,1.2265649782425019,-2.260939777556913,0.11975067,-0.9866918100000001,0.13708461,-13.94764,-14.35966,0.54936,67.0
1774823570.9506588,8.821487426757812e-06,2026-03-29T22:32:50.950,2026-03-29T18:32:50.950,-21360.015,-44212.32,-76824.22499999999,-48813.21,-8667.315,-16315.154999999999,8099.009999999999,-65526.03,-8.904339704648747,-8.172737171742769,-4.0869112635576474,-0.22907118712852814,-1.3481641405702502,-1.1180638104190455,-0.5922974316039735,-3.6819397908065503,0.11975067,-0.9866918100000001,0.13708461,-13.94764,-14.35966,0.54936,67.0
1774823570.9506652,6.4373016357421875e-06,2026-03-29T22:32:50.950,2026-03-29T18:32:50.950,-21384.045,-44220.465,-76832.685,-48814.784999999996,-8662.32,-16308.585,8106.705,-65553.56999999999,-7.700728817780252,-6.89244742940582,-6.4917110770125825,0.1984000741511826,0.6343316773920639,1.302913725839463,-2.5279325383617794,-3.5846397400698016,0.11975067,-0.9866918100000001,0.13708461,-13.94764,-14.35966,0.54936,67.0
1774823570.9506729,7.62939453125e-06,2026-03-29T22:32:50.950,2026-03-29T18:32:50.950,-21379.545,-44213.805,-76827.645,-48817.619999999995,-8662.815,-16307.955,8114.4,-65555.775,-2.8260409740247563,-2.420962206252045,-5.855580224139726,0.469069178038266,2.1902605610412937,2.9342561348519074,-3.569566566572057,-1.771824554586759,0.11975067,-0.9866918100000001,0.13708461,-13.94764,-14.35966,0.54936,67.0
1774823570.950679,6.198883056640625e-06,2026-03-29T22:32:50.950,2026-03-29T18:32:50.950,-21370.364999999998,-44209.439999999995,-76822.73999999999,-48815.595,-8662.14,-16309.035,8114.355,-65545.425,3.497169010417273,3.0735542741325887,-2.5711362407348894,0.3701587966188974,2.455437329365115,2.8701099254325517,-2.985008790905787,1.119419473498083,0.11975067,-0.9866918100000001,0.13708461,-13.94764,-14.35966,0.54936,67.0
1774823570.9529524,0.0022733211517333984,2026-03-29T22:32:50.952,2026-03-29T18:32:50.952,-21371.895,-44210.295,-76821.3,-48811.185,-8656.83,-16305.21,8094.509999999999,-65547.315,8.27991484159417,6.971787993272894,1.744237896946181,-0.08225735270007929,1.2821593960395057,1.136638802993626,-0.7841457425115912,3.8094708104891177,0.121276545,-1.00903062,0.13647426000000001,0.5341,-14.527519999999999,1.15976,67.0
1774823570.9530537,0.00010132789611816406,2026-03-29T22:32:50.953,2026-03-29T18:32:50.953,-21369.645,-44209.439999999995,-76816.75499999999,-48803.939999999995,-8646.84,-16295.894999999999,8099.6849999999995,-65544.03,9.191442173776545,7.460597705492127,5.0498988640849305,-0.6391108039697789,-0.6814738741136379,-1.3175305695840538,2.1572830536469034,4.943852240895321,0.121276545,-1.00903062,0.13647426000000001,0.5341,-14.527519999999999,1.15976,67.0
1774823570.957194,0.004140377044677734,2026-03-29T22:32:50.957,2026-03-29T18:32:50.957,-21362.94,-44212.545,-76816.62,-48809.34,-8654.085,-16301.835,8118.045,-65531.43,5.713137962018289,4.391226244881639,5.862888496755707,-0.9481590975871438,-2.3376395779724795,-3.124875808886491,4.434253615058776,3.784291243122709,0.121276545,-1.00903062,0.13647426000000001,0.5341,-14.527519999999999,1.15976,67.0
1774823570.9572105,1.6450881958007812e-05,2026-03-29T22:32:50.957,2026-03-29T18:32:50.957,-21361.5,-44218.755,-76822.29,-48814.064999999995,-8665.74,-16314.615,8100.045,-65534.13,-0.5574977071436024,-0.6747172719418014,3.9394117653682383,-0.7527557954091011,-2.7296394303135405,-3.234749771677713,4.786524679043804,0.6666844833194231,0.121276545,-1.00903062,0.13647426000000001,0.5341,-14.527519999999999,1.15976,67.0
1774823570.960492,0.0032813549041748047,2026-03-29T22:32:50.960,2026-03-29T18:32:50.960,-21368.07,-44220.735,-76826.06999999999,-48804.255,-8658.494999999999,-16310.385,8095.1849999999995,-65544.84,-6.63232671811244,-5.247970768502998,0.33590547516857405,-0.054409606912469106,-1.5672011076109822,-1.4944303215571593,2.785004895768448,-3.0488779343253065,0.121276545,-1.00903062,0.13647426000000001,0.5341,-14.527519999999999,1.15976,67.0
1774823570.9605184,2.6464462280273438e-05,2026-03-29T22:32:50.960,2026-03-29T18:32:50.960,-21361.68,-44224.244999999995,-76845.105,-48817.755,-8665.875,-16316.73,8094.42,-65535.165,-9.561728578306777,-7.134843684255061,-3.158507219371776,0.8528704795511014,0.5934310298103662,1.2362436273289794,-0.8392068792532701,-5.5681647385529764,0.121276545,-1.00903062,0.13647426000000001,0.5341,-14.527519999999999,1.15976,67.0
1774823570.964206,0.003687620162963867,2026-03-29T22:32:50.964,2026-03-29T18:32:50.964,-21381.165,-44234.145,-76863.555,-48826.17,-8660.88,-16307.955,8112.105,-65550.915,-7.880910615345849,-5.499180937271402,-4.917506339702714,1.5063612848416277,2.6176562121574367,3.509169205016141,-4.439688984703442,-5.538547322937257,0.121276545,-1.00903062,0.13647426000000001,0.5341,-14.527519999999999,1.15976,67.0
1774823570.9642336,2.765655517578125e-05,2026-03-29T22:32:50.964,2026-03-29T18:32:50.964,-21387.825,-44236.395,-76867.02,-48832.695,-8656.38,-16299.539999999999,8128.799999999999,-65550.59999999999,-2.357503844156729,-1.2443061752164655,-4.249321805796066,1.504815205407258,3.378953768265122,4.04213377973661,-6.204891359433925,-2.7784236843592542,0.121276545,-1.00903062,0.13647426000000001,0.5341,-14.527519999999999,1.15976,67.0
1774823570.9682488,0.004015207290649414,2026-03-29T22:32:50.968,2026-03-29T18:32:50.968,-21367.17,-44219.07,-76843.845,-48836.52,-8664.93,-16309.755,8088.795,-65538.63,4.347295949077631,3.465200404039436,-1.671495789509235,0.7329178460663356,2.363846553592229,2.4150289902184996,-5.070206305722356,1.5339527779878086,0.121276545,-1.00903062,0.13647426000000001,0.5341,-14.527519999999999,1.15976,67.0
1774823570.968269,2.0265579223632812e-05,2026-03-29T22:32:50.968,2026-03-29T18:32:50.968,-21342.645,-44211.15,-76837.41,-48834.045,-8673.57,-16320.24,8081.91,-65517.975,8.960100703284503,6.295762162298413,1.4223836335977151,-0.5389368254258793,-0.022117201718674873,-0.6607726669222722,-1.3318411797862375,5.355416670249123,0.121276545,-1.00903062,0.13647426000000001,0.5341,-14.527519999999999,1.15976,67.0
1774823570.9719884,0.003719329833984375,2026-03-29T22:32:50.971,2026-03-29T18:32:50.971,-21330.405,-44208.54,-76837.905,-48826.439999999995,-8672.76,-16321.365,8103.195,-65503.215,9.201765975551309,5.902859080484054,3.5067080579574728,-1.7445056733817441,-2.6185189737513257,-3.657575736676023,3.3814990574950405,6.752843519365399,0.121520685,-1.01708724,0.137511855,12.86418,-13.33724,0.6867,67.0
1774823570.972072,8.344650268554688e-05,2026-03-29T22:32:50.972,2026-03-29T18:32:50.972,-21321.945,-44208.54,-76836.465,-48825.54,-8673.525,-16322.49,8119.71,-65486.115,4.926015170312813,2.578785869305077,3.6844727837582876,-2.2743909321561966,-4.076911237830165,-4.989708896223326,6.817946670244845,4.889099064856636,0.121520685,-1.01708724,0.137511855,12.86418,-13.33724,0.6867,67.0
1774823570.976192,0.0041201114654541016,2026-03-29T22:32:50.976,2026-03-29T18:32:50.976,-21368.385,-44210.564999999995,-76815.62999999999,-48810.284999999996,-8657.865,-16302.015,8102.61,-65543.08499999999,-1.7843558013275678,-1.9263751634295907,2.0812708708449845,-1.7789918178737465,-3.552471947563155,-3.838769914515215,7.183571085548716,0.5133865916616573,0.121520685,-1.01708724,0.137511855,12.86418,-13.33724,0.6867,67.0
1774823570.976222,3.0040740966796875e-05,2026-03-29T22:32:50.976,2026-03-29T18:32:50.976,-21405.825,-44205.884999999995,-76795.56,-48787.784999999996,-8638.38,-16284.105,8089.5599999999995,-65595.78,-7.627425196570564,-5.310744513563421,-0.30468160480359807,-0.3731968473688497,-1.1688029286039965,-0.6212140553653271,4.07308986071738,-4.3261495615988075,0.121520685,-1.01708724,0.137511855,12.86418,-13.33724,0.6867,67.0
1774823570.9822056,0.005983591079711914,2026-03-29T22:32:50.982,2026-03-29T18:32:50.982,-21377.114999999998,-44209.755,-76812.56999999999,-48798.314999999995,-8652.06,-16303.949999999999,8084.5199999999995,-65562.03,-9.709773533448695,-5.890029570722354,-2.185884925465993,1.369733927520666,1.9918837695768747,3.1578880818241477,-1.230942018530787,-7.24519531385173,0.121520685,-1.01708724,0.137511855,12.86418,-13.33724,0.6867,67.0
1774823570.982218,1.239776611328125e-05,2026-03-29T22:32:50.982,2026-03-29T18:32:50.982,-21360.87,-44208.854999999996,-76818.78,-48800.79,-8654.625,-16306.74,8107.469999999999,-65541.555,-6.9871468762253075,-3.4382419171627308,-2.6736530752385033,2.652114711198996,4.387667965712371,5.616033839518204,-6.2823043624985075,-6.7062392505797135,0.121520685,-1.01708724,0.137511855,12.86418,-13.33724,0.6867,67.0
1774823570.9822328,1.4781951904296875e-05,2026-03-29T22:32:50.982,2026-03-29T18:32:50.982,-21356.505,-44212.59,-76824.27,-48806.865,-8660.34,-16310.654999999999,8087.715,-65538.495,-0.7966211850569773,0.7215561493108559,-1.7052680484866556,2.818596315645876,4.771699667875521,5.430397579208107,-8.606609190691705,-2.830517395978305,0.121520685,-1.01708724,0.137511855,12.86418,-13.33724,0.6867,67.0
1774823570.9822395,6.67572021484375e-06,2026-03-29T22:32:50.982,2026-03-29T18:32:50.982,-21355.29,-44207.685,-76815.0,-48802.14,-8659.619999999999,-16310.97,8059.545,-65539.08,5.7946146696395795,4.414951411202086,-0.0011646125461526793,1.6867760558002658,2.832328159016833,2.5345588649337736,-6.916943487595399,2.590673146237113,0.121520685,-1.01708724,0.137511855,12.86418,-13.33724,0.6867,67.0
1774823570.9879913,0.005751848220825195,2026-03-29T22:32:50.987,2026-03-29T18:32:50.987,-21371.579999999998,-44211.6,-76810.545,-48798.99,-8659.71,-16307.64,8112.42,-65550.23999999999,9.508555444453828,5.740326210538898,1.396100791225372,-0.32347683887808026,-0.6069110823554889,-1.786742378882243,-1.8100193850189987,6.9256478746956525,0.121520685,-1.01708724,0.137511855,12.86418,-13.33724,0.6867,67.0
1774823570.98802,2.86102294921875e-05,2026-03-29T22:32:50.988,2026-03-29T18:32:50.988,-21374.594999999998,-44222.805,-76827.33,-48814.47,-8670.06,-16314.885,8146.3949999999995,-65545.29,8.490317125816947,4.042599502916116,1.7268382705975769,-2.3414511662020767,-3.943534353379403,-5.475971690327193,4.428081664491741,7.987263572910543,0.121520685,-1.01708724,0.137511855,12.86418,-13.33724,0.6867,67.0
1774823570.9920237,0.004003763198852539,2026-03-29T22:32:50.992,2026-03-29T18:32:50.992,-21369.735,-44222.67,-76827.15,-48813.345,-8665.515,-16311.105,8144.6849999999995,-65541.645,3.2396212137615255,0.2393964721077714,0.9228733872681435,-3.4260087039891975,-5.551445923129263,-6.690238829555886,8.853122424035124,5.141608788481436,0.11950653,-1.004330925,0.13720668,11.73494,-14.92428,2.48738,67.0
1774823570.9920366,1.2874603271484375e-05,2026-03-29T22:32:50.992,2026-03-29T18:32:50.992,-21375.18,-44226.18,-76829.895,-48816.72,-8665.065,-16312.814999999999,8124.344999999999,-65544.165,-3.630715978694074,-3.664284890921813,-0.39877324602983494,-3.0077872364922364,-4.575722971881072,-4.720711284260787,9.261468504446484,-0.3242308589827581,0.11950653,-1.004330925,0.13720668,11.73494,-14.92428,2.48738,67.0
1774823570.9988358,0.006799221038818359,2026-03-29T22:32:50.998,2026-03-29T18:32:50.998,-21383.28,-44224.424999999996,-76828.86,-48814.11,-8656.695,-16302.869999999999,8110.44,-65552.58,-8.694168077421498,-5.62036254108916,-1.3374279716307294,-1.1842467179422311,-1.3774281339053474,-0.3857070391822229,5.286934817886149,-5.78427344155854,0.11950653,-1.004330925,0.13720668,11.73494,-14.92428,2.48738,67.0
1774823570.9988499,1.4066696166992188e-05,2026-03-29T22:32:50.998,2026-03-29T18:32:50.998,-21380.67,-44224.92,-76843.125,-48826.034999999996,-8669.07,-16308.765,8101.259999999999,-65549.06999999999,-9.421158780291755,-4.601658253097761,-1.2639739844033433,1.2840125365183237,2.599531626530622,4.3136965935850435,-1.3508188708220383,-8.541975380168175,0.11950653,-1.004330925,0.13720668,11.73494,-14.92428,2.48738,67.0
1774823570.9988632,1.33514404296875e-05,2026-03-29T22:32:50.998,2026-03-29T18:32:50.998,-21366.27,-44216.009999999995,-76838.805,-48817.845,-8661.6,-16300.125,8125.0199999999995,-65537.81999999999,-5.445194255013747,-1.136387288753417,-0.2052968199014605,3.292430972365278,5.490435004053415,7.128499408757302,-7.597051048667097,-7.168378533270416,0.11950653,-1.004330925,0.13720668,11.73494,-14.92428,2.48738,67.0
1774823570.998871,7.867813110351562e-06,2026-03-29T22:32:50.998,2026-03-29T18:32:50.998,-21356.505,-44204.67,-76819.815,-48798.765,-8647.47,-16288.785,8125.29,-65533.005,1.2511868235323462,2.9636606073706213,1.1657392601619145,3.8928275558213556,5.8927258889169325,6.645592402733278,-10.480534458248627,-2.2425283554659923,0.11950653,-1.004330925,0.13720668,11.73494,-14.92428,2.48738,67.0
1774823571.0046113,0.005740165710449219,2026-03-29T22:32:51.004,2026-03-29T18:32:51.004,-21353.535,-44197.02,-76801.72499999999,-48778.38,-8633.34,-16278.119999999999,8134.74,-65534.22,7.325846113687891,5.542575348660628,1.9312824151199892,2.745896429599458,3.5482484248556254,2.995145037471814,-8.534710609427837,3.8896802036065843,0.11950653,-1.004330925,0.13720668,11.73494,-14.92428,2.48738,67.0
1774823571.0046291,1.7881393432617188e-05,2026-03-29T22:32:51.004,2026-03-29T18:32:51.004,-21362.13,-44199.54,-76803.345,-48793.5,-8658.945,-16311.24,8089.875,-65551.14,9.747401134967001,5.223371114336642,1.4906377341714916,0.3079039985100942,-0.5078310170055244,-2.1717789947816737,-2.5374003678693553,8.239249631592399,0.11950653,-1.004330925,0.13720668,11.73494,-14.92428,2.48738,67.0
1774823571.01558,0.010950803756713867,2026-03-29T22:32:51.015,2026-03-29T18:32:51.015,-21360.239999999998,-44196.255,-76802.94,-48799.845,-8666.055,-16321.32,8100.2699999999995,-65544.12,7.309928295044236,2.1333998229078563,-0.04418690529158523,-2.349500825656092,-4.412442448359758,-6.440438399474238,4.80223793362867,8.638546557721059,0.11950653,-1.004330925,0.13720668,11.73494,-14.92428,2.48738,67.0
1774823571.0155969,1.6927719116210938e-05,2026-03-29T22:32:51.015,2026-03-29T18:32:51.015,-21390.21,-44234.64,-76842.18,-48829.095,-8683.38,-16331.76,8117.82,-65554.155,1.233411306233493,-2.1467851651565955,-1.859821133510158,-4.0163594975665635,-6.341355603813401,-7.7725887297416705,10.08218514910664,4.824914077571109,0.11950653,-1.004330925,0.13720668,11.73494,-14.92428,2.48738,67.0
1774823571.0156133,1.6450881958007812e-05,2026-03-29T22:32:51.015,2026-03-29T18:32:51.015,-21390.165,-44235.63,-76847.84999999999,-48846.015,-8699.985,-16344.135,8077.41,-65565.27,-5.449644028803584,-5.390829420053999,-2.8729853834672774,-3.9035950931647556,-5.36934930007903,-5.486325096305421,10.798114613985215,-1.4002185100516011,0.121276545,-0.99657948,0.13720668,7.05012,-16.61814,5.2646999999999995,67.0
1774823571.015618,4.76837158203125e-06,2026-03-29T22:32:51.015,2026-03-29T18:32:51.015,-21377.07,-44213.22,-76813.83,-48808.979999999996,-8665.92,-16309.529999999999,8091.855,-65557.8,-9.412013949688866,-5.878449633973365,-2.3533608961511767,-2.022384246330435,-1.9149613782968864,-0.6018505656962507,6.5355401228040115,-7.028683989215094,0.121276545,-0.99657948,0.13720668,7.05012,-16.61814,5.2646999999999995,67.0
1774823571.015845,0.0002269744873046875,2026-03-29T22:32:51.015,2026-03-29T18:32:51.015,-21370.77,-44217.674999999996,-76819.5,-48811.905,-8666.145,-16304.445,8112.0599999999995,-65549.385,-8.692059334973239,-3.298161501784407,-0.38829033349930475,0.8012261606295636,2.4443022770006686,4.620858541407559,-0.8065804583932331,-9.308100040810027,0.121276545,-0.99657948,0.13720668,7.05012,-16.61814,5.2646999999999995,67.0
1774823571.0158517,6.67572021484375e-06,2026-03-29T22:32:51.015,2026-03-29T18:32:51.015,-21365.19,-44224.604999999996,-76827.105,-48817.17,-8672.265,-16309.755,8122.634999999999,-65539.305,-3.665718170358185,1.0695155558199685,2.0881736488496316,3.293122908444751,5.702497062154752,7.739729892167946,-7.876451231585182,-7.093987805351442,0.121276545,-0.99657948,0.13720668,7.05012,-16.61814,5.2646999999999995,67.0
1774823571.0211005,0.0052487850189208984,2026-03-29T22:32:51.021,2026-03-29T18:32:51.021,-21360.195,-44227.89,-76838.4,-48818.43,-8674.154999999999,-16315.83,8096.445,-65530.395,3.1524901242053804,4.991550652219661,3.747618539314462,4.314923021473794,6.3588287343730645,7.283444348685377,-11.41722727527032,-1.4239828575971842,0.121276545,-0.99657948,0.13720668,7.05012,-16.61814,5.2646999999999995,67.0
1774823571.0211325,3.1948089599609375e-05,2026-03-29T22:32:51.021,2026-03-29T18:32:51.021,-21359.114999999998,-44222.759999999995,-76842.27,-48830.354999999996,-8688.42,-16330.769999999999,8048.88,-65526.615,8.373574775653196,6.4238613856047415,3.5784565235730126,3.393502284903722,4.115370327972361,3.450627663831137,-9.778721849612612,4.974111680436031,0.121276545,-0.99657948,0.13720668,7.05012,-16.61814,5.2646999999999995,67.0
1774823571.0243857,0.0032532215118408203,2026-03-29T22:32:51.024,2026-03-29T18:32:51.024,-21375.405,-44227.665,-76857.20999999999,-48850.515,-8702.955,-16339.994999999999,8069.085,-65540.11499999999,9.425223663764116,4.57140745086603,1.4760020988799027,0.945787463814041,0.011938872972924772,-1.9789043180991448,-3.685575834357802,9.004555235876639,0.121276545,-0.99657948,0.13720668,7.05012,-16.61814,5.2646999999999995,67.0
1774823571.0244133,2.765655517578125e-05,2026-03-29T22:32:51.024,2026-03-29T18:32:51.024,-21371.04,-44209.305,-76828.59,-48827.43,-8677.215,-16309.935,8153.505,-65545.33499999999,5.822902471019768,0.31902632330371933,-1.6232985734597194,-1.9105853553568486,-4.062606093145142,-6.479975081276604,4.0957975268225395,8.710528259937632,0.121276545,-0.99657948,0.13720668,7.05012,-16.61814,5.2646999999999995,67.0
1774823571.0283148,0.0039014816284179688,2026-03-29T22:32:51.028,2026-03-29T18:32:51.028,-21348.18,-44204.13,-76822.69499999999,-48817.53,-8670.645,-16305.39,8165.61,-65514.195,-0.6093705160122052,-4.196908787310196,-4.16663017887834,-3.874683580508462,-6.250029739029027,-7.968360143783357,10.032603243803967,4.227716625104461,0.121276545,-0.99657948,0.13720668,7.05012,-16.61814,5.2646999999999995,67.0
1774823571.02834,2.5272369384765625e-05,2026-03-29T22:32:51.028,2026-03-29T18:32:51.028,-21342.555,-44210.564999999995,-76834.34999999999,-48824.729999999996,-8680.904999999999,-16317.09,8134.92,-65509.47,-6.668345310533452,-6.666442152404384,-4.77236466165183,-4.065276605903045,-5.5793728743727335,-5.775220175257011,11.446270830911928,-2.2820335294047314,0.121276545,-0.99657948,0.13720668,7.05012,-16.61814,5.2646999999999995,67.0
1774823571.0322776,0.003937482833862305,2026-03-29T22:32:51.032,2026-03-29T18:32:51.032,-21352.68,-44210.43,-76826.97,-48817.619999999995,-8674.74,-16310.925,8143.29,-65520.18,-9.3754081482037,-5.787893655867566,-2.977077154758058,-2.4253600774220017,-2.4018645018513767,-0.9502273202143721,7.726743085885721,-7.683018943103134,0.12445036500000001,-0.998959845,0.13867152,9.44594,-14.08498,6.104,67.0
1774823571.0323057,2.8133392333984375e-05,2026-03-29T22:32:51.032,2026-03-29T18:32:51.032,-21373.829999999998,-44214.93,-76823.19,-48812.085,-8667.63,-16302.779999999999,8137.17,-65547.54,-7.448222809969243,-1.9487392839327131,0.46031510976760276,0.26165610328748085,1.7922330379878813,4.244924639317484,0.5869283328211212,-9.387322505438794,0.12445036500000001,-0.998959845,0.13867152,9.44594,-14.08498,6.104,67.0
1774823571.0363135,0.004007816314697266,2026-03-29T22:32:51.036,2026-03-29T18:32:51.036,-21372.03,-44206.47,-76811.535,-48797.82,-8656.289999999999,-16293.779999999999,8102.5199999999995,-65555.91,-1.9095900950801517,2.948807656522684,3.8825968131599238,2.7487897175253257,5.079593691019044,7.406405741615387,-6.744301265883673,-6.6021472993955435,0.12445036500000001,-0.998959845,0.13867152,9.44594,-14.08498,6.104,67.0
1774823571.0363364,2.288818359375e-05,2026-03-29T22:32:51.036,2026-03-29T18:32:51.036,-21350.565,-44190.27,-76797.855,-48784.455,-8646.164999999999,-16286.625,8088.4349999999995,-65545.47,4.45650508550175,6.437477558309234,5.546549569218723,3.9131133309830064,5.995238793213885,7.111290715898362,-11.002192741674955,-0.6980412685190127,0.12445036500000001,-0.998959845,0.13867152,9.44594,-14.08498,6.104,67.0
1774823571.0402076,0.0038712024688720703,2026-03-29T22:32:51.040,2026-03-29T18:32:51.040,-21347.055,-44195.085,-76804.47,-48793.95,-8658.27,-16299.81,8101.3949999999995,-65537.45999999999,8.512443654534996,6.732821731362159,4.5194845898744775,3.2734711409029806,4.192340083506133,3.564580856635196,-10.351423125317304,5.472939286916038,0.12445036500000001,-0.998959845,0.13867152,9.44594,-14.08498,6.104,67.0
1774823571.0402336,2.5987625122070312e-05,2026-03-29T22:32:51.040,2026-03-29T18:32:51.040,-21363.03,-44208.314999999995,-76814.955,-48804.435,-8668.845,-16310.115,8133.929999999999,-65543.13,8.323194270465882,3.646030221681515,1.1953904042294998,1.1947972037225587,0.5703984617129523,-1.5266970705108525,-5.173395187392404,8.966838089501186,0.12445036500000001,-0.998959845,0.13867152,9.44594,-14.08498,6.104,67.0
1774823571.044376,0.004142284393310547,2026-03-29T22:32:51.044,2026-03-29T18:32:51.044,-21350.969999999998,-44197.92,-76808.52,-48798.36,-8664.345,-16307.099999999999,8148.195,-65526.345,4.0850391886675155,-1.3054629554348567,-2.8522904809307628,-1.3106294535893457,-3.1736283688319418,-5.779630924220595,2.1602076551426856,8.162768622680414,0.12445036500000001,-0.998959845,0.13867152,9.44594,-14.08498,6.104,67.0
1774823571.0443904,1.4543533325195312e-05,2026-03-29T22:32:51.044,2026-03-29T18:32:51.044,-21349.575,-44204.445,-76812.97499999999,-48802.95,-8673.345,-16314.119999999999,8149.1849999999995,-65516.805,-2.021568747108423,-5.6513485678023425,-5.628490713209415,-3.0800107445244986,-5.347189853576694,-7.260023570817199,8.393743120081316,3.5182499885729754,0.12445036500000001,-0.998959845,0.13867152,9.44594,-14.08498,6.104,67.0
1774823571.048394,0.0040035247802734375,2026-03-29T22:32:51.048,2026-03-29T18:32:51.048,-21387.195,-44245.08,-76851.495,-48835.08,-8704.305,-16339.41,8083.08,-65552.175,-6.9578578849877335,-7.2086059426947,-5.713988357223867,-3.3495766942780483,-5.035328083074869,-5.370814919407657,10.84862697273317,-2.688765141428372,0.12445036500000001,-0.998959845,0.13867152,9.44594,-14.08498,6.104,67.0
1774823571.0484152,2.1219253540039062e-05,2026-03-29T22:32:51.048,2026-03-29T18:32:51.048,-21410.1,-44252.909999999996,-76853.745,-48827.564999999995,-8695.44,-16331.76,8061.974999999999,-65578.455,-8.34853191995149,-5.182485416642161,-2.9976060647852036,-2.09287191879992,-2.4886730957100114,-1.0926023325864502,8.575959656391868,-7.487087610630178,0.12445036500000001,-0.998959845,0.13867152,9.44594,-14.08498,6.104,67.0
1774823571.05226,0.003844738006591797,2026-03-29T22:32:51.052,2026-03-29T18:32:51.052,-21381.255,-44229.015,-76839.84,-48805.02,-8667.404999999999,-16304.13,8108.505,-65556.18,-5.633308674228788,-0.5709896965827017,1.2374417105199036,0.0062201698975384075,1.0393954533309047,3.520252299509829,2.704214937811713,-8.646644137908934,0.12597624,-0.9973119,0.136291155,11.47552,-10.92616,5.70724,67.0
1774823571.05229,3.0040740966796875e-05,2026-03-29T22:32:51.052,2026-03-29T18:32:51.052,-21363.12,-44224.604999999996,-76849.65,-48824.145,-8681.445,-16315.335,8128.62,-65531.52,-0.286124756774147,4.3326985344111755,4.930272860586791,1.9176771741615428,3.910080253510778,6.330818514566929,-4.133967016382694,-5.722081372634738,0.12597624,-0.9973119,0.136291155,11.47552,-10.92616,5.70724,67.0
1774823571.056327,0.004037141799926758,2026-03-29T22:32:51.056,2026-03-29T18:32:51.056,-21349.934999999998,-44216.775,-76840.47,-48836.295,-8692.515,-16324.605,8130.554999999999,-65515.229999999996,4.979849949932198,7.089175245599647,6.260824318128631,2.7757639136645915,4.86680007279582,6.117899321821457,-8.999852559352936,-0.21395073995768232,0.12597624,-0.9973119,0.136291155,11.47552,-10.92616,5.70724,67.0
1774823571.0563529,2.574920654296875e-05,2026-03-29T22:32:51.056,2026-03-29T18:32:51.056,-21358.665,-44210.924999999996,-76820.175,-48823.965,-8680.095,-16314.21,8118.585,-65534.805,7.594814543443867,6.333631232096124,4.5596909771930765,2.2807613149200137,3.590995461522394,3.111598039222751,-9.918190556285216,5.204791291856365,0.12597624,-0.9973119,0.136291155,11.47552,-10.92616,5.70724,67.0
1774823571.0783055,0.02195262908935547,2026-03-29T22:32:51.078,2026-03-29T18:32:51.078,-21347.864999999998,-44208.99,-76821.525,-48813.975,-8675.595,-16316.189999999999,8088.705,-65532.06,6.395489115698013,2.4541721791233386,0.6487470195121022,0.8012277368516524,0.7978612500713488,-1.1707977291663205,-6.66688314723862,7.996851344861115,0.12597624,-0.9973119,0.136291155,11.47552,-10.92616,5.70724,67.0
1774823571.078334,2.86102294921875e-05,2026-03-29T22:32:51.078,2026-03-29T18:32:51.078,-21355.245,-44223.93,-76838.67,-48815.775,-8685.63,-16331.13,8068.455,-65533.454999999994,2.1439529498666996,-2.6107775614257482,-3.5624724434278345,-0.857331547129175,-2.1505145974001123,-4.687001486169656,-0.7780639282413019,6.958281888141702,0.12597624,-0.9973119,0.136291155,11.47552,-10.92616,5.70724,67.0
1774823571.0784028,6.866455078125e-05,2026-03-29T22:32:51.078,2026-03-29T18:32:51.078,-21351.555,-44231.715,-76846.095,-48821.58,-8693.279999999999,-16338.869999999999,8085.78,-65518.47,-2.9295841218651844,-6.348949013932481,-6.023397919423148,-1.8836018820123006,-3.910295881076668,-5.848455567255287,5.198804755966156,2.73614758733254,0.12597624,-0.9973119,0.136291155,11.47552,-10.92616,5.70724,67.0
1774823571.078418,1.52587890625e-05,2026-03-29T22:32:51.078,2026-03-29T18:32:51.078,-21381.434999999998,-44225.955,-76818.23999999999,-48792.06,-8667.945,-16311.824999999999,8135.099999999999,-65544.61499999999,-6.295133688052854,-6.929087291815234,-5.556243595698077,-1.8634826044650241,-3.774271249177891,-4.244628982370541,8.811105151859874,-2.555271501131417,0.12597624,-0.9973119,0.136291155,11.47552,-10.92616,5.70724,67.0
1774823571.0784345,1.6450881958007812e-05,2026-03-29T22:32:51.078,2026-03-29T18:32:51.078,-21394.44,-44222.13,-76811.12999999999,-48787.875,-8657.369999999999,-16293.33,8149.86,-65551.77,-6.3908057622531835,-4.1032902823015895,-2.4287180073987793,-0.9523031858978416,-1.956532423949214,-0.7798690323046459,8.702856298776098,-6.399034501354692,0.12597624,-0.9973119,0.136291155,11.47552,-10.92616,5.70724,67.0
1774823571.0784461,1.1682510375976562e-05,2026-03-29T22:32:51.078,2026-03-29T18:32:51.078,-21369.69,-44223.975,-76839.345,-48834.674999999996,-8693.64,-16324.605,8126.549999999999,-65533.365,-3.3520068722906684,0.690351617734937,1.7970990407393044,0.25832892440001287,0.5712823130258248,2.8180084485339147,5.096621626887865,-7.082315139097032,0.12597624,-0.9973119,0.136291155,11.47552,-10.92616,5.70724,67.0
1774823571.0784595,1.33514404296875e-05,2026-03-29T22:32:51.078,2026-03-29T18:32:51.078,-21370.184999999998,-44201.655,-76803.525,-48815.64,-8671.68,-16305.39,8109.405,-65552.13,1.1402806667678396,5.065387245222583,5.055315557120549,1.0916300235525933,2.588474512775464,4.8568022406561475,-0.3973887869799657,-4.462609072163963,0.125182785,-0.99181875,0.131652495,10.20894,-11.47552,6.91278,67.0
1774823571.0784707,1.1205673217773438e-05,2026-03-29T22:32:51.078,2026-03-29T18:32:51.078,-21372.3,-44194.14,-76784.76,-48807.27,-8672.175,-16307.055,8101.755,-65553.84,4.777001330103241,6.8839769630095065,5.801444873693827,1.1566381300823068,3.2165020363542043,4.480549275147598,-5.511948262992478,0.05034576950370492,0.125182785,-0.99181875,0.131652495,10.20894,-11.47552,6.91278,67.0
1774823571.078484,1.33514404296875e-05,2026-03-29T22:32:51.078,2026-03-29T18:32:51.078,-21364.29,-44206.47,-76802.04,-48808.619999999995,-8678.115,-16317.404999999999,8091.36,-65537.28,5.808037713526824,5.30862570001162,3.7564520040259097,0.5385949005751859,2.306018046710925,2.030963390373928,-8.256459439093499,4.247116798996657,0.125182785,-0.99181875,0.131652495,10.20894,-11.47552,6.91278,67.0
1774823571.0784948,1.0728836059570312e-05,2026-03-29T22:32:51.078,2026-03-29T18:32:51.078,-21363.12,-44217.045,-76817.925,-48800.655,-8668.619999999999,-16311.734999999999,8106.4349999999995,-65529.99,3.888092685506887,1.187799320287704,0.0054998109759871235,-0.2870474773057553,0.4472872826284959,-1.1838222839428605,-7.670733220318763,6.206095566773074,0.125182785,-0.99181875,0.131652495,10.20894,-11.47552,6.91278,67.0
1774823571.091781,0.013286113739013672,2026-03-29T22:32:51.091,2026-03-29T18:32:51.091,-21351.149999999998,-44214.57,-76827.42,-48793.545,-8656.154999999999,-16297.605,8126.594999999999,-65518.604999999996,0.17095039121863756,-3.402084914765446,-3.5801477454538784,-0.7585904496924831,-1.3763513589933827,-3.5739448615446983,-4.125794038134128,5.178109382471343,0.125182785,-0.99181875,0.131652495,10.20894,-11.47552,6.91278,67.0
1774823571.0918093,2.8371810913085938e-05,2026-03-29T22:32:51.091,2026-03-29T18:32:51.091,-21357.585,-44205.255,-76816.62,-48785.67,-8643.42,-16282.439999999999,8138.61,-65539.34999999999,-3.3582320828158863,-6.210738233163643,-5.289115913736683,-0.5718144799149683,-2.299554659851856,-4.0527077975513714,0.9000569228226182,1.859094090112124,0.125182785,-0.99181875,0.131652495,10.20894,-11.47552,6.91278,67.0
1774823571.0918329,2.3603439331054688e-05,2026-03-29T22:32:51.091,2026-03-29T18:32:51.091,-21373.559999999998,-44204.13,-76813.605,-48800.79,-8654.67,-16291.845,8131.995,-65565.855,-4.935166270295564,-5.925405008076153,-4.399891448018603,0.1351430133600902,-1.988504825132399,-2.5347507866057577,5.439265593958077,-2.0395396215778767,0.125182785,-0.99181875,0.131652495,10.20894,-11.47552,6.91278,67.0
1774823571.0918431,1.0251998901367188e-05,2026-03-29T22:32:51.091,2026-03-29T18:32:51.091,-21358.53,-44189.865,-76795.47,-48806.82,-8670.779999999999,-16311.869999999999,8110.035,-65561.76,-3.898058761486478,-2.786706410145112,-1.4860026779576192,0.8640052118770356,-0.75813363809031,0.08265886550150559,7.788440482948924,-4.670500402729274,0.125182785,-0.99181875,0.131652495,10.20894,-11.47552,6.91278,67.0
1774823571.0918565,1.33514404296875e-05,2026-03-29T22:32:51.091,2026-03-29T18:32:51.091,-21362.985,-44194.365,-76790.25,-48804.075,-8680.365,-16326.359999999999,8081.955,-65571.48,-0.9578627353437322,1.5811368458932562,1.9329643852861533,1.061759962768845,0.6464530094900872,2.421504671626751,7.118685431324717,-4.9289593970086125,0.125182785,-0.99181875,0.131652495,10.20894,-11.47552,6.91278,67.0
1774823571.0918677,1.1205673217773438e-05,2026-03-29T22:32:51.091,2026-03-29T18:32:51.091,-21369.465,-44210.475,-76812.345,-48815.189999999995,-8686.755,-16329.555,8074.9349999999995,-65570.31,2.2485823138434355,5.015731978849015,4.18948869110543,0.47499053526310653,1.4720773537646472,3.3369506823492228,3.7415145223505166,-2.9108579454432313,0.125182785,-0.99181875,0.131652495,10.20894,-11.47552,6.91278,67.0
1774823571.0955195,0.003651857376098633,2026-03-29T22:32:51.095,2026-03-29T18:32:51.095,-21350.43,-44206.47,-76820.175,-48819.104999999996,-8685.36,-16323.795,8076.014999999999,-65537.055,4.054738683168886,5.8953494832360525,4.29368970868535,-0.6562564469947587,1.3536065766875776,2.4778073046834934,-1.0383048720746428,0.2350395503331444,0.124572435,-0.98974356,0.127380045,7.340059999999999,-10.72778,7.553699999999999,67.0
1774823571.0955334,1.3828277587890625e-05,2026-03-29T22:32:51.095,2026-03-29T18:32:51.095,-21342.87,-44203.229999999996,-76821.165,-48812.715,-8669.699999999999,-16308.18,8080.245,-65515.59,3.624398389122213,3.908960673037307,2.3719054927239847,-1.691498300445822,0.4787081872373215,0.41905690019719904,-5.41272328872946,2.9418740923523576,0.124572435,-0.98974356,0.127380045,7.340059999999999,-10.72778,7.553699999999999,67.0
1774823571.0972157,0.001682281494140625,2026-03-29T22:32:51.097,2026-03-29T18:32:51.097,-21361.005,-44206.064999999995,-76811.48999999999,-48798.09,-8654.58,-16294.814999999999,8095.5,-65523.78,1.33358021870352,0.14970146497717327,-0.47825279488477973,-1.936891099928453,-0.5546741717177771,-1.6825269646446948,-7.727805817402452,4.00201264652614,0.124572435,-0.98974356,0.127380045,7.340059999999999,-10.72778,7.553699999999999,67.0
1774823571.097226,1.0251998901367188e-05,2026-03-29T22:32:51.097,2026-03-29T18:32:51.097,-21383.37,-44219.115,-76817.655,-48805.83,-8666.01,-16305.795,8109.36,-65555.325,-1.4974879231053784,-3.4848668983382174,-2.8057941020102355,-1.0637233425982597,-1.0988577097139616,-2.7155147927096883,-7.085502477670004,3.1024827216143755,0.124572435,-0.98974356,0.127380045,7.340059999999999,-10.72778,7.553699999999999,67.0
1774823571.1001484,0.002922534942626953,2026-03-29T22:32:51.100,2026-03-29T18:32:51.100,-21378.69,-44226.27,-76829.175,-48817.89,-8676.494999999999,-16316.865,8091.2699999999995,-65560.905,-3.3479860849185274,-5.257583850378462,-3.552869343315733,0.6399907359334075,-0.8315466594779094,-2.1918132948202973,-3.6848117766493638,0.8835346662530923,0.124572435,-0.98974356,0.127380045,7.340059999999999,-10.72778,7.553699999999999,67.0
1774823571.100166,1.7642974853515625e-05,2026-03-29T22:32:51.100,2026-03-29T18:32:51.100,-21370.77,-44228.97,-76840.83,-48836.34,-8695.215,-16333.199999999999,8124.66,-65545.47,-3.3029745071826397,-4.427807851825441,-2.5423486321504263,2.347847880080632,0.061873571412282245,-0.4785193371980602,1.2233286733566837,-1.4636034601630028,0.124572435,-0.98974356,0.127380045,7.340059999999999,-10.72778,7.553699999999999,67.0
1774823571.106918,0.00675201416015625,2026-03-29T22:32:51.106,2026-03-29T18:32:51.106,-21371.85,-44220.24,-76823.955,-48816.45,-8678.115,-16320.195,8116.92,-65554.155,-1.498441756080784,-1.553570177380734,-0.4784023801981955,3.093496067239581,0.9990085392699274,1.4271840011169765,5.769698343281961,-2.8222410533705826,0.124572435,-0.98974356,0.127380045,7.340059999999999,-10.72778,7.553699999999999,67.0
1774823571.1069405,2.2411346435546875e-05,2026-03-29T22:32:51.106,2026-03-29T18:32:51.106,-21353.715,-44199.045,-76795.965,-48785.13,-8647.47,-16292.789999999999,8109.36,-65549.61,1.008697556074793,1.8591644315935443,1.500168867697178,2.2981335831176826,1.3430001906991582,2.4513828297898974,8.155139270269082,-2.6754376406106752,0.124572435,-0.98974356,0.127380045,7.340059999999999,-10.72778,7.553699999999999,67.0
1774823571.1096768,0.002736330032348633,2026-03-29T22:32:51.109,2026-03-29T18:32:51.109,-21335.13,-44183.295,-76785.795,-48775.59,-8637.885,-16282.08,8132.355,-65533.545,2.8472442629936667,4.148565505202997,2.444723426464005,0.14592438855063317,0.7867063260579626,2.027278242864402,7.354108957283245,-1.2869885157904506,0.124572435,-0.98974356,0.127380045,7.340059999999999,-10.72778,7.553699999999999,67.0
1774823571.1096904,1.3589859008789062e-05,2026-03-29T22:32:51.109,2026-03-29T18:32:51.109,-21349.485,-44196.119999999995,-76800.06,-48785.085,-8644.41,-16286.355,8137.08,-65537.64,3.071596437939547,4.31246918435959,2.058313818463192,-2.416533440254311,-0.439001511002428,0.3995563343434943,3.563082321839219,0.5144336841774665,0.124572435,-0.98974356,0.127380045,7.340059999999999,-10.72778,7.553699999999999,67.0
1774823571.1170263,0.0073359012603759766,2026-03-29T22:32:51.117,2026-03-29T18:32:51.117,-21371.399999999998,-44220.42,-76827.06,-48814.2,-8670.51,-16308.404999999999,8131.32,-65548.70999999999,1.6389641364715062,2.4442262099672414,0.7663391084373088,-4.095986002151164,-1.6591440684389451,-1.5110076987768017,-1.8062360986379893,1.8018904975054826,0.12475554,-0.995297745,0.134338035,11.94858,-6.790699999999999,7.172199999999999,67.0
1774823571.1170382,1.1920928955078125e-05,2026-03-29T22:32:51.117,2026-03-29T18:32:51.117,-21376.395,-44231.22,-76836.06,-48827.97,-8689.14,-16325.73,8137.349999999999,-65549.025,-0.6137066760230275,-0.3988975094536838,-0.6038888162121202,-3.9013517315068587,-2.1136948850769617,-2.6099757764497626,-6.627295808969017,2.013690626343272,0.12475554,-0.995297745,0.134338035,11.94858,-6.790699999999999,7.172199999999999,67.0
1774823571.1170506,1.239776611328125e-05,2026-03-29T22:32:51.117,2026-03-29T18:32:51.117,-21377.25,-44233.515,-76838.44499999999,-48830.265,-8690.445,-16329.465,8118.8099999999995,-65549.925,-2.4552663028912676,-2.7873616096863087,-1.3234885087448438,-1.7014507795029359,-1.3952794878473749,-2.2311275033116105,-8.890760498854904,1.1873469077496193,0.12475554,-0.995297745,0.134338035,11.94858,-6.790699999999999,7.172199999999999,67.0
1774823571.1170547,4.0531158447265625e-06,2026-03-29T22:32:51.117,2026-03-29T18:32:51.117,-21377.88,-44239.68,-76849.065,-48839.67,-8695.305,-16329.24,8117.28,-65543.67,-2.9288688729978936,-3.642790531119973,-1.1498884676922259,1.6129720846676698,0.2752343600060091,-0.5154436954216741,-7.548545010963497,-0.12669932510219095,0.12475554,-0.995297745,0.134338035,11.94858,-6.790699999999999,7.172199999999999,67.0
1774823571.1205056,0.0034508705139160156,2026-03-29T22:32:51.120,2026-03-29T18:32:51.120,-21368.114999999998,-44235.854999999996,-76843.75499999999,-48826.395,-8686.845,-16322.715,8117.73,-65530.485,-1.8419925455326007,-2.7250608030331724,-0.39578919253765954,4.484888516122936,2.101672163188141,1.640375485543914,-3.011821854769213,-1.1957182947199168,0.12475554,-0.995297745,0.134338035,11.94858,-6.790699999999999,7.172199999999999,67.0
1774823571.1205368,3.123283386230469e-05,2026-03-29T22:32:51.120,2026-03-29T18:32:51.120,-21355.739999999998,-44228.205,-76831.11,-48806.28,-8675.19,-16312.724999999999,8126.325,-65513.564999999995,0.17055037957987496,-0.6632532084516445,0.3314057476188877,5.425066594436646,3.0915051526902366,3.0476660538387406,2.9396161107751,-1.491509884495348,0.12475554,-0.995297745,0.134338035,11.94858,-6.790699999999999,7.172199999999999,67.0
1774823571.1271331,0.00659632682800293,2026-03-29T22:32:51.127,2026-03-29T18:32:51.127,-21370.23,-44232.165,-76835.97,-48815.235,-8682.164999999999,-16315.605,8124.795,-65535.39,2.020967828017836,1.4420467532641996,0.5402969730838214,3.777127259067164,2.580605629259082,2.8638954372463874,7.8429080486981215,-0.9366973218564965,0.12475554,-0.995297745,0.134338035,11.94858,-6.790699999999999,7.172199999999999,67.0
1774823571.1271467,1.3589859008789062e-05,2026-03-29T22:32:51.127,2026-03-29T18:32:51.127,-21380.76,-44223.84,-76834.62,-48812.85,-8668.305,-16300.89,8120.88,-65559.915,2.759697361699771,2.6051187619253575,0.16028503505665062,0.12306672063332348,0.6315522262909543,1.0687414762528584,9.575867188685814,0.09751849180725478,0.12475554,-0.995297745,0.134338035,11.94858,-6.790699999999999,7.172199999999999,67.0
1774823571.130942,0.0037953853607177734,2026-03-29T22:32:51.130,2026-03-29T18:32:51.130,-21363.975,-44224.29,-76851.9,-48831.479999999996,-8681.625,-16313.715,8114.8949999999995,-65539.665,2.0612053276545867,2.418273401299746,-0.43970578483686146,-3.9057997216994105,-1.9194156201834047,-1.4815581493396712,7.291060006796646,1.0177506988298435,0.12475554,-0.995297745,0.134338035,11.94858,-6.790699999999999,7.172199999999999,67.0
1774823571.1309571,1.5020370483398438e-05,2026-03-29T22:32:51.130,2026-03-29T18:32:51.130,-21362.715,-44221.095,-76839.25499999999,-48828.24,-8680.77,-16317.18,8098.695,-65543.895,0.3562550294204281,1.1737137777796414,-0.7194876830742556,-6.360909449588022,-3.8219366378279607,-3.4661599166070705,1.8412941675731962,1.3274143568917323,0.12475554,-0.995297745,0.134338035,11.94858,-6.790699999999999,7.172199999999999,67.0
1774823571.130971,1.3828277587890625e-05,2026-03-29T22:32:51.130,2026-03-29T18:32:51.130,-21387.42,-44226.63,-76827.23999999999,-48828.06,-8684.73,-16324.244999999999,8073.134999999999,-65570.715,-1.4366900529274216,-0.37744061600718437,-0.34850110124589156,-5.9210162403396875,-4.022574553021647,-3.778134423150617,-4.521716082268138,0.8739377647705727,0.12304656,-0.999570195,0.13818324,15.443119999999999,-3.7386999999999997,5.93614,67.0
1774823571.1309772,6.198883056640625e-06,2026-03-29T22:32:51.130,2026-03-29T18:32:51.130,-21401.37,-44229.24,-76812.97499999999,-48816.945,-8686.529999999999,-16330.904999999999,8032.7699999999995,-65587.5,-2.4147361223779598,-1.4624519926447486,0.5433272702174488,-2.590050423458799,-2.229288140791403,-2.1230061020331163,-9.079262465995326,-0.0908835705005224,0.12304656,-0.999570195,0.13818324,15.443119999999999,-3.7386999999999997,5.93614,67.0
1774823571.1366072,0.005630016326904297,2026-03-29T22:32:51.136,2026-03-29T18:32:51.136,-21355.2,-44199.045,-76788.27,-48787.56,-8666.46,-16313.625,8035.785,-65551.68,-2.150166486760632,-1.6719816285973452,1.4092393678180233,2.2155642811129175,0.8665421911614374,0.7797407817778331,-9.821677861570658,-1.0532824757054715,0.12304656,-0.999570195,0.13818324,15.443119999999999,-3.7386999999999997,5.93614,67.0
1774823571.1366224,1.52587890625e-05,2026-03-29T22:32:51.136,2026-03-29T18:32:51.136,-21326.13,-44183.115,-76784.895,-48773.43,-8644.59,-16284.555,8097.84,-65523.24,-0.8704930613044172,-1.1011792329267889,1.6097109286507225,6.270618709077245,3.8514490733276197,3.514126221888069,-6.352541244876475,-1.5013419233010785,0.12304656,-0.999570195,0.13818324,15.443119999999999,-3.7386999999999997,5.93614,67.0
1774823571.1408396,0.0042171478271484375,2026-03-29T22:32:51.140,2026-03-29T18:32:51.140,-21341.43,-44203.545,-76815.405,-48799.17,-8663.895,-16301.295,8108.505,-65528.505,0.7126676033628465,-0.207386759401909,0.8287635173178045,7.577568152632632,5.23841281377377,4.661697182639227,-0.1056283155279616,-1.1783397243704585,0.12304656,-0.999570195,0.13818324,15.443119999999999,-3.7386999999999997,5.93614,67.0
1774823571.1408627,2.3126602172851562e-05,2026-03-29T22:32:51.140,2026-03-29T18:32:51.140,-21367.395,-44207.055,-76809.69,-48782.34,-8647.47,-16291.755,8133.03,-65554.155,1.8073849998552267,0.4986106182078753,-0.6718711528310908,5.349813528179647,4.20341044244693,3.5303690993956263,6.2453720648110655,-0.2076704285284103,0.12304656,-0.999570195,0.13818324,15.443119999999999,-3.7386999999999997,5.93614,67.0
1774823571.1488523,0.007989645004272461,2026-03-29T22:32:51.148,2026-03-29T18:32:51.148,-21366.0,-44218.619999999995,-76831.73999999999,-48795.84,-8657.505,-16297.74,8200.395,-65537.01,1.946915323916955,0.7354941251144139,-2.1314857314368862,0.4577287926962817,1.0466316480910993,0.5460616669291236,9.94245495837924,0.9631786203040149,0.12304656,-0.999570195,0.13818324,15.443119999999999,-3.7386999999999997,5.93614,67.0
1774823571.1488664,1.4066696166992188e-05,2026-03-29T22:32:51.148,2026-03-29T18:32:51.148,-21368.655,-44237.025,-76853.97,-48825.9,-8687.025,-16325.64,8192.025,-65529.045,1.185730342165375,0.5552495317394015,-2.6835295632969953,-4.906271947363401,-2.8703740235177175,-2.906117359225529,9.359077521700744,1.7689074429969536,0.12304656,-0.999570195,0.13818324,15.443119999999999,-3.7386999999999997,5.93614,67.0
1774823571.1488795,1.3113021850585938e-05,2026-03-29T22:32:51.148,2026-03-29T18:32:51.148,-21371.219999999998,-44235.945,-76849.29,-48839.534999999996,-8702.685,-16341.3,8122.7699999999995,-65538.9,0.005937246275472098,0.2353934484667506,-1.8564234237255313,-8.217066962090081,-5.714901533754703,-5.132364520714643,4.73149640697539,1.7880413473015926,0.12304656,-0.999570195,0.13818324,15.443119999999999,-3.7386999999999997,5.93614,67.0
1774823571.148884,4.5299530029296875e-06,2026-03-29T22:32:51.148,2026-03-29T18:32:51.148,-21385.665,-44230.814999999995,-76833.94499999999,-48834.27,-8697.285,-16332.974999999999,8103.96,-65561.58,-0.9837601759040688,0.05363972403101535,0.1025592171698553,-7.810532595911224,-6.043198880300369,-4.963261443303306,-1.9303069141054472,0.9442846873045175,0.12304656,-0.999570195,0.13818324,15.443119999999999,-3.7386999999999997,5.93614,67.0
1774823571.1811373,0.032253265380859375,2026-03-29T22:32:51.181,2026-03-29T18:32:51.181,-21369.375,-44207.955,-76802.12999999999,-48791.655,-8659.08,-16299.539999999999,8136.179999999999,-65551.95,-1.372047194479774,0.09848133525408302,2.2828608360216878,-3.714733385297066,-3.5254853432836994,-2.358608421693703,-7.721934469984549,-0.4406264964616917,0.121276545,-1.003842645,0.142638795,18.87662,-2.88414,7.05012,67.0
1774823571.1811528,1.5497207641601562e-05,2026-03-29T22:32:51.181,2026-03-29T18:32:51.181,-21353.489999999998,-44205.39,-76807.75499999999,-48787.56,-8655.164999999999,-16294.859999999999,8150.58,-65530.71,-1.1161220314499423,0.2322217124089562,3.5456946587474465,2.2946037614197556,0.825272924662448,1.5253698618062737,-10.126116681353535,-1.768802499626526,0.121276545,-1.003842645,0.142638795,18.87662,-2.88414,7.05012,67.0
1774823571.1811721,1.9311904907226562e-05,2026-03-29T22:32:51.181,2026-03-29T18:32:51.181,-21369.915,-44228.115,-76839.795,-48819.195,-8685.72,-16324.154999999999,8093.655,-65542.545,-0.4892600754237927,0.21829593275130488,3.1247875453214546,7.469159863734099,5.059356209347842,4.85736891229431,-8.12369873017454,-2.4171415008026074,0.121276545,-1.003842645,0.142638795,18.87662,-2.88414,7.05012,67.0
1774823571.181177,4.76837158203125e-06,2026-03-29T22:32:51.181,2026-03-29T18:32:51.181,-21365.01,-44225.325,-76836.555,-48820.365,-8686.44,-16326.045,8081.235,-65541.06,0.132126599594319,-0.08108036263348395,1.0731190904538768,9.352404087720673,7.168854318627863,6.001792894014454,-2.636015450745932,-2.0165597794890373,0.121276545,-1.003842645,0.142638795,18.87662,-2.88414,7.05012,67.0
1774823571.1811836,6.67572021484375e-06,2026-03-29T22:32:51.181,2026-03-29T18:32:51.181,-21373.425,-44216.775,-76814.64,-48805.515,-8671.545,-16308.72,8120.429999999999,-65552.13,0.49538817596469964,-0.5737628185841158,-1.6985361975427982,6.947858473811523,6.040576157521604,4.321503758659589,3.897902310702553,-0.6411549253417218,0.121276545,-1.003842645,0.142638795,18.87662,-2.88414,7.05012,67.0
1774823571.1811876,4.0531158447265625e-06,2026-03-29T22:32:51.181,2026-03-29T18:32:51.181,-21348.719999999998,-44198.28,-76800.15,-48807.405,-8677.215,-16312.365,8146.485,-65532.465,0.576808514212094,-0.9657136157208975,-3.83756354733174,1.2345594390168417,2.0306956710361854,0.5184332751554862,8.615154575270434,1.182361671394511,0.121276545,-1.003842645,0.142638795,18.87662,-2.88414,7.05012,67.0
1774823571.1811924,4.76837158203125e-06,2026-03-29T22:32:51.181,2026-03-29T18:32:51.181,-21331.665,-44204.354999999996,-76822.605,-48830.49,-8694.855,-16331.76,8106.075,-65517.615,0.5203784486244407,-0.9384542463898001,-4.223910546540532,-5.232423335785484,-3.1306975606822087,-3.66505269978262,9.498534029683759,2.666545056194185,0.121276545,-1.003842645,0.142638795,18.87662,-2.88414,7.05012,67.0
1774823571.1811965,4.0531158447265625e-06,2026-03-29T22:32:51.181,2026-03-29T18:32:51.181,-21332.565,-44213.354999999996,-76830.48,-48829.77,-8692.605,-16333.38,8078.67,-65514.869999999995,0.4757312856770016,-0.36862923190540753,-2.5600044119671255,-9.472488842176482,-7.089873203244349,-6.253919195601307,6.25196719407572,3.0931176629197905,0.121276545,-1.003842645,0.142638795,18.87662,-2.88414,7.05012,67.0
1774823571.1812007,4.291534423828125e-06,2026-03-29T22:32:51.181,2026-03-29T18:32:51.181,-21356.055,-44210.61,-76810.31999999999,-48797.865,-8663.31,-16303.59,8103.014999999999,-65535.659999999996,0.4610366018568822,0.550505538945363,0.4362205697924868,-9.459048707687785,-7.947302554900837,-5.97838447153972,0.39627933149037403,2.14900929475894,0.121276545,-1.003842645,0.142638795,18.87662,-2.88414,7.05012,67.0
1774823571.181204,3.337860107421875e-06,2026-03-29T22:32:51.181,2026-03-29T18:32:51.181,-21377.655,-44223.795,-76826.655,-48805.38,-8663.895,-16293.51,8132.219999999999,-65555.955,0.35137721670806293,1.3730384237844906,3.350821644709353,-5.086856325249134,-5.167509982099386,-2.894085175780823,-5.443803497835967,0.1167279166734772,0.121276545,-1.003842645,0.142638795,18.87662,-2.88414,7.05012,67.0
1774823571.1812088,4.76837158203125e-06,2026-03-29T22:32:51.181,2026-03-29T18:32:51.181,-21363.3,-44220.015,-76827.915,-48813.165,-8672.13,-16299.99,8130.69,-65540.79,0.0011706586006912565,1.6285861458444775,4.758492940777009,1.7340633683825606,0.11422652420024187,1.61732853017199,-8.726369503859562,-2.18686747350919,0.11657685,-0.9913915050000001,0.14636193,10.36154,-4.63904,5.70724,67.0
1774823571.1812122,3.337860107421875e-06,2026-03-29T22:32:51.181,2026-03-29T18:32:51.181,-21344.715,-44218.845,-76830.61499999999,-48820.68,-8685.494999999999,-16315.154999999999,8120.565,-65521.259999999995,-0.5888422471225454,1.0925398143219396,3.9326145940265658,7.919392639482549,5.555279531783715,5.4764604814007445,-8.111605863429272,-3.7274690313333414,0.11657685,-0.9913915050000001,0.14636193,10.36154,-4.63904,5.70724,67.0
1774823571.1812165,4.291534423828125e-06,2026-03-29T22:32:51.181,2026-03-29T18:32:51.181,-21346.335,-44224.74,-76832.415,-48820.229999999996,-8688.105,-16322.894999999999,8111.16,-65518.244999999995,-1.188997596051387,-0.057104639552562036,1.220967550738382,10.612792777525646,8.65007156570847,6.87309709111395,-4.015208142923312,-3.7105756970402664,0.11657685,-0.9913915050000001,0.14636193,10.36154,-4.63904,5.70724,67.0
1774823571.1812196,3.0994415283203125e-06,2026-03-29T22:32:51.181,2026-03-29T18:32:51.181,-21396.87,-44242.92,-76833.58499999999,-48806.505,-8674.74,-16312.095,8091.405,-65575.62,-1.4239931507030736,-1.2957588795995394,-2.107669350477769,8.50839595751555,7.887493641249693,5.118303316664045,1.6355272002214862,-1.9812055191161382,0.11657685,-0.9913915050000001,0.14636193,10.36154,-4.63904,5.70724,67.0
1774823571.181224,4.5299530029296875e-06,2026-03-29T22:32:51.181,2026-03-29T18:32:51.181,-21424.59,-44247.78,-76831.47,-48806.325,-8679.015,-16315.289999999999,8081.82,-65609.325,-0.9955662537063991,-2.0046247556781474,-4.474600498770842,2.4796798537161973,3.485198203979267,0.9793348878268734,6.309421593031286,0.83131885153453,0.11657685,-0.9913915050000001,0.14636193,10.36154,-4.63904,5.70724,67.0
1774823571.1812277,3.5762786865234375e-06,2026-03-29T22:32:51.181,2026-03-29T18:32:51.181,-21388.41,-44234.055,-76827.59999999999,-48811.68,-8681.895,-16318.619999999999,8089.605,-65570.04,0.08390049124016004,-1.7916397076125579,-4.757509390754837,-4.7863450300369665,-2.654622650367644,-3.663348299341638,8.01475746663132,3.524339639634261,0.11657685,-0.9913915050000001,0.14636193,10.36154,-4.63904,5.70724,67.0
1774823571.184531,0.0033032894134521484,2026-03-29T22:32:51.184,2026-03-29T18:32:51.184,-21361.905,-44221.68,-76820.58,-48802.59,-8668.845,-16304.039999999999,8121.285,-65541.825,1.4043093930892836,-0.7094645297021053,-2.831884681160113,-9.99460538984285,-7.771214480713417,-6.6798724583197195,6.157724314186924,4.8300264074879005,0.11657685,-0.9913915050000001,0.14636193,10.36154,-4.63904,5.70724,67.0
1774823571.184553,2.193450927734375e-05,2026-03-29T22:32:51.184,2026-03-29T18:32:51.184,-21358.395,-44219.25,-76820.84999999999,-48807.36,-8675.235,-16307.189999999999,8140.23,-65531.295,2.3049460385677887,0.7510368047143289,0.37795119166817626,-10.742673250017916,-9.49259734158953,-6.674428655600613,1.74175082666385,4.0102151564081465,0.11657685,-0.9913915050000001,0.14636193,10.36154,-4.63904,5.70724,67.0
1774823571.1885273,0.003974437713623047,2026-03-29T22:32:51.188,2026-03-29T18:32:51.188,-21383.64,-44231.67,-76834.17,-48816.99,-8684.055,-16315.47,8119.71,-65556.98999999999,2.2084436350223586,1.89558014043244,3.356998471853086,-6.630403817139521,-6.9381882805000155,-3.631530007702374,-3.1553002444247595,1.259911330895693,0.11657685,-0.9913915050000001,0.14636193,10.36154,-4.63904,5.70724,67.0
1774823571.1885388,1.1444091796875e-05,2026-03-29T22:32:51.188,2026-03-29T18:32:51.188,-21383.91,-44225.549999999996,-76824.045,-48806.549999999996,-8673.615,-16308.314999999999,8110.575,-65563.65,0.9710162513929589,2.1713111707188846,4.733445585400186,0.5346380698357717,-1.1628657024206743,1.0741958005956713,-6.360107267637801,-2.2966721506083094,0.11657685,-0.9913915050000001,0.14636193,10.36154,-4.63904,5.70724,67.0
1774823571.192377,0.0038383007049560547,2026-03-29T22:32:51.192,2026-03-29T18:32:51.192,-21364.155,-44209.935,-76809.33,-48795.345,-8668.71,-16307.91,8085.375,-65550.735,-0.9568312608507065,1.4437570624987173,3.9242083272665402,7.538426704642419,5.279159187550573,5.307773062719837,-6.577150962895209,-5.05741126638603,0.10815402,-0.9746068800000001,0.14514123,-7.52318,-10.331019999999999,5.44782,67.0
1774823571.19239,1.2874603271484375e-05,2026-03-29T22:32:51.192,2026-03-29T18:32:51.192,-21354.614999999998,-44201.025,-76804.425,-48783.33,-8657.955,-16298.505,8048.61,-65552.895,-2.6815470227383935,0.0628142252874735,1.3819084978797047,11.210196233017934,9.470304590973905,7.150640218091497,-3.9166397480551414,-5.665278823486227,0.10815402,-0.9746068800000001,0.14514123,-7.52318,-10.331019999999999,5.44782,67.0
1774823571.1999872,0.007597208023071289,2026-03-29T22:32:51.199,2026-03-29T18:32:51.199,-21368.52,-44222.49,-76830.39,-48791.79,-8663.265,-16301.205,8055.674999999999,-65566.34999999999,-3.287217357832556,-1.3147217531566024,-1.661120151525978,9.863237407865284,9.457547430743414,5.77392534446721,0.2401072670597453,-3.676659943587347,0.10815402,-0.9746068800000001,0.14514123,-7.52318,-10.331019999999999,5.44782,67.0
1774823571.2000127,2.5510787963867188e-05,2026-03-29T22:32:51.200,2026-03-29T18:32:51.200,-21387.915,-44262.405,-76875.3,-48820.365,-8685.315,-16322.49,8133.21,-65554.56,-2.324467829530924,-2.052034334452874,-3.806491395605973,4.069754537667685,5.1650674991402195,1.8091680257734397,3.942238943002864,0.15500254275595404,0.10815402,-0.9746068800000001,0.14514123,-7.52318,-10.331019999999999,5.44782,67.0
1774823571.2034333,0.003420591354370117,2026-03-29T22:32:51.203,2026-03-29T18:32:51.203,-21375.945,-44246.655,-76849.83,-48825.314999999995,-8693.595,-16332.39,8138.205,-65536.965,-0.10546582017019003,-1.8394887525979022,-4.148530246085724,-3.586286422562561,-1.5361356318706283,-2.94817747804038,5.587037792061159,4.150313597681234,0.10815402,-0.9746068800000001,0.14514123,-7.52318,-10.331019999999999,5.44782,67.0
1774823571.203447,1.3828277587890625e-05,2026-03-29T22:32:51.203,2026-03-29T18:32:51.203,-21355.2,-44202.375,-76799.925,-48815.775,-8694.585,-16334.414999999999,8081.82,-65536.965,2.3769089833340575,-0.8281694309954899,-2.660436845624088,-9.669754321773247,-7.648794434580471,-6.360216504121928,4.62099087507264,6.441561219790971,0.10815402,-0.9746068800000001,0.14514123,-7.52318,-10.331019999999999,5.44782,67.0
1774823571.2034607,1.3589859008789062e-05,2026-03-29T22:32:51.203,2026-03-29T18:32:51.203,-21354.344999999998,-44186.534999999996,-76780.75499999999,-48803.85,-8681.49,-16319.295,8097.03,-65545.33499999999,3.899352390252675,0.4694929542845319,-0.14148983971613982,-11.443659179361111,-10.398181722062219,-6.913464902487785,1.7142431575637926,5.852766726639365,0.10815402,-0.9746068800000001,0.14514123,-7.52318,-10.331019999999999,5.44782,67.0
1774823571.2034695,8.821487426757812e-06,2026-03-29T22:32:51.203,2026-03-29T18:32:51.203,-21363.03,-44201.97,-76792.72499999999,-48814.244999999995,-8698.949999999999,-16333.019999999999,8119.799999999999,-65546.37,3.6207618866955813,1.4495172152879612,2.217356989001167,-8.104927401156784,-8.498614439995029,-4.391172689021799,-1.6402962649880157,2.5043437908846813,0.10815402,-0.9746068800000001,0.14514123,-7.52318,-10.331019999999999,5.44782,67.0
1774823571.2168317,0.01336216926574707,2026-03-29T22:32:51.216,2026-03-29T18:32:51.216,-21376.125,-44240.715,-76840.245,-48837.78,-8724.555,-16358.085,8129.79,-65545.47,1.546065553398577,1.710601527326964,3.4119008248000697,-1.1466559970539612,-2.756351366896635,0.04780768979275023,-3.88052460489844,-2.169303456137614,0.10815402,-0.9746068800000001,0.14514123,-7.52318,-10.331019999999999,5.44782,67.0
1774823571.2168467,1.5020370483398438e-05,2026-03-29T22:32:51.216,2026-03-29T18:32:51.216,-21360.78,-44238.555,-76852.53,-48827.115,-8706.33,-16346.97,8128.485,-65541.42,-1.413932630307248,1.2237521980251809,3.0596577702748946,6.316224929258951,4.274873136982173,4.408622519170924,-4.105643836675223,-6.033618494306625,0.10815402,-0.9746068800000001,0.14514123,-7.52318,-10.331019999999999,5.44782,67.0
1774823571.2168617,1.5020370483398438e-05,2026-03-29T22:32:51.216,2026-03-29T18:32:51.216,-21356.864999999998,-44207.055,-76810.275,-48789.945,-8663.22,-16305.39,8131.005,-65551.68,-3.845863018381106,0.3030449138584735,1.4995856270289023,10.950665336648065,9.437728798843944,6.764075257696567,-2.440453501472907,-7.237411688810729,0.1086423,-0.985165935,0.14459191500000002,-13.94764,-16.26716,3.18934,67.0
1774823571.2168686,6.9141387939453125e-06,2026-03-29T22:32:51.216,2026-03-29T18:32:51.216,-21372.434999999998,-44207.865,-76804.425,-48782.61,-8651.07,-16292.744999999999,8118.045,-65552.76,-4.519961466036175,-0.5883281099505752,-0.45351136707803114,10.702058661132394,10.398664478040638,6.109805985474243,0.11517503924415762,-5.109053747892476,0.1086423,-0.985165935,0.14459191500000002,-13.94764,-16.26716,3.18934,67.0
1774823571.2168767,8.106231689453125e-06,2026-03-29T22:32:51.216,2026-03-29T18:32:51.216,-21372.93,-44207.729999999996,-76803.165,-48787.02,-8656.154999999999,-16297.965,8130.42,-65548.8,-3.020852795771792,-1.0803642709937562,-1.9409739700517203,5.70809639687822,6.70909172642906,2.7900529856190555,2.2443513155374473,-0.5272065543391311,0.1086423,-0.985165935,0.14459191500000002,-13.94764,-16.26716,3.18934,67.0
1774823571.216883,6.198883056640625e-06,2026-03-29T22:32:51.216,2026-03-29T18:32:51.216,-21357.09,-44210.07,-76825.53,-48819.6,-8686.664999999999,-16321.23,8131.634999999999,-65539.215,0.004150234476296869,-1.056813872603108,-2.4476795507302263,-1.778130431140832,0.014644184866466556,-1.6850512054868134,2.9804718218765114,4.4369752712685795,0.1086423,-0.985165935,0.14459191500000002,-13.94764,-16.26716,3.18934,67.0
1774823571.220893,0.00400996208190918,2026-03-29T22:32:51.220,2026-03-29T18:32:51.220,-21339.719999999998,-44201.655,-76821.345,-48818.25,-8687.16,-16314.795,8140.41,-65521.35,3.124135752745191,-0.6611253724603895,-1.9658149543875738,-8.413292366860288,-6.685370954226997,-5.333316122017262,2.149518095803744,7.4635386825747165,0.1086423,-0.985165935,0.14459191500000002,-13.94764,-16.26716,3.18934,67.0
1774823571.2209074,1.4543533325195312e-05,2026-03-29T22:32:51.220,2026-03-29T18:32:51.220,-21347.055,-44208.0,-76818.465,-48819.465,-8693.73,-16318.305,8112.915,-65524.95,4.810824580739736,-0.16652299846080323,-0.8924384977099715,-11.267248934124707,-10.392281752784514,-6.583611556298405,0.3831795501207658,7.079984268231173,0.1086423,-0.985165935,0.14459191500000002,-13.94764,-16.26716,3.18934,67.0
1774823571.2245312,0.0036237239837646484,2026-03-29T22:32:51.224,2026-03-29T18:32:51.224,-21358.26,-44220.869999999995,-76829.265,-48824.415,-8699.58,-16328.07,8065.17,-65551.815,4.198444237346788,0.19828634805017195,0.2409759380645894,-9.12412358604979,-9.459795108590491,-4.952544407315506,-1.276150581571864,3.3865846866973786,0.1086423,-0.985165935,0.14459191500000002,-13.94764,-16.26716,3.18934,67.0
1774823571.2245615,3.0279159545898438e-05,2026-03-29T22:32:51.224,2026-03-29T18:32:51.224,-21375.135,-44213.31,-76806.18,-48794.58,-8671.994999999999,-16304.31,8073.45,-65598.345,1.5346956993990903,0.3618358606275281,1.0383810444830475,-2.9999055193092086,-4.329238937249323,-1.2234287262655614,-1.9528205190926677,-1.9503438063493495,0.1086423,-0.985165935,0.14459191500000002,-13.94764,-16.26716,3.18934,67.0
1774823571.2288847,0.004323244094848633,2026-03-29T22:32:51.228,2026-03-29T18:32:51.228,-21378.51,-44212.095,-76799.745,-48784.545,-8663.445,-16297.244999999999,8106.795,-65586.69,-1.914171142733267,0.4030626182228024,1.3693156858700424,4.3438577754525065,2.682201770556795,2.9340577593987107,-1.3899475298353825,-6.4544787890639315,0.1086423,-0.985165935,0.14459191500000002,-13.94764,-16.26716,3.18934,67.0
1774823571.2289019,1.71661376953125e-05,2026-03-29T22:32:51.228,2026-03-29T18:32:51.228,-21375.945,-44222.895,-76820.04,-48802.5,-8677.44,-16308.09,8133.884999999999,-65557.575,-4.470465787472491,0.44539108811996125,1.3220679924729895,9.655952139828837,8.437630558932156,5.7171116696513975,-0.04604656387668396,-7.999790728831719,0.1086423,-0.985165935,0.14459191500000002,-13.94764,-16.26716,3.18934,67.0
1774823571.2340443,0.0051424503326416016,2026-03-29T22:32:51.234,2026-03-29T18:32:51.234,-21382.965,-44241.795,-76845.69,-48826.439999999995,-8698.545,-16331.039999999999,8126.28,-65541.19499999999,-4.870513402875325,0.5331352930748593,1.0511203702734517,10.645249369839856,10.395264011243924,5.9735797724237685,1.1999808719417175,-5.826229733311202,0.119079285,-1.015439295,0.15002403,-3.9676,-16.26716,-1.57178,67.0
1774823571.2340643,2.002716064453125e-05,2026-03-29T22:32:51.234,2026-03-29T18:32:51.234,-21391.515,-44245.619999999995,-76848.705,-48827.79,-8705.565,-16348.994999999999,8090.37,-65553.03,-2.898216357568457,0.5791061185197317,0.642098094182156,6.9730627697985925,7.73846439730383,3.6747383107387024,1.564301159448789,-0.920203142128567,0.119079285,-1.015439295,0.15002403,-3.9676,-16.26716,-1.57178,67.0
1774823571.2366953,0.002630949020385742,2026-03-29T22:32:51.236,2026-03-29T18:32:51.236,-21361.274999999998,-44211.33,-76815.58499999999,-48800.025,-8688.824999999999,-16342.199999999999,8052.525,-65548.845,0.49417978454855027,0.42320000848789874,0.08709983927732907,0.35608758614291763,1.7149183751542196,-0.11450896679381638,0.8091818999894212,4.433107101063734,0.119079285,-1.015439295,0.15002403,-3.9676,-16.26716,-1.57178,67.0
1774823571.2367277,3.24249267578125e-05,2026-03-29T22:32:51.236,2026-03-29T18:32:51.236,-21327.48,-44183.43,-76788.98999999999,-48782.7,-8671.5,-16318.08,8051.355,-65528.145,3.6459631665318617,-0.03320670488320873,-0.6245425558686751,-6.243611931271145,-4.955249980639225,-3.7333887116627675,-0.617212031273511,7.722142643982324,0.119079285,-1.015439295,0.15002403,-3.9676,-16.26716,-1.57178,67.0
1774823571.2405975,0.003869771957397461,2026-03-29T22:32:51.240,2026-03-29T18:32:51.240,-21331.53,-44207.82,-76812.75,-48808.845,-8682.84,-16306.154999999999,8117.235,-65508.93,5.005535672136712,-0.7068008897370819,-1.382016499646147,-9.956432451432628,-9.319108866022987,-5.6563164267083765,-1.8301848075764136,7.398962114562739,0.119079285,-1.015439295,0.15002403,-3.9676,-16.26716,-1.57178,67.0
1774823571.2406068,9.298324584960938e-06,2026-03-29T22:32:51.240,2026-03-29T18:32:51.240,-21352.454999999998,-44240.715,-76850.595,-48851.055,-8725.32,-16341.074999999999,8152.155,-65506.814999999995,3.9008377715384133,-1.3152924312020815,-1.9072539635833559,-9.26131320026515,-9.508132988703672,-5.134085780468282,-2.0139831669828587,3.617755811991131,0.119079285,-1.015439295,0.15002403,-3.9676,-16.26716,-1.57178,67.0
1774823571.246928,0.0063211917877197266,2026-03-29T22:32:51.246,2026-03-29T18:32:51.246,-21412.305,-44252.505,-76845.015,-48818.744999999995,-8698.005,-16327.664999999999,8105.445,-65580.61499999999,0.8775779172992734,-1.4958766400469627,-1.8523165088155518,-4.606203594364168,-5.540679493963678,-2.4769574194492487,-0.9082734325635865,-1.834606302277673,0.119079285,-1.015439295,0.15002403,-3.9676,-16.26716,-1.57178,67.0
1774823571.2469428,1.4781951904296875e-05,2026-03-29T22:32:51.246,2026-03-29T18:32:51.246,-21419.19,-44240.805,-76835.7,-48790.53,-8671.455,-16311.195,8093.07,-65601.9,-2.566555731116596,-1.0084909863406533,-1.0077296925711319,1.8590391107645112,0.7361139282874103,1.122194651682781,0.9965221587436497,-6.386101213642116,0.119079285,-1.015439295,0.15002403,-3.9676,-16.26716,-1.57178,67.0
1774823571.2488873,0.0019445419311523438,2026-03-29T22:32:51.248,2026-03-29T18:32:51.248,-21386.52,-44221.5,-76826.06999999999,-48776.715,-8655.21,-16291.98,8113.95,-65570.76,-4.722771676761192,0.0869439993549052,0.4973313917196136,7.285503088662031,6.514698351888403,4.126546521449408,2.6778554794906846,-7.901268298670645,0.119079285,-1.015439295,0.15002403,-3.9676,-16.26716,-1.57178,67.0
1774823571.2489035,1.621246337890625e-05,2026-03-29T22:32:51.248,2026-03-29T18:32:51.248,-21370.454999999998,-44206.11,-76805.28,-48775.365,-8653.23,-16284.195,8154.9,-65552.625,-4.520296851016097,1.3903163434861423,2.142364666344263,9.391752390699276,9.293709144469712,5.311144173358909,3.116086768214695,-5.692817578844818,0.119079285,-1.015439295,0.15002403,-3.9676,-16.26716,-1.57178,67.0
1774823571.2690325,0.020128965377807617,2026-03-29T22:32:51.269,2026-03-29T18:32:51.269,-21378.105,-44223.525,-76823.055,-48810.555,-8686.395,-16310.07,8167.634999999999,-65552.04,-2.061177774560962,2.3047267516299166,3.183701082137497,7.425750307444937,7.9662640550490025,4.256464052457575,1.8713894257248518,-0.8397806003613146,0.13207974,-1.0372287900000001,0.163268625,9.44594,-17.99154,-5.646199999999999,67.0
1774823571.2690866,5.412101745605469e-05,2026-03-29T22:32:51.269,2026-03-29T18:32:51.269,-21376.665,-44231.265,-76842.315,-48832.515,-8696.475,-16317.18,8132.849999999999,-65553.255,1.4269119802351449,2.3125320202697037,2.9952681100352407,2.41513683469517,3.25381577320935,1.484254632337337,-0.6102782507131164,4.3374868104764195,0.13207974,-1.0372287900000001,0.163268625,9.44594,-17.99154,-5.646199999999999,67.0
1774823571.2691183,3.170967102050781e-05,2026-03-29T22:32:51.269,2026-03-29T18:32:51.269,-21373.605,-44230.814999999995,-76840.65,-48826.439999999995,-8684.279999999999,-16304.085,8123.985,-65550.19499999999,4.198747762204326,1.254028328497304,1.422743579907771,-3.366882572229024,-2.680596130904886,-1.800400363499523,-3.148409079242412,7.390210436722864,0.13207974,-1.0372287900000001,0.163268625,9.44594,-17.99154,-5.646199999999999,67.0
1774823571.2691345,1.621246337890625e-05,2026-03-29T22:32:51.269,2026-03-29T18:32:51.269,-21369.105,-44224.83,-76826.7,-48820.14,-8692.154999999999,-16316.144999999999,8105.535,-65546.595,4.860240399974838,-0.5374175604290822,-1.0428326407972754,-7.443875259557365,-7.234407589376264,-4.233271001404768,-4.390279119276845,6.9061972159029095,0.13207974,-1.0372287900000001,0.163268625,9.44594,-17.99154,-5.646199999999999,67.0
1774823571.269153,1.8596649169921875e-05,2026-03-29T22:32:51.269,2026-03-29T18:32:51.269,-21357.135,-44215.2,-76816.75499999999,-48819.96,-8702.369999999999,-16327.755,8125.0199999999995,-65534.174999999996,3.0666938425993604,-2.330392649183287,-3.3963007545487676,-8.203821758442958,-8.514377258475728,-4.853409693212866,-3.5166589593530317,3.1696456060470166,0.13207974,-1.0372287900000001,0.163268625,9.44594,-17.99154,-5.646199999999999,67.0
1774823571.2691684,1.52587890625e-05,2026-03-29T22:32:51.269,2026-03-29T18:32:51.269,-21343.86,-44212.77,-76823.19,-48828.96,-8715.24,-16336.529999999999,8123.3099999999995,-65521.799999999996,-0.2976287232525791,-3.298075263316225,-4.532384243676292,-5.528379826366691,-6.121545974460526,-3.4744367137306296,-0.7287736911419291,-1.995039988749224,0.13207974,-1.0372287900000001,0.163268625,9.44594,-17.99154,-5.646199999999999,67.0
1774823571.2691858,1.7404556274414062e-05,2026-03-29T22:32:51.269,2026-03-29T18:32:51.269,-21321.945,-44210.34,-76828.36499999999,-48826.979999999996,-8715.555,-16337.295,8110.304999999999,-65495.835,-3.5511732765065975,-2.9001324050714,-3.768848799593822,-0.7424026271923858,-1.2481898844524726,-0.726034808830307,2.756661563271802,-6.11242039701824,0.13207974,-1.0372287900000001,0.163268625,9.44594,-17.99154,-5.646199999999999,67.0
1774823571.2692003,1.4543533325195312e-05,2026-03-29T22:32:51.269,2026-03-29T18:32:51.269,-21334.005,-44215.424999999996,-76823.415,-48814.92,-8701.38,-16327.125,8118.405,-65505.509999999995,-5.047960172232579,-1.1662982427879225,-1.2285550885464862,4.045014660757401,3.91774903918309,2.2333171745289313,5.240828587589121,-7.24477590480062,0.13207974,-1.0372287900000001,0.163268625,9.44594,-17.99154,-5.646199999999999,67.0
1774823571.2738907,0.004690408706665039,2026-03-29T22:32:51.273,2026-03-29T18:32:51.273,-21378.69,-44212.365,-76793.265,-48778.02,-8662.68,-16292.25,8136.09,-65556.36,-4.0014316496648386,1.2616260366809477,2.125248941097187,6.879049638943587,7.182438911836086,4.201443505128172,5.37024998855095,-4.908232015873181,0.13207974,-1.0372287900000001,0.163268625,9.44594,-17.99154,-5.646199999999999,67.0
