unix_time_s,dt_s,UTC,LOCAL,EMG1_Raw,EMG2_Raw,EMG3_Raw,EMG4_Raw,EMG5_Raw,EMG6_Raw,EMG7_Raw,EMG8_Raw,EMG1_Filtered,EMG2_Filtered,EMG3_Filtered,EMG4_Filtered,EMG5_Filtered,EMG6_Filtered,EMG7_Filtered,EMG8_Filtered,Accel1_Raw,Accel2_Raw,Accel3_Raw,Gyro1_Raw,Gyro2_Raw,Gyro3_Raw,Battery
1774823641.153051,,2026-03-29T22:34:01.153,2026-03-29T18:34:01.153,-21217.23,-44756.909999999996,-76549.455,-48168.045,-8487.539999999999,-15974.685,8328.914999999999,-58551.165,-0.4193427754477724,-0.19322016251677032,0.020999726712736956,0.23430239255437849,0.24461688308438573,0.5271066796837206,0.27349042734924106,-0.15268602775604184,0.9545874,-0.06982404,0.308409855,-10.9872,7.38584,6.08874,67.0
1774823641.1530638,1.2874603271484375e-05,2026-03-29T22:34:01.153,2026-03-29T18:34:01.153,-21216.645,-44764.155,-76561.37999999999,-48178.395,-8495.145,-15980.894999999999,8325.0,-58545.585,2.019359776990684,-0.052038752628356354,-0.0064502527370624545,-0.3196978723839208,-0.22877816133298567,0.9475518266462196,1.0327663477076554,3.4532543589839713,0.9545874,-0.06982404,0.308409855,-10.9872,7.38584,6.08874,67.0
1774823641.153077,1.3113021850585938e-05,2026-03-29T22:34:01.153,2026-03-29T18:34:01.153,-21207.69,-44766.225,-76570.69499999999,-48189.96,-8503.47,-15988.23,8323.154999999999,-58532.85,3.5570142273743,0.14399589806509178,-0.03703598669770269,-0.7154992579002579,-0.6144136094046773,0.8877734006492591,1.2831530237025162,5.445396702831005,0.9545874,-0.06982404,0.308409855,-10.9872,7.38584,6.08874,67.0
1774823641.1530812,4.291534423828125e-06,2026-03-29T22:34:01.153,2026-03-29T18:34:01.153,-21200.265,-44763.84,-76569.61499999999,-48195.494999999995,-8510.265,-15994.439999999999,8321.85,-58520.025,3.469262211781501,0.28025302682757264,-0.094742894777387,-0.8104513198476079,-0.769834212947775,0.34245779261325526,0.8947351486315354,4.894399070245545,0.9545874,-0.06982404,0.308409855,-10.9872,7.38584,6.08874,67.0
1774823641.1576269,0.004545688629150391,2026-03-29T22:34:01.157,2026-03-29T18:34:01.157,-21207.195,-44758.485,-76553.955,-48183.84,-8502.66,-15987.42,8326.035,-58524.119999999995,1.7807906926918535,0.266672638981912,-0.17100637269350438,-0.5903625697566229,-0.6356377280263634,-0.43222993003086907,0.05564002514012089,2.0704135979945497,0.9545874,-0.06982404,0.308409855,-10.9872,7.38584,6.08874,67.0
1774823641.1576571,3.0279159545898438e-05,2026-03-29T22:34:01.157,2026-03-29T18:34:01.157,-21233.88,-44760.509999999995,-76543.605,-48162.15,-8478.855,-15969.105,8331.795,-58562.909999999996,-0.7389209650524946,0.09148603724193492,-0.22102336362645655,-0.16352627557611232,-0.25785834996839063,-1.0398238017242427,-0.8187312561955632,-1.6898770486777088,0.9545874,-0.06982404,0.308409855,-10.9872,7.38584,6.08874,67.0
1774823641.161254,0.003596782684326172,2026-03-29T22:34:01.161,2026-03-29T18:34:01.161,-21222.945,-44758.215,-76548.465,-48165.345,-8479.44,-15972.615,8328.69,-58552.965,-2.9291514040640183,-0.1654660778654966,-0.18951871707824972,0.2927207719254516,0.22577319825841527,-1.146570086688423,-1.2912787856118446,-4.621575482333997,0.9545874,-0.06982404,0.308409855,-10.9872,7.38584,6.08874,67.0
1774823641.161274,2.002716064453125e-05,2026-03-29T22:34:01.161,2026-03-29T18:34:01.161,-21220.065,-44760.869999999995,-76557.33,-48173.715,-8488.305,-15982.74,8321.985,-58547.564999999995,-3.7769510778376194,-0.36957256554275225,-0.051561742016381855,0.606330952382816,0.6327940839037848,-0.6623400206462837,-1.1218061607710412,-5.367661299254842,0.9545874,-0.06982404,0.308409855,-10.9872,7.38584,6.08874,67.0
1774823641.1647933,0.003519296646118164,2026-03-29T22:34:01.164,2026-03-29T18:34:01.164,-21225.555,-44762.354999999996,-76557.19499999999,-48170.475,-8484.795,-15978.465,8324.595,-58551.03,-2.889345372665754,-0.4012532155907938,0.15779239080359633,0.6743331265172092,0.8021970103499849,0.19774952961233358,-0.3891990254586831,-3.6131707146942937,0.955380855,-0.075500295,0.311705745,-6.928039999999999,5.60042,6.134519999999999,67.0
1774823641.164809,1.5735626220703125e-05,2026-03-29T22:34:01.164,2026-03-29T18:34:01.164,-21219.84,-44761.86,-76560.25499999999,-48175.92,-8489.07,-15979.814999999999,8331.345,-58541.939999999995,-0.676995401703813,-0.22267358132753018,0.34739161401311824,0.4932150585679956,0.6576064237882208,1.0095723344847098,0.5450540526856772,-0.21843916239493516,0.955380855,-0.075500295,0.311705745,-6.928039999999999,5.60042,6.134519999999999,67.0
1774823641.1695287,0.004719734191894531,2026-03-29T22:34:01.169,2026-03-29T18:34:01.169,-21219.48,-44758.35,-76555.17,-48172.005,-8484.255,-15972.345,8341.065,-58538.61,1.837062149180228,0.09492532656990123,0.41128685422247413,0.14927178926519685,0.24325221485650086,1.3509812072089131,1.2152552455609893,3.2047827403699007,0.955380855,-0.075500295,0.311705745,-6.928039999999999,5.60042,6.134519999999999,67.0
1774823641.1695597,3.0994415283203125e-05,2026-03-29T22:34:01.169,2026-03-29T18:34:01.169,-21221.64,-44755.695,-76547.79,-48163.95,-8476.154999999999,-15963.48,8337.285,-58542.255,3.4938250621951497,0.4003268392393618,0.2882415307066976,-0.22180840003713928,-0.28464458313628216,1.0219696099126692,1.2837004231785827,5.06425110048323,0.955380855,-0.075500295,0.311705745,-6.928039999999999,5.60042,6.134519999999999,67.0
1774823641.17306,0.003500223159790039,2026-03-29T22:34:01.173,2026-03-29T18:34:01.173,-21228.93,-44758.619999999995,-76544.19,-48156.345,-8468.324999999999,-15957.0,8333.055,-58550.354999999996,3.536487868729871,0.5356786974273159,0.006169274170454571,-0.4874486898140341,-0.7131970247226667,0.15896478663652835,0.7107913119188972,4.533673156263878,0.955380855,-0.075500295,0.311705745,-6.928039999999999,5.60042,6.134519999999999,67.0
1774823641.1730816,2.1696090698242188e-05,2026-03-29T22:34:01.173,2026-03-29T18:34:01.173,-21234.78,-44765.729999999996,-76557.51,-48169.619999999995,-8484.164999999999,-15973.47,8327.835,-58553.909999999996,1.9588139540013203,0.4178684978188142,-0.31742534782291215,-0.5632601835629014,-0.8576609802586803,-0.8210743433448295,-0.22269527615526225,1.922139487273391,0.955380855,-0.075500295,0.311705745,-6.928039999999999,5.60042,6.134519999999999,67.0
1774823641.1783788,0.005297183990478516,2026-03-29T22:34:01.178,2026-03-29T18:34:01.178,-21230.594999999998,-44767.17,-76567.995,-48178.305,-8489.925,-15976.664999999999,8329.77,-58547.52,-0.4976839425099221,0.0858674787606318,-0.5257902047816173,-0.4370159957770905,-0.6428781623313259,-1.424512551905602,-1.0534942101456444,-1.499337852395337,0.955380855,-0.075500295,0.311705745,-6.928039999999999,5.60042,6.134519999999999,67.0
1774823641.178407,2.8133392333984375e-05,2026-03-29T22:34:01.178,2026-03-29T18:34:01.178,-21222.495,-44762.805,-76567.185,-48177.45,-8487.72,-15977.16,8327.43,-58539.329999999994,-2.6938548011019194,-0.31201601353427505,-0.5021307809432437,-0.16662499943350054,-0.1448960081732994,-1.3323621232718128,-1.3660302474067059,-4.1187603338350804,0.955380855,-0.075500295,0.311705745,-6.928039999999999,5.60042,6.134519999999999,67.0
1774823641.1812882,0.002881288528442383,2026-03-29T22:34:01.181,2026-03-29T18:34:01.181,-21218.895,-44760.645,-76563.94499999999,-48179.384999999995,-8489.115,-15979.185,8328.195,-58534.155,-3.6242023241850276,-0.5868852342323921,-0.23658649018626104,0.14448515124238726,0.4308816512264308,-0.5701256391866035,-1.000325197925099,-4.746787956286673,0.955380855,-0.075500295,0.311705745,-6.928039999999999,5.60042,6.134519999999999,67.0
1774823641.1813216,3.337860107421875e-05,2026-03-29T22:34:01.181,2026-03-29T18:34:01.181,-21218.489999999998,-44761.229999999996,-76560.97499999999,-48181.185,-8492.94,-15980.22,8329.68,-58530.375,-2.8802607568371434,-0.6010086433271882,0.1576853935422295,0.3851931831874359,0.8323786685981908,0.4947400502737049,-0.13351435048927435,-3.1593831973970197,0.955380855,-0.075500295,0.311705745,-6.928039999999999,5.60042,6.134519999999999,67.0
1774823641.1855319,0.004210233688354492,2026-03-29T22:34:01.185,2026-03-29T18:34:01.185,-21231.765,-44765.055,-76558.14,-48173.895,-8484.255,-15971.76,8328.465,-58545.18,-0.8313198825731546,-0.3369822532951509,0.49329224383731063,0.4752570286297077,0.8725342859981162,1.3317627450518559,0.8064736742040001,-0.17095416338180303,0.950253915,-0.0695799,0.31164471,-10.34628,2.1669199999999997,5.76828,67.0
1774823641.1855507,1.8835067749023438e-05,2026-03-29T22:34:01.185,2026-03-29T18:34:01.185,-21227.175,-44761.32,-76548.51,-48160.259999999995,-8474.13,-15966.135,8329.86,-58538.97,1.557909562575917,0.09075540784497306,0.601340166358509,0.3921509369728923,0.520221168692287,1.5151073780372568,1.3527833745896838,2.7812095047504957,0.950253915,-0.0695799,0.31164471,-10.34628,2.1669199999999997,5.76828,67.0
1774823641.1892357,0.00368499755859375,2026-03-29T22:34:01.189,2026-03-29T18:34:01.189,-21217.14,-44755.38,-76548.465,-48169.845,-8483.535,-15974.234999999999,8331.75,-58529.115,3.1828981036191855,0.48855848650659545,0.42103350134706,0.17698893541778604,-0.07517630522901818,0.9436453200777831,1.2318368634724497,4.329552617177689,0.950253915,-0.0695799,0.31164471,-10.34628,2.1669199999999997,5.76828,67.0
1774823641.189264,2.8371810913085938e-05,2026-03-29T22:34:01.189,2026-03-29T18:34:01.189,-21214.62,-44761.77,-76564.305,-48180.104999999996,-8493.795,-15985.17,8327.385,-58526.369999999995,3.3123767223206646,0.6748213975650438,0.03710692303630926,-0.08304691317068369,-0.6436015649703611,-0.10160968569789232,0.5001561240020984,3.8112847455318124,0.950253915,-0.0695799,0.31164471,-10.34628,2.1669199999999997,5.76828,67.0
1774823641.2007844,0.0115203857421875,2026-03-29T22:34:01.200,2026-03-29T18:34:01.200,-21218.489999999998,-44765.729999999996,-76569.93,-48184.38,-8497.664999999999,-15987.824999999999,8325.18,-58527.945,1.9195920715818462,0.5651653235333736,-0.35866977807106065,-0.289766167996184,-0.9167598629306322,-1.0958565029253229,-0.4826229837776102,1.5504038122599484,0.950253915,-0.0695799,0.31164471,-10.34628,2.1669199999999997,5.76828,67.0
1774823641.2008035,1.9073486328125e-05,2026-03-29T22:34:01.200,2026-03-29T18:34:01.200,-21230.19,-44759.43,-76553.145,-48172.994999999995,-8483.039999999999,-15971.175,8333.235,-58541.265,-0.31910086725142556,0.21035829247506224,-0.5653523886681071,-0.37292564852830495,-0.7579630356498475,-1.5366342156673607,-1.231423870614093,-1.3318838200322545,0.950253915,-0.0695799,0.31164471,-10.34628,2.1669199999999997,5.76828,67.0
1774823641.200838,3.457069396972656e-05,2026-03-29T22:34:01.200,2026-03-29T18:34:01.200,-21231.899999999998,-44761.005,-76551.66,-48169.215,-8482.77,-15973.38,8329.904999999999,-58541.49,-2.3517478292083642,-0.23019963819092135,-0.47967476954004945,-0.3166992867022081,-0.23541021982576132,-1.2018429492892668,-1.3758972647602778,-3.471245431270684,0.950253915,-0.0695799,0.31164471,-10.34628,2.1669199999999997,5.76828,67.0
1774823641.200843,5.0067901611328125e-06,2026-03-29T22:34:01.200,2026-03-29T18:34:01.200,-21227.76,-44763.03,-76559.94,-48176.189999999995,-8489.025,-15981.48,8322.66,-58534.829999999994,-3.2461111082281953,-0.5645971221877919,-0.15363735163839062,-0.1617730011590432,0.401978006976485,-0.2656069996963405,-0.8437907240307511,-3.905341479107387,0.950253915,-0.0695799,0.31164471,-10.34628,2.1669199999999997,5.76828,67.0
1774823641.2008493,6.198883056640625e-06,2026-03-29T22:34:01.200,2026-03-29T18:34:01.200,-21226.454999999998,-44758.034999999996,-76551.93,-48172.5,-8483.94,-15975.404999999999,8325.27,-58532.67,-2.619189802681757,-0.6557985625336866,0.23123124315673438,0.01793606713294306,0.8407529130522677,0.7900198278102345,0.10342466288587407,-2.505180206745399,0.950253915,-0.0695799,0.31164471,-10.34628,2.1669199999999997,5.76828,67.0
1774823641.2008538,4.5299530029296875e-06,2026-03-29T22:34:01.200,2026-03-29T18:34:01.200,-21232.26,-44760.465,-76550.265,-48166.74,-8477.505,-15968.744999999999,8330.4,-58538.655,-0.8023402081844918,-0.4785406485471021,0.46226212186790316,0.15238710897913085,0.8581289743781133,1.4236987882560892,1.000062343522337,-0.0004937160612918406,0.950253915,-0.0695799,0.31164471,-10.34628,2.1669199999999997,5.76828,67.0
1774823641.2078907,0.007036924362182617,2026-03-29T22:34:01.207,2026-03-29T18:34:01.207,-21229.829999999998,-44763.884999999995,-76555.845,-48168.045,-8479.35,-15970.14,8334.27,-58533.93,1.3295497196193988,-0.12146217917901914,0.41462027703100374,0.20723785837610503,0.4390784100651516,1.3154761162870816,1.406272390417916,2.395592138933753,0.945981465,-0.06378157500000001,0.31201092,-14.63434,1.69386,5.234179999999999,67.0
1774823641.2079208,3.0040740966796875e-05,2026-03-29T22:34:01.207,2026-03-29T18:34:01.207,-21221.774999999998,-44766.854999999996,-76565.43,-48169.979999999996,-8480.88,-15976.394999999999,8330.085,-58525.604999999996,2.778234977604239,0.26150351270715155,0.12437497638986066,0.193600728754781,-0.2075084292622318,0.5328496156353821,1.12447324060196,3.570988713353766,0.945981465,-0.06378157500000001,0.31201092,-14.63434,1.69386,5.234179999999999,67.0
1774823641.207947,2.6226043701171875e-05,2026-03-29T22:34:01.207,2026-03-29T18:34:01.207,-21210.614999999998,-44759.295,-76558.455,-48164.085,-8477.055,-15975.269999999999,8323.425,-58515.345,2.8902882044204947,0.522507087926378,-0.22836677001940256,0.15101138262112027,-0.7480953023305058,-0.5057051190102686,0.29532561262177737,3.0277039962136945,0.945981465,-0.06378157500000001,0.31201092,-14.63434,1.69386,5.234179999999999,67.0
1774823641.2079582,1.1205673217773438e-05,2026-03-29T22:34:01.207,2026-03-29T18:34:01.207,-21211.875,-44754.165,-76548.69,-48165.345,-8482.095,-15978.24,8319.869999999999,-58513.229999999996,1.6534737086677214,0.5783679535809934,-0.42128948464077154,0.11464916653009204,-0.894083518088331,-1.2517833049787586,-0.673348006324166,1.0884290163102028,0.945981465,-0.06378157500000001,0.31201092,-14.63434,1.69386,5.234179999999999,67.0
1774823641.2201543,0.012196063995361328,2026-03-29T22:34:01.220,2026-03-29T18:34:01.220,-21228.524999999998,-44752.365,-76539.915,-48164.49,-8481.465,-15976.439999999999,8329.904999999999,-58533.93,-0.31369534753321715,0.43199159810197396,-0.3222872159233046,0.08818547836158956,-0.5564753745182677,-1.3169567455858708,-1.3084243511086124,-1.2862013589104424,0.945981465,-0.06378157500000001,0.31201092,-14.63434,1.69386,5.234179999999999,67.0
1774823641.2201793,2.5033950805664062e-05,2026-03-29T22:34:01.220,2026-03-29T18:34:01.220,-21221.55,-44754.03,-76547.16,-48168.63,-8486.145,-15986.025,8333.19,-58528.439999999995,-2.067751504457171,0.1543467198639036,0.023434069087940892,0.04149801082535251,0.09731115897886179,-0.678228766113737,-1.3036314928014365,-2.9688775624336703,0.945981465,-0.06378157500000001,0.31201092,-14.63434,1.69386,5.234179999999999,67.0
1774823641.2202024,2.3126602172851562e-05,2026-03-29T22:34:01.220,2026-03-29T18:34:01.220,-21220.829999999998,-44760.6,-76556.925,-48176.64,-8488.8,-15985.394999999999,8330.31,-58523.13,-2.7915543098925606,-0.1554713038268754,0.40668926897022845,-0.06238011555128787,0.7206996084442755,0.3107940484810886,-0.6675748301518453,-3.195753633979861,0.945981465,-0.06378157500000001,0.31201092,-14.63434,1.69386,5.234179999999999,67.0
1774823641.220214,1.1444091796875e-05,2026-03-29T22:34:01.220,2026-03-29T18:34:01.220,-21219.48,-44764.155,-76560.84,-48177.27,-8484.39,-15975.539999999999,8328.735,-58518.405,-2.1757290921748647,-0.40777829202394816,0.5687496925017175,-0.2265617240066842,0.9661245762405004,1.1102526722965755,0.284075254937312,-1.9083539898229454,0.945981465,-0.06378157500000001,0.31201092,-14.63434,1.69386,5.234179999999999,67.0
1774823641.2202277,1.3828277587890625e-05,2026-03-29T22:34:01.220,2026-03-29T18:34:01.220,-21218.399999999998,-44758.305,-76546.70999999999,-48166.244999999995,-8476.605,-15966.539999999999,8333.595,-58515.704999999994,-0.5519676203855826,-0.5414837247002187,0.35805686478599824,-0.394064468569972,0.6745138002692724,1.2853420171389915,1.0864112143658,0.24313979612640965,0.945981465,-0.06378157500000001,0.31201092,-14.63434,1.69386,5.234179999999999,67.0
1774823641.2202387,1.0967254638671875e-05,2026-03-29T22:34:01.220,2026-03-29T18:34:01.220,-21213.54,-44755.92,-76545.72,-48169.305,-8482.185,-15976.305,8326.619999999999,-58509.405,1.2796781663068841,-0.5252066665958054,-0.16023255057990562,-0.4602851214309468,-0.025669817424558577,0.7426314207219237,1.3537089843008343,2.2242545764219455,0.945981465,-0.06378157500000001,0.31201092,-14.63434,1.69386,5.234179999999999,67.0
1774823641.2252636,0.005024909973144531,2026-03-29T22:34:01.225,2026-03-29T18:34:01.225,-21214.395,-44751.284999999996,-76538.7,-48159.314999999995,-8473.185,-15972.57,8324.46,-58514.085,2.441661595808731,-0.3530427419862716,-0.7127639130328843,-0.3273217398932557,-0.7696656606354471,-0.21690570188746272,0.9656126811150996,3.107691514277372,0.94701906,-0.067443675,0.31701579,-19.761699999999998,0.12208,5.43256,67.0
1774823641.225278,1.430511474609375e-05,2026-03-29T22:34:01.225,2026-03-29T18:34:01.225,-21222.945,-44754.93,-76546.34999999999,-48163.994999999995,-8473.59,-15973.56,8328.33,-58528.665,2.3983262354098644,-0.04779505444387757,-0.9537632642381711,0.02465027932385618,-1.1405218894662117,-1.0592426006304727,0.12085942339882265,2.5008521058506625,0.94701906,-0.067443675,0.31701579,-19.761699999999998,0.12208,5.43256,67.0
1774823641.2289336,0.003655672073364258,2026-03-29T22:34:01.228,2026-03-29T18:34:01.228,-21215.969999999998,-44758.215,-76560.345,-48180.33,-8487.404999999999,-15985.439999999999,8328.6,-58520.384999999995,1.2038438221616041,0.3274242951545443,-0.663724927810383,0.49184662402850654,-0.8953047303155914,-1.3084478656008554,-0.76518159519759,0.7154378791687278,0.94701906,-0.067443675,0.31701579,-19.761699999999998,0.12208,5.43256,67.0
1774823641.2289555,2.193450927734375e-05,2026-03-29T22:34:01.228,2026-03-29T18:34:01.228,-21216.149999999998,-44764.695,-76567.545,-48181.409999999996,-8488.08,-15988.14,8321.22,-58518.45,-0.5364614786622277,0.6630081656961264,0.09770774011417666,0.8647770371887921,-0.11317940321346179,-0.8110158065653958,-1.2660450740675486,-1.3913833496635775,0.94701906,-0.067443675,0.31701579,-19.761699999999998,0.12208,5.43256,67.0
1774823641.232822,0.003866434097290039,2026-03-29T22:34:01.232,2026-03-29T18:34:01.232,-21214.844999999998,-44763.84,-76562.19,-48171.104999999996,-8475.615,-15975.765,8320.635,-58516.604999999996,-1.9681207304589727,0.8211300031505927,0.9801143942802935,0.9168577304402002,0.8212966330505233,0.17178093722630355,-1.1504782663748125,-2.8236075255939155,0.94701906,-0.067443675,0.31701579,-19.761699999999998,0.12208,5.43256,67.0
1774823641.2328427,2.0742416381835938e-05,2026-03-29T22:34:01.232,2026-03-29T18:34:01.232,-21211.965,-44758.935,-76552.47,-48170.79,-8475.57,-15976.484999999999,8321.355,-58512.24,-2.404003648844945,0.6865094029001796,1.4978995039948684,0.5292098985040401,1.4033125590712612,1.098108621438806,-0.48922276903292283,-2.9099521941938153,0.94701906,-0.067443675,0.31701579,-19.761699999999998,0.12208,5.43256,67.0
1774823641.2370315,0.0041887760162353516,2026-03-29T22:34:01.237,2026-03-29T18:34:01.237,-21212.82,-44761.814999999995,-76557.375,-48184.155,-8488.619999999999,-15989.039999999999,8321.175,-58509.854999999996,-1.6534865039396667,0.23455504736456387,1.2867924938777062,-0.21305752477601617,1.2738941098211036,1.438543081171446,0.38702794136602986,-1.6119387103043845,0.94701906,-0.067443675,0.31701579,-19.761699999999998,0.12208,5.43256,67.0
1774823641.2370417,1.0251998901367188e-05,2026-03-29T22:34:01.237,2026-03-29T18:34:01.237,-21215.835,-44762.354999999996,-76558.995,-48182.985,-8488.215,-15987.734999999999,8326.8,-58513.725,-0.10684375288501959,-0.41941935898218763,0.3293888768354446,-1.0158853687263012,0.42891540163569997,0.971376505754987,1.054038304411531,0.4617575964477277,0.94701906,-0.067443675,0.31701579,-19.761699999999998,0.12208,5.43256,67.0
1774823641.2455716,0.008529901504516602,2026-03-29T22:34:01.245,2026-03-29T18:34:01.245,-21215.114999999998,-44762.58,-76561.83,-48185.82,-8492.445,-15993.945,8321.76,-58515.615,1.4630341002846436,-1.0293540780256547,-0.9811777726253785,-1.4862909040319991,-0.7467207519071812,-0.08195540650733511,1.2005901961634162,2.3383746635697595,0.94701906,-0.067443675,0.31701579,-19.761699999999998,0.12208,5.43256,67.0
1774823641.2456071,3.552436828613281e-05,2026-03-29T22:34:01.245,2026-03-29T18:34:01.245,-21219.84,-44765.865,-76562.81999999999,-48186.27,-8491.904999999999,-15994.349999999999,8320.455,-58521.329999999994,2.2826342318984927,-1.3028876227760884,-1.9962410299602695,-1.320448843854577,-1.652203691815248,-1.1611179189414864,0.7740533050881364,3.131009254512024,0.94701906,-0.067443675,0.31701579,-19.761699999999998,0.12208,5.43256,67.0
1774823641.2456388,3.170967102050781e-05,2026-03-29T22:34:01.245,2026-03-29T18:34:01.245,-21219.165,-44764.74,-76558.23,-48180.104999999996,-8485.154999999999,-15988.14,8322.525,-58521.06,1.9563809805788588,-1.0373671698656637,-2.1280531641663005,-0.48178653139667166,-1.7746527416612354,-1.662181011220211,-0.0032975480198660237,2.450329049615757,0.94909425,-0.07653789,0.32092203,-21.013019999999997,1.3428799999999999,5.997179999999999,67.0
1774823641.2456496,1.0728836059570312e-05,2026-03-29T22:34:01.245,2026-03-29T18:34:01.245,-21209.985,-44755.38,-76545.855,-48167.595,-8474.805,-15974.73,8325.18,-58509.225,0.6574442839553403,-0.24599603765206543,-1.1750774176959278,0.7298279102287528,-0.9711506716759077,-1.2693412291393453,-0.7505052234752763,0.5903514445873034,0.94909425,-0.07653789,0.32092203,-21.013019999999997,1.3428799999999999,5.997179999999999,67.0
1774823641.2502723,0.004622697830200195,2026-03-29T22:34:01.250,2026-03-29T18:34:01.250,-21209.985,-44756.055,-76545.62999999999,-48165.705,-8472.15,-15969.779999999999,8326.17,-58505.715,-0.9613119706394263,0.7981914781981019,0.5190030316601486,1.774505971327912,0.42334040786352933,-0.14300788954620083,-1.115741039471389,-1.5981208465315884,0.94909425,-0.07653789,0.32092203,-21.013019999999997,1.3428799999999999,5.997179999999999,67.0
1774823641.2503033,3.0994415283203125e-05,2026-03-29T22:34:01.250,2026-03-29T18:34:01.250,-21213.63,-44764.74,-76560.61499999999,-48181.77,-8486.82,-15989.22,8318.07,-58510.259999999995,-2.091594108355792,1.6441997370814083,2.1776056365515437,2.1107088679270047,1.73296409395278,1.1442416565639697,-0.9425558232602386,-3.092341280498886,0.94909425,-0.07653789,0.32092203,-21.013019999999997,1.3428799999999999,5.997179999999999,67.0
1774823641.2544253,0.004122018814086914,2026-03-29T22:34:01.254,2026-03-29T18:34:01.254,-21210.84,-44763.525,-76563.135,-48186.945,-8494.65,-16001.369999999999,8312.58,-58508.325,-2.169639990761798,1.8545499332880366,2.9458944287367945,1.471855609653289,2.2687086705132256,1.899399131736098,-0.33570153703624744,-3.1689794916108514,0.94909425,-0.07653789,0.32092203,-21.013019999999997,1.3428799999999999,5.997179999999999,67.0
1774823641.254452,2.6702880859375e-05,2026-03-29T22:34:01.254,2026-03-29T18:34:01.254,-21209.13,-44760.735,-76559.94,-48183.39,-8491.68,-16000.965,8315.64,-58505.67,-1.1553219651149007,1.227005141833965,2.326579639778139,0.041525944985306026,1.6879581604450387,1.67958858787937,0.40048589183671524,-1.747916221331493,0.94909425,-0.07653789,0.32092203,-21.013019999999997,1.3428799999999999,5.997179999999999,67.0
1774823641.2596045,0.005152463912963867,2026-03-29T22:34:01.259,2026-03-29T18:34:01.259,-21209.579999999998,-44761.455,-76559.12999999999,-48178.08,-8481.375,-15981.795,8329.455,-58503.96,0.44712551640019355,-0.06421547936274438,0.47630034503503527,-1.5785111476735536,0.19916080211675935,0.5441813741961103,0.9155989424169687,0.5523102846327457,0.94909425,-0.07653789,0.32092203,-21.013019999999997,1.3428799999999999,5.997179999999999,67.0
1774823641.259623,1.8596649169921875e-05,2026-03-29T22:34:01.259,2026-03-29T18:34:01.259,-21204.765,-44756.189999999995,-76550.04,-48168.9,-8471.07,-15964.605,8339.895,-58497.795,1.8376629842733088,-1.495174678049874,-1.8062862473130163,-2.618436169509789,-1.5061815966783485,-0.952508881939027,0.98067436880254,2.6808528633970927,0.94909425,-0.07653789,0.32092203,-21.013019999999997,1.3428799999999999,5.997179999999999,67.0
1774823641.2614968,0.0018737316131591797,2026-03-29T22:34:01.261,2026-03-29T18:34:01.261,-21201.39,-44758.665,-76557.95999999999,-48181.005,-8488.71,-15988.005,8330.13,-58495.814999999995,2.316690978385881,-2.4001153633622416,-3.42423765090659,-2.506950864358099,-2.5767894546579746,-2.034679328629726,0.5892229393360626,3.6299044563208542,0.94909425,-0.07653789,0.32092203,-21.013019999999997,1.3428799999999999,5.997179999999999,67.0
1774823641.2615128,1.5974044799804688e-05,2026-03-29T22:34:01.261,2026-03-29T18:34:01.261,-21200.175,-44762.939999999995,-76566.78,-48190.095,-8497.71,-15999.119999999999,8323.47,-58493.43,1.6339366645451368,-2.280966768125817,-3.5108944101892026,-1.1796747864340456,-2.428361167694288,-2.1087279800544945,-0.0524154303769072,2.906561946733009,0.94909425,-0.07653789,0.32092203,-21.013019999999997,1.3428799999999999,5.997179999999999,67.0
1774823641.2652287,0.003715991973876953,2026-03-29T22:34:01.265,2026-03-29T18:34:01.265,-21195.585,-44761.365,-76566.285,-48191.715,-8498.205,-16000.875,8322.029999999999,-58488.884999999995,0.1170266053394604,-1.0747282329288903,-1.8879223138023635,0.8350606254383593,-1.05907248415246,-1.0865128789022773,-0.6341532842334148,0.7825974755316101,0.953427735,-0.08166483000000001,0.323546535,-18.32726,1.77016,6.104,67.0
1774823641.26525,2.1219253540039062e-05,2026-03-29T22:34:01.265,2026-03-29T18:34:01.265,-21196.8,-44758.619999999995,-76559.58,-48184.92,-8490.42,-15994.305,8322.57,-58488.84,-1.4857053061578287,0.7625478620928268,0.7872411429112515,2.6203926418119248,0.9154705026362802,0.547079658706866,-0.8928343158770715,-1.802395084690295,0.953427735,-0.08166483000000001,0.323546535,-18.32726,1.77016,6.104,67.0
1774823641.269415,0.004164934158325195,2026-03-29T22:34:01.269,2026-03-29T18:34:01.269,-21204.719999999998,-44757.81,-76552.515,-48175.74,-8479.305,-15983.505,8326.44,-58498.02,-2.372924813186744,2.4201260699991534,3.2841336403634633,3.290290986761924,2.5411581722575747,1.9673487760401098,-0.7308246235010862,-3.653503630309202,0.953427735,-0.08166483000000001,0.323546535,-18.32726,1.77016,6.104,67.0
1774823641.2694452,3.0279159545898438e-05,2026-03-29T22:34:01.269,2026-03-29T18:34:01.269,-21198.375,-44757.314999999995,-76555.035,-48178.935,-8484.164999999999,-15990.255,8325.18,-58494.195,-2.088434317156731,3.091179783633669,4.369713940418679,2.431801784020658,2.9912344695587345,2.4304898017576226,-0.24927820104195542,-3.8696055037196198,0.953427735,-0.08166483000000001,0.323546535,-18.32726,1.77016,6.104,67.0
1774823641.2730956,0.0036504268646240234,2026-03-29T22:34:01.273,2026-03-29T18:34:01.273,-21198.645,-44758.305,-76555.62,-48178.215,-8485.154999999999,-15992.099999999999,8324.145,-58494.329999999994,-0.7527688313612368,2.3668458780133337,3.420224308370668,0.3485373730988301,1.9896897363363675,1.6655189837081845,0.31290568912285116,-2.2783831795365224,0.953427735,-0.08166483000000001,0.323546535,-18.32726,1.77016,6.104,67.0
1774823641.2731173,2.1696090698242188e-05,2026-03-29T22:34:01.273,2026-03-29T18:34:01.273,-21203.145,-44760.6,-76555.89,-48177.09,-8484.029999999999,-15991.695,8320.635,-58499.64,0.9884189453246552,0.4725829464395258,0.7694191924385568,-2.034169375970149,-0.025926170308063146,0.02993862378116925,0.698442980704468,0.4515061325324542,0.953427735,-0.08166483000000001,0.323546535,-18.32726,1.77016,6.104,67.0
1774823641.2774787,0.004361391067504883,2026-03-29T22:34:01.277,2026-03-29T18:34:01.277,-21193.739999999998,-44757.81,-76557.645,-48180.33,-8487.585,-15996.644999999999,8320.86,-58491.945,2.277012695661494,-1.7856908836645795,-2.3978928168957494,-3.581467713578577,-2.0961786357508823,-1.6593081942132089,0.7492474615683999,3.088155526984033,0.953427735,-0.08166483000000001,0.323546535,-18.32726,1.77016,6.104,67.0
1774823641.2775023,2.3603439331054688e-05,2026-03-29T22:34:01.277,2026-03-29T18:34:01.277,-21182.219999999998,-44759.564999999995,-76566.87,-48193.02,-8501.265,-16009.92,8317.44,-58475.475,2.464561702395307,-3.3646549136130943,-4.580360837862161,-3.494948979641291,-3.2021946481283696,-2.5391015415264135,0.4685368675610368,4.390988130283784,0.953427735,-0.08166483000000001,0.323546535,-18.32726,1.77016,6.104,67.0
1774823641.2812123,0.003710031509399414,2026-03-29T22:34:01.281,2026-03-29T18:34:01.281,-21183.12,-44766.314999999995,-76575.19499999999,-48202.56,-8509.904999999999,-16016.265,8313.885,-58468.77,1.4364383655095287,-3.470104378047716,-4.67961672684089,-1.7276358446836455,-2.7737442594018535,-2.146617661674139,0.004686913387126355,3.69352757524652,0.953427735,-0.08166483000000001,0.323546535,-18.32726,1.77016,6.104,67.0
1774823641.2812312,1.8835067749023438e-05,2026-03-29T22:34:01.281,2026-03-29T18:34:01.281,-21211.695,-44767.665,-76559.44499999999,-48181.095,-8485.02,-15989.849999999999,8325.18,-58498.515,-0.3233876822156073,-1.9580550607593115,-2.556572392607073,0.9487122669847335,-0.986863560592392,-0.6659383277762522,-0.42768411073120527,1.2409072778466224,0.953427735,-0.08166483000000001,0.323546535,-18.32726,1.77016,6.104,67.0
1774823641.285088,0.0038568973541259766,2026-03-29T22:34:01.285,2026-03-29T18:34:01.285,-21214.575,-44760.645,-76548.915,-48169.53,-8471.97,-15976.845,8333.595,-58506.975,-1.962100960989692,0.5530294958216928,0.8589372777662189,3.279174114067852,1.305834191774584,1.1578539340573688,-0.6471939263896523,-1.8879027372891795,0.95715087,-0.08435037000000001,0.3247062,-14.02394,2.01432,6.958559999999999,67.0
1774823641.2851095,2.1457672119140625e-05,2026-03-29T22:34:01.285,2026-03-29T18:34:01.285,-21210.39,-44761.634999999995,-76550.625,-48168.63,-8468.369999999999,-15972.164999999999,8330.31,-58501.755,-2.672526027384491,2.9332689896845947,3.9785933427871734,4.119495024515097,2.986491121809018,2.397486991808159,-0.5794930851695853,-4.254241127113947,0.95715087,-0.08435037000000001,0.3247062,-14.02394,2.01432,6.958559999999999,67.0
1774823641.2890048,0.003895282745361328,2026-03-29T22:34:01.289,2026-03-29T18:34:01.289,-21203.82,-44760.42,-76551.84,-48172.32,-8474.895,-15981.345,8325.945,-58495.275,-2.0903492710235625,4.055222383840546,5.303919182407658,3.005135648989799,3.2248911380618095,2.421250038358065,-0.27668541900636673,-4.722685789436131,0.95715087,-0.08435037000000001,0.3247062,-14.02394,2.01432,6.958559999999999,67.0
1774823641.2890174,1.2636184692382812e-05,2026-03-29T22:34:01.289,2026-03-29T18:34:01.289,-21208.77,-44762.67,-76552.83,-48173.895,-8477.91,-15985.89,8322.435,-58500.225,-0.47857631024236974,3.3345025811068574,4.155811550317219,0.4097594921750743,1.8963106129326712,1.221149348236372,0.1184152586870965,-3.0067622991700573,0.95715087,-0.08435037000000001,0.3247062,-14.02394,2.01432,6.958559999999999,67.0
1774823641.2931376,0.0041201114654541016,2026-03-29T22:34:01.293,2026-03-29T18:34:01.293,-21205.305,-44761.455,-76550.895,-48169.575,-8473.365,-15982.605,8322.615,-58499.505,1.3934547332601912,1.0349195174395307,1.025848481139812,-2.4507752122013184,-0.3491423403892808,-0.5814502818967227,0.44017972462116967,0.16555059889523377,0.95715087,-0.08435037000000001,0.3247062,-14.02394,2.01432,6.958559999999999,67.0
1774823641.2931557,1.811981201171875e-05,2026-03-29T22:34:01.293,2026-03-29T18:34:01.293,-21203.415,-44764.74,-76547.385,-48154.725,-8453.97,-15960.734999999999,8329.994999999999,-58495.86,2.619976407717411,-1.8216821565226304,-2.6338696537041995,-4.191051924678189,-2.4057263530350483,-2.057946222532113,0.5676334095255531,3.3592869894369985,0.95715087,-0.08435037000000001,0.3247062,-14.02394,2.01432,6.958559999999999,67.0
1774823641.299482,0.006326436996459961,2026-03-29T22:34:01.299,2026-03-29T18:34:01.299,-21200.13,-44765.505,-76551.885,-48158.865,-8466.93,-15978.914999999999,8326.17,-58491.99,2.5986221923783734,-3.91432154610458,-5.09316159280621,-3.9346228259955147,-3.262853821437793,-2.455386973115364,0.4651569831872753,5.084344509703156,0.95715087,-0.08435037000000001,0.3247062,-14.02394,2.01432,6.958559999999999,67.0
1774823641.2995028,2.0742416381835938e-05,2026-03-29T22:34:01.299,2026-03-29T18:34:01.299,-21194.415,-44760.015,-76549.59,-48162.825,-8480.07,-15997.814999999999,8316.855,-58487.49,1.325834477043226,-4.242395615956302,-5.174152272293556,-1.7631660328405618,-2.510721011206746,-1.5874088271437872,0.18590807913519075,4.49462286370527,0.95715087,-0.08435037000000001,0.3247062,-14.02394,2.01432,6.958559999999999,67.0
1774823641.3084893,0.008986473083496094,2026-03-29T22:34:01.308,2026-03-29T18:34:01.308,-21195.18,-44757.9,-76542.435,-48156.21,-8475.705,-15991.289999999999,8318.205,-58486.545,-0.597006145152215,-2.6113687769466813,-2.8257397336110825,1.2967024837567087,-0.5442002549278883,0.07240245001518118,-0.15636935770325838,1.8045834054511936,0.95715087,-0.08435037000000001,0.3247062,-14.02394,2.01432,6.958559999999999,67.0
1774823641.3085225,3.314018249511719e-05,2026-03-29T22:34:01.308,2026-03-29T18:34:01.308,-21192.3,-44753.49,-76535.055,-48147.615,-8469.765,-15984.0,8315.685,-58481.64,-2.250982827582218,0.25443031162488716,0.8425566724753796,3.757842341793499,1.6398129401907215,1.6441193647359271,-0.43193483025350554,-1.7828890019557242,0.95715087,-0.08435037000000001,0.3247062,-14.02394,2.01432,6.958559999999999,67.0
1774823641.3085537,3.123283386230469e-05,2026-03-29T22:34:01.308,2026-03-29T18:34:01.308,-21192.39,-44752.275,-76533.97499999999,-48142.439999999995,-8462.88,-15977.115,8316.585,-58482.314999999995,-2.8418425662950475,3.0364188736446027,4.089851360574084,4.400210341484722,2.9494252498718594,2.3080513588893177,-0.5396027769688336,-4.6170910481476755,0.958310535,-0.08190897,0.325133445,-10.743039999999999,3.52506,7.858899999999999,67.0
1774823641.308566,1.239776611328125e-05,2026-03-29T22:34:01.308,2026-03-29T18:34:01.308,-21192.66,-44757.27,-76553.37,-48167.189999999995,-8474.895,-15985.125,8324.19,-58483.125,-2.0828332758016415,4.437161201911895,5.3818326751987495,2.8838055274771572,2.750761849651086,1.7370048676138423,-0.43900935930155743,-5.364720294537659,0.958310535,-0.08190897,0.325133445,-10.743039999999999,3.52506,7.858899999999999,67.0
1774823641.3085809,1.4781951904296875e-05,2026-03-29T22:34:01.308,2026-03-29T18:34:01.308,-21191.355,-44761.77,-76562.50499999999,-48190.275,-8487.945,-15998.22,8319.779999999999,-58479.615,-0.33293464716681015,3.795459698626309,4.129120491804658,-0.06403746241648309,1.1842122094032608,0.26461396395168524,-0.16368389485915236,-3.642479428852922,0.958310535,-0.08190897,0.325133445,-10.743039999999999,3.52506,7.858899999999999,67.0
1774823641.3085911,1.0251998901367188e-05,2026-03-29T22:34:01.308,2026-03-29T18:34:01.308,-21192.66,-44768.43,-76571.55,-48204.674999999996,-8494.38,-16001.73,8316.0,-58477.725,1.575842627023693,1.404975897045722,0.9649156661305445,-2.992181231665417,-0.9176642330883652,-1.2996638125153417,0.18786350306583713,-0.2143378593382988,0.958310535,-0.08190897,0.325133445,-10.743039999999999,3.52506,7.858899999999999,67.0
1774823641.314114,0.005522966384887695,2026-03-29T22:34:01.314,2026-03-29T18:34:01.314,-21189.87,-44770.5,-76565.11499999999,-48193.604999999996,-8487.09,-15989.67,8320.05,-58468.59,2.7377619087430687,-1.6201755815514314,-2.572930580129428,-4.4400122034450575,-2.4669501164108514,-2.109570928482085,0.48229123758287995,3.3486617250314588,0.958310535,-0.08190897,0.325133445,-10.743039999999999,3.52506,7.858899999999999,67.0
1774823641.3141448,3.075599670410156e-05,2026-03-29T22:34:01.314,2026-03-29T18:34:01.314,-21195.719999999998,-44773.92,-76564.75499999999,-48186.09,-8485.38,-15991.289999999999,8321.265,-58471.74,2.6059881139602865,-3.8715095736671925,-4.79670767958466,-3.670902552701521,-2.6848638645867466,-1.7392291134298947,0.5971438021668315,5.394327837388603,0.958310535,-0.08190897,0.325133445,-10.743039999999999,3.52506,7.858899999999999,67.0
1774823641.3174355,0.0032906532287597656,2026-03-29T22:34:01.317,2026-03-29T18:34:01.317,-21199.32,-44779.634999999995,-76576.545,-48187.08,-8492.85,-16006.32,8314.335,-58473.72,1.2505962228677099,-4.312511087071586,-4.687027460441542,-1.054698967945924,-1.500686670204084,-0.41193200286290027,0.4697157212460888,4.9630239388502995,0.958310535,-0.08190897,0.325133445,-10.743039999999999,3.52506,7.858899999999999,67.0
1774823641.3174572,2.1696090698242188e-05,2026-03-29T22:34:01.317,2026-03-29T18:34:01.317,-21206.745,-44782.965,-76583.06999999999,-48183.345,-8487.27,-15994.89,8319.42,-58480.244999999995,-0.6800880044956518,-2.765222022444045,-2.372209380472101,2.1018881034148214,0.42192316210047753,1.123957839536208,0.13085541998878947,2.243390558289589,0.958310535,-0.08190897,0.325133445,-10.743039999999999,3.52506,7.858899999999999,67.0
1774823641.322543,0.00508570671081543,2026-03-29T22:34:01.322,2026-03-29T18:34:01.322,-21208.86,-44770.005,-76573.17,-48181.905,-8487.539999999999,-15993.585,8320.005,-58490.505,-2.2730750050467545,0.015694493660124362,0.9619937172709035,4.202634380542886,2.043676763924038,2.0062501116575358,-0.29434373935828956,-1.5089908857407852,0.958310535,-0.08190897,0.325133445,-10.743039999999999,3.52506,7.858899999999999,67.0
1774823641.3225744,3.147125244140625e-05,2026-03-29T22:34:01.322,2026-03-29T18:34:01.322,-21193.469999999998,-44749.935,-76548.87,-48175.695,-8486.955,-15999.119999999999,8317.35,-58480.515,-2.786008073075915,2.713591758126458,3.6783026521202666,4.168049897451659,2.50399805879798,1.7350417174777568,-0.6273003889094859,-4.555799036105227,0.958310535,-0.08190897,0.325133445,-10.743039999999999,3.52506,7.858899999999999,67.0
1774823641.3254972,0.0029227733612060547,2026-03-29T22:34:01.325,2026-03-29T18:34:01.325,-21179.565,-44735.13,-76530.23999999999,-48190.005,-8498.16,-16005.105,8318.385,-58470.075,-1.9950225030935842,4.082020861234599,4.500343651996626,1.9936151227291878,1.5781048490380116,0.45374632282139654,-0.7086059183485878,-5.489357957916445,0.95666259,-0.084655545,0.32812416,-5.82932,4.53222,10.193679999999999,67.0
1774823641.3255193,2.2172927856445312e-05,2026-03-29T22:34:01.325,2026-03-29T18:34:01.325,-21177.45,-44734.634999999995,-76528.305,-48183.84,-8496.765,-16007.715,8317.619999999999,-58465.665,-0.29131661507375495,3.530973722292873,3.124959041280802,-1.2296904341865766,-0.20576708269602056,-1.1217947871876799,-0.4744960329232181,-3.8910248749638146,0.95666259,-0.084655545,0.32812416,-5.82932,4.53222,10.193679999999999,67.0
1774823641.3296762,0.004156827926635742,2026-03-29T22:34:01.329,2026-03-29T18:34:01.329,-21177.405,-44741.025,-76537.17,-48180.15,-8489.925,-16001.505,8323.11,-58463.954999999994,1.5145529640655395,1.386706293347915,0.33523147984016805,-3.8544546991831825,-1.8527601749607248,-2.0928612092408394,-0.00040524584766810806,-0.522964501395849,0.95666259,-0.084655545,0.32812416,-5.82932,4.53222,10.193679999999999,67.0
1774823641.3296962,2.002716064453125e-05,2026-03-29T22:34:01.329,2026-03-29T18:34:01.329,-21180.239999999998,-44753.625,-76554.045,-48190.32,-8496.09,-16002.359999999999,8328.285,-58460.67,2.5817721591774974,-1.291975357784221,-2.428969047162495,-4.512002215640301,-2.440890297753928,-1.8775642032608821,0.5161197287809226,3.0365550256828486,0.95666259,-0.084655545,0.32812416,-5.82932,4.53222,10.193679999999999,67.0
1774823641.332907,0.003210783004760742,2026-03-29T22:34:01.332,2026-03-29T18:34:01.332,-21169.665,-44753.759999999995,-76560.075,-48194.64,-8498.52,-16005.96,8322.57,-58445.954999999994,2.43340155546251,-3.2406024823941584,-3.812864809856483,-2.8225985712688706,-1.6263734972686912,-0.5473924746502141,0.8349616618918205,5.139364577477963,0.95666259,-0.084655545,0.32812416,-5.82932,4.53222,10.193679999999999,67.0
1774823641.3329356,2.86102294921875e-05,2026-03-29T22:34:01.332,2026-03-29T18:34:01.332,-21162.149999999998,-44753.49,-76562.955,-48196.215,-8496.315,-16003.619999999999,8323.56,-58435.2,1.169603128563024,-3.59503891639811,-3.2191428454688773,0.3864254661835791,0.15811591025648908,1.1896681165997987,0.7851743544121045,4.839399706403736,0.95666259,-0.084655545,0.32812416,-5.82932,4.53222,10.193679999999999,67.0
1774823641.3383262,0.005390644073486328,2026-03-29T22:34:01.338,2026-03-29T18:34:01.338,-21170.114999999998,-44756.775,-76561.515,-48193.56,-8493.39,-16004.34,8319.33,-58441.409999999996,-0.5952866506234304,-2.282037594477394,-1.0736188900621222,3.47857696258309,1.9249486374653162,2.3607061977646286,0.35695125652610393,2.3249332093988793,0.95666259,-0.084655545,0.32812416,-5.82932,4.53222,10.193679999999999,67.0
1774823641.3383472,2.09808349609375e-05,2026-03-29T22:34:01.338,2026-03-29T18:34:01.338,-21184.965,-44754.795,-76553.50499999999,-48186.674999999996,-8492.31,-16008.029999999999,8320.095,-58460.13,-2.033937225920748,-0.014367801672728761,1.4376784576384762,4.833319937506358,2.662080746899942,2.260816212040009,-0.2757556990817736,-1.1895134970422467,0.95666259,-0.084655545,0.32812416,-5.82932,4.53222,10.193679999999999,67.0
1774823641.3414855,0.003138303756713867,2026-03-29T22:34:01.341,2026-03-29T18:34:01.341,-21192.21,-44750.384999999995,-76544.055,-48173.985,-8478.135,-15993.63,8324.595,-58472.595,-2.496614352009521,2.0903383053396216,3.0089186003482156,3.6855057497032604,1.8929611105397979,0.8595350562037278,-0.8224056632840948,-4.052619552320367,0.95666259,-0.084655545,0.32812416,-5.82932,4.53222,10.193679999999999,67.0
1774823641.3415017,1.621246337890625e-05,2026-03-29T22:34:01.341,2026-03-29T18:34:01.341,-21194.55,-44750.7,-76539.69,-48164.715,-8466.119999999999,-15979.14,8326.035,-58471.92,-1.8055049224580004,3.0651144272858417,2.891708043998051,0.5477459789672591,-0.03716445145194034,-1.1474965536290398,-1.009174018653425,-4.959729618772766,0.95666259,-0.084655545,0.32812416,-5.82932,4.53222,10.193679999999999,67.0
1774823641.3603973,0.018895626068115234,2026-03-29T22:34:01.360,2026-03-29T18:34:01.360,-21195.495,-44754.84,-76543.965,-48167.505,-8469.18,-15982.92,8323.47,-58469.939999999995,-0.31912940853018457,2.5452442926820424,1.2584013994070957,-3.0136200133847657,-2.1132676163781268,-2.6842653244561396,-0.7174256383654852,-3.5552716471797092,0.95495361,-0.089294205,0.330138315,2.33478,3.18934,10.3005,67.0
1774823641.3604293,3.1948089599609375e-05,2026-03-29T22:34:01.360,2026-03-29T18:34:01.360,-21189.915,-44755.56,-76549.36499999999,-48174.615,-8477.055,-15991.515,8326.619999999999,-58462.38,1.2539750885825678,0.9016365133784364,-0.9277600139353626,-5.153252029990514,-3.1751734498137276,-2.8652699017729923,-0.05678885632186576,-0.5724057694788064,0.95495361,-0.089294205,0.330138315,2.33478,3.18934,10.3005,67.0
1774823641.3604546,2.5272369384765625e-05,2026-03-29T22:34:01.360,2026-03-29T18:34:01.360,-21189.285,-44757.854999999996,-76552.2,-48178.619999999995,-8482.23,-15997.68,8323.47,-58459.409999999996,2.195249711600886,-0.9910099110821157,-2.4537736316930885,-4.691285668641842,-2.546548832581402,-1.4905442557028232,0.6711603004207412,2.545120155965258,0.95495361,-0.089294205,0.330138315,2.33478,3.18934,10.3005,67.0
1774823641.3604646,1.0013580322265625e-05,2026-03-29T22:34:01.360,2026-03-29T18:34:01.360,-21188.385,-44755.92,-76545.81,-48172.68,-8477.73,-15988.904999999999,8323.83,-58453.515,2.105548086584857,-2.215459297956518,-2.513867376071687,-1.7480475058092848,-0.43370824908632566,0.8067886012969475,1.1100048783279348,4.345441129787614,0.95495361,-0.089294205,0.330138315,2.33478,3.18934,10.3005,67.0
1774823641.3604765,1.1920928955078125e-05,2026-03-29T22:34:01.360,2026-03-29T18:34:01.360,-21185.64,-44753.625,-76541.895,-48169.125,-8475.885,-15987.24,8322.345,-58447.979999999996,1.0724528864379412,-2.260692419213419,-1.1318945764753585,2.2668720160785725,2.1308192106262784,2.855352351996979,1.0245094664455277,4.051882478702437,0.95495361,-0.089294205,0.330138315,2.33478,3.18934,10.3005,67.0
1774823641.3604856,9.059906005859375e-06,2026-03-29T22:34:01.360,2026-03-29T18:34:01.360,-21191.13,-44762.805,-76554.72,-48176.729999999996,-8477.55,-15988.814999999999,8321.22,-58453.695,-0.3934446680913109,-1.2366337005336552,0.8712404841170276,5.327670222041552,3.79195816212737,3.5438714351964373,0.42800792283447164,1.9023575665874337,0.95495361,-0.089294205,0.330138315,2.33478,3.18934,10.3005,67.0
1774823641.3604963,1.0728836059570312e-05,2026-03-29T22:34:01.360,2026-03-29T18:34:01.360,-21188.79,-44761.32,-76554.9,-48174.884999999995,-8472.69,-15983.955,8322.885,-58452.435,-1.6119378800248336,0.2359961789024393,2.3407661389475742,5.806534604823682,3.5771740579773605,2.4165356763468018,-0.4082777859702934,-1.0054033229479344,0.95495361,-0.089294205,0.330138315,2.33478,3.18934,10.3005,67.0
1774823641.3605056,9.298324584960938e-06,2026-03-29T22:34:01.360,2026-03-29T18:34:01.360,-21185.82,-44759.43,-76553.09999999999,-48174.57,-8472.24,-15985.305,8321.625,-58450.545,-2.0499253598007443,1.3821731777653015,2.4281686541283745,3.3236629644378257,1.4396045291574242,-0.05121607711671743,-1.0773205167528674,-3.271169482167427,0.95495361,-0.089294205,0.330138315,2.33478,3.18934,10.3005,67.0
1774823641.3639455,0.0034399032592773438,2026-03-29T22:34:01.363,2026-03-29T18:34:01.363,-21185.28,-44763.795,-76562.055,-48188.25,-8490.42,-16007.265,8315.145,-58449.06,-1.5534512090935486,1.676978786839571,1.061713279030177,-1.0054583498407645,-1.6554888428483518,-2.6555139678672104,-1.235639275188207,-3.870138306125051,0.95495361,-0.089294205,0.330138315,2.33478,3.18934,10.3005,67.0
1774823641.3639593,1.3828277587890625e-05,2026-03-29T22:34:01.363,2026-03-29T18:34:01.363,-21183.614999999998,-44764.74,-76564.62,-48191.805,-8499.24,-16023.15,8311.68,-58449.735,-0.39482430318685086,1.087942752119308,-1.0071963024002673,-5.072817018125131,-4.170004346191093,-4.057789295813647,-0.7817987584207111,-2.621595034317843,0.95495361,-0.089294205,0.330138315,2.33478,3.18934,10.3005,67.0
1774823641.3639767,1.7404556274414062e-05,2026-03-29T22:34:01.363,2026-03-29T18:34:01.363,-21186.405,-44768.159999999996,-76564.62,-48181.365,-8485.785,-16010.144999999999,8314.785,-58451.354999999996,0.8748133595962817,0.042548567222018,-2.6088034760601753,-6.803203055110127,-4.756245285773262,-3.4735159197409913,0.07957662834444545,-0.23177144993646553,0.9500097750000001,-0.079772745,0.32763588,3.3571999999999997,2.01432,10.28524,67.0
1774823641.363984,7.3909759521484375e-06,2026-03-29T22:34:01.363,2026-03-29T18:34:01.363,-21182.04,-44764.695,-76557.78,-48177.674999999996,-8478.18,-15996.24,8318.16,-58441.905,1.6882721386388972,-0.8417759956288358,-2.795538386021056,-5.203239926506738,-2.9652022593129033,-1.1007824197045175,0.9279617799286939,2.0912888679119304,0.9500097750000001,-0.079772745,0.32763588,3.3571999999999997,2.01432,10.28524,67.0
1774823641.3697915,0.005807399749755859,2026-03-29T22:34:01.369,2026-03-29T18:34:01.369,-21182.04,-44755.29,-76542.12,-48178.034999999996,-8479.98,-15995.43,8318.565,-58439.295,1.7147759248309615,-1.1057512008246237,-1.374340321934956,-0.9069211273927,0.46770279379090274,1.9420281140905264,1.3328151970717639,3.2455359656298453,0.9500097750000001,-0.079772745,0.32763588,3.3571999999999997,2.01432,10.28524,67.0
1774823641.3698237,3.218650817871094e-05,2026-03-29T22:34:01.369,2026-03-29T18:34:01.369,-21195.989999999998,-44762.13,-76550.175,-48180.06,-8481.33,-15999.974999999999,8318.205,-58455.81,0.9902639192277434,-0.6835093030081508,0.9592941942187051,4.073844217753248,3.9263915449692357,4.152595603127939,1.0742070513520836,2.760448284127442,0.9500097750000001,-0.079772745,0.32763588,3.3571999999999997,2.01432,10.28524,67.0
1774823641.374215,0.004391193389892578,2026-03-29T22:34:01.374,2026-03-29T18:34:01.374,-21194.055,-44764.02,-76554.405,-48173.445,-8466.345,-15979.904999999999,8323.38,-58451.939999999995,-0.12323196071972353,0.09442712199240316,2.9665991624425785,7.29646813533371,5.680791200758156,4.393491557794954,0.2642479670910888,0.9885174049139752,0.9500097750000001,-0.079772745,0.32763588,3.3571999999999997,2.01432,10.28524,67.0
1774823641.3742332,1.8358230590820312e-05,2026-03-29T22:34:01.374,2026-03-29T18:34:01.374,-21187.035,-44753.534999999996,-76534.065,-48147.57,-8432.279999999999,-15942.914999999999,8334.494999999999,-58444.604999999996,-1.1181851753250318,0.718128486786641,3.5164891290036073,7.084177979327642,4.749648332608764,2.47678546543308,-0.6983771518242897,-1.114799258734225,0.9500097750000001,-0.079772745,0.32763588,3.3571999999999997,2.01432,10.28524,67.0
1774823641.3801498,0.005916595458984375,2026-03-29T22:34:01.380,2026-03-29T18:34:01.380,-21185.19,-44748.72,-76528.75499999999,-48154.14,-8451.585,-15973.83,8324.64,-58445.1,-1.572049943781998,0.8037492457316012,2.202144209149946,3.3855809645815085,1.4296442313966173,-0.7162258094737805,-1.3242884414885294,-2.4948597258660143,0.9500097750000001,-0.079772745,0.32763588,3.3571999999999997,2.01432,10.28524,67.0
1774823641.3801577,7.867813110351562e-06,2026-03-29T22:34:01.380,2026-03-29T18:34:01.380,-21190.005,-44757.54,-76551.705,-48188.88,-8496.81,-16028.189999999999,8308.035,-58449.735,-1.3233768069062126,0.31313984815393275,-0.40609374748485233,-2.139037734387302,-2.787901222577615,-3.649862969185493,-1.2836869691153312,-2.5235683648518132,0.9500097750000001,-0.079772745,0.32763588,3.3571999999999997,2.01432,10.28524,67.0
1774823641.414376,0.03421831130981445,2026-03-29T22:34:01.414,2026-03-29T18:34:01.414,-21187.079999999998,-44755.604999999996,-76549.5,-48178.979999999996,-8476.065,-15999.39,8316.585,-58443.615,-0.522109998826104,-0.4330036551508162,-3.016489731684078,-6.871088312750438,-5.8957691399932,-4.883610525763307,-0.5824091352048326,-1.286032844664461,0.9500097750000001,-0.079772745,0.32763588,3.3571999999999997,2.01432,10.28524,67.0
1774823641.4143984,2.2411346435546875e-05,2026-03-29T22:34:01.414,2026-03-29T18:34:01.414,-21188.969999999998,-44760.015,-76551.39,-48171.825,-8459.64,-15974.369999999999,8325.18,-58438.755,0.4567814652566489,-0.950668733001164,-4.261569455237792,-8.48110587129114,-6.33171894860523,-3.785377649875685,0.4310981936508266,0.5028570379508455,0.9500097750000001,-0.079772745,0.32763588,3.3571999999999997,2.01432,10.28524,67.0
1774823641.4144163,1.7881393432617188e-05,2026-03-29T22:34:01.414,2026-03-29T18:34:01.414,-21189.78,-44763.615,-76563.765,-48195.405,-8499.195,-16023.734999999999,8309.61,-58437.72,1.1879559777218014,-0.8822132149657106,-3.408235784121542,-6.072921857749426,-3.7586699561595673,-0.8524055964383791,1.2375423608198712,1.893052796323181,0.95177979,-0.075134085,0.32995521,8.28618,1.2207999999999999,13.1999,67.0
1774823641.4144235,7.152557373046875e-06,2026-03-29T22:34:01.414,2026-03-29T18:34:01.414,-21187.26,-44756.009999999995,-76555.08,-48190.14,-8495.955,-16021.89,8312.67,-58437.494999999995,1.3776426402979975,-0.2143576917898524,-0.7655508423680257,-0.6630892683006685,0.7237823614423889,2.5221412226111903,1.4132526238908023,2.1932574237891953,0.95177979,-0.075134085,0.32995521,8.28618,1.2207999999999999,13.1999,67.0
1774823641.414432,8.58306884765625e-06,2026-03-29T22:34:01.414,2026-03-29T18:34:01.414,-21183.84,-44750.655,-76542.705,-48172.86,-8468.055,-15987.869999999999,8324.685,-58432.545,0.9766638023149486,0.7002584595424397,2.429080465850319,5.254520724523187,5.0571838474203705,4.723305567799228,0.8544255252860727,1.3109978555886246,0.95177979,-0.075134085,0.32995521,8.28618,1.2207999999999999,13.1999,67.0
1774823641.4144385,6.4373016357421875e-06,2026-03-29T22:34:01.414,2026-03-29T18:34:01.414,-21189.87,-44757.225,-76545.27,-48178.259999999995,-8473.815,-15994.98,8322.435,-58436.595,0.18408823234653182,1.3327698998505846,4.601686912278386,8.86937356885455,7.179590187278268,4.69720963156663,-0.16020981642782206,-0.2270094308609506,0.95177979,-0.075134085,0.32995521,8.28618,1.2207999999999999,13.1999,67.0
1774823641.4144466,8.106231689453125e-06,2026-03-29T22:34:01.414,2026-03-29T18:34:01.414,-21190.14,-44756.909999999996,-76547.7,-48182.354999999996,-8485.425,-16013.474999999999,8318.835,-58435.29,-0.6506249347987726,1.2758275867828826,4.6229284268095645,8.395013364293998,6.010298066033783,2.4584773199698517,-1.106297388039178,-1.5724814581776771,0.95177979,-0.075134085,0.32995521,8.28618,1.2207999999999999,13.1999,67.0
1774823641.4144533,6.67572021484375e-06,2026-03-29T22:34:01.414,2026-03-29T18:34:01.414,-21192.66,-44763.255,-76560.93,-48195.18,-8498.654999999999,-16026.885,8314.065,-58432.68,-1.1792822219819525,0.4846792200158107,2.3884156163737527,3.9474942848847925,1.991896073797722,-0.9234509674689015,-1.4840262648965792,-2.0083417927178773,0.95177979,-0.075134085,0.32995521,8.28618,1.2207999999999999,13.1999,67.0
1774823641.4144611,7.867813110351562e-06,2026-03-29T22:34:01.414,2026-03-29T18:34:01.414,-21192.704999999998,-44764.65,-76569.705,-48204.18,-8505.315,-16032.42,8315.055,-58428.854999999996,-1.195944995703205,-0.6745840269888783,-1.0977272964213638,-2.468990889985031,-3.0791195045772475,-3.846663542498517,-1.0826377580286848,-1.320012609457432,0.95177979,-0.075134085,0.32995521,8.28618,1.2207999999999999,13.1999,67.0
1774823641.4144678,6.67572021484375e-06,2026-03-29T22:34:01.414,2026-03-29T18:34:01.414,-21197.475,-44766.09,-76564.70999999999,-48193.695,-8489.295,-16012.755,8319.96,-58426.829999999994,-0.712650955999839,-1.6024869778345785,-4.187456207717645,-7.877360830665581,-6.8666232996594,-4.94734637751941,-0.09907253670038178,0.10324898352998256,0.95177979,-0.075134085,0.32995521,8.28618,1.2207999999999999,13.1999,67.0
1774823641.4144757,7.867813110351562e-06,2026-03-29T22:34:01.414,2026-03-29T18:34:01.414,-21203.415,-44772.479999999996,-76564.53,-48183.525,-8473.14,-15991.335,8320.365,-58425.93,0.055239026724640414,-1.7797425759276502,-5.380380473715222,-9.720351748901143,-7.579641636514695,-3.742437378370474,0.9562854160897296,1.4829745677823185,0.95177979,-0.075134085,0.32995521,8.28618,1.2207999999999999,13.1999,67.0
1774823641.414482,6.4373016357421875e-06,2026-03-29T22:34:01.414,2026-03-29T18:34:01.414,-21200.219999999998,-44768.025,-76560.75,-48172.455,-8467.38,-15996.06,8313.795,-58423.634999999995,0.7831315594647306,-1.0515991048903142,-4.056691225524094,-7.074130223590831,-4.8200907498691015,-0.8386754837729655,1.5227497480747465,2.0656111452223977,0.95177979,-0.075134085,0.32995521,8.28618,1.2207999999999999,13.1999,67.0
1774823641.41449,7.867813110351562e-06,2026-03-29T22:34:01.414,2026-03-29T18:34:01.414,-21196.98,-44757.674999999996,-76538.205,-48141.27,-8427.555,-15954.029999999999,8331.345,-58420.979999999996,1.1707021084144942,0.27045974119194605,-0.7915965848416765,-1.104882410570104,0.20803353930548543,2.380501662839276,1.2862909340397934,1.5197732237981425,0.951840825,-0.09130836,0.335265255,28.52094,0.30519999999999997,13.291459999999999,67.0
1774823641.4144964,6.4373016357421875e-06,2026-03-29T22:34:01.414,2026-03-29T18:34:01.414,-21204.405,-44760.06,-76534.37999999999,-48147.345,-8437.365,-15971.22,8325.494999999999,-58424.354999999996,1.0620729038428354,1.5492259898264926,2.9053610137849804,5.454842501412055,5.2333071523698065,4.425354317456084,0.3533264753757888,0.11203013655944273,0.951840825,-0.09130836,0.335265255,28.52094,0.30519999999999997,13.291459999999999,67.0
1774823641.4145043,7.867813110351562e-06,2026-03-29T22:34:01.414,2026-03-29T18:34:01.414,-21202.2,-44759.835,-76540.5,-48163.185,-8469.0,-16008.66,8306.775,-58420.259999999995,0.5067290026614915,2.1374273684021508,5.302670746824951,9.570393532829932,7.953316174486065,4.397480690584125,-0.7946448819337815,-1.4279048505060323,0.951840825,-0.09130836,0.335265255,28.52094,0.30519999999999997,13.291459999999999,67.0
1774823641.414511,6.67572021484375e-06,2026-03-29T22:34:01.414,2026-03-29T18:34:01.414,-21201.344999999998,-44758.439999999995,-76537.845,-48158.64,-8473.815,-16018.47,8300.61,-58418.145,-0.26170979286934964,1.7085798837244721,5.2683561478274346,9.319140167893075,7.095374540679207,2.3843335815365236,-1.547636835809547,-2.282544888857071,0.951840825,-0.09130836,0.335265255,28.52094,0.30519999999999997,13.291459999999999,67.0
1774823641.4145188,7.867813110351562e-06,2026-03-29T22:34:01.414,2026-03-29T18:34:01.414,-21200.085,-44765.325,-76551.795,-48167.145,-8475.57,-16011.224999999999,8306.955,-58411.755,-0.9205967204886261,0.4327011235916464,2.8064650513170295,4.791185097807595,3.0106031109188973,-0.62199352643099,-1.4893701479521408,-1.9704413241288667,0.951840825,-0.09130836,0.335265255,28.52094,0.30519999999999997,13.291459999999999,67.0
1774823641.4145253,6.4373016357421875e-06,2026-03-29T22:34:01.414,2026-03-29T18:34:01.414,-21199.545,-44777.07,-76577.895,-48206.744999999995,-8503.74,-16023.734999999999,8315.505,-58402.935,-1.1904822342158545,-1.0956727034419,-0.9462718261879022,-1.9462303966429109,-2.474934951448124,-3.221649279117486,-0.6255270129045027,-0.6022429013905863,0.951840825,-0.09130836,0.335265255,28.52094,0.30519999999999997,13.291459999999999,67.0
1774823641.4197335,0.005208253860473633,2026-03-29T22:34:01.419,2026-03-29T18:34:01.419,-21203.415,-44779.185,-76579.155,-48220.155,-8503.92,-16018.289999999999,8315.595,-58399.335,-0.952155525991122,-2.143959717687046,-4.25799115753163,-7.8042958546403485,-6.8859118154348655,-4.267145175306057,0.6063620652829967,1.162243952079838,0.951840825,-0.09130836,0.335265255,28.52094,0.30519999999999997,13.291459999999999,67.0
1774823641.4197583,2.47955322265625e-05,2026-03-29T22:34:01.419,2026-03-29T18:34:01.419,-21202.02,-44768.205,-76567.455,-48218.4,-8494.56,-16005.06,8318.07,-58394.43,-0.3002128107568567,-2.200276923987248,-5.613613630779447,-10.101372707169762,-8.222714568153444,-3.3717653176792526,1.557156447789128,2.4367631291416263,0.951840825,-0.09130836,0.335265255,28.52094,0.30519999999999997,13.291459999999999,67.0
1774823641.4251804,0.005422115325927734,2026-03-29T22:34:01.425,2026-03-29T18:34:01.425,-21194.19,-44753.985,-76559.31,-48222.405,-8508.33,-16021.125,8313.93,-58392.045,0.491587883424405,-1.225614868686236,-4.415146813148915,-7.798771918022912,-5.87130671418925,-1.0406728285063793,1.7060564801567017,2.5513996014146687,0.951840825,-0.09130836,0.335265255,28.52094,0.30519999999999997,13.291459999999999,67.0
1774823641.4251964,1.5974044799804688e-05,2026-03-29T22:34:01.425,2026-03-29T18:34:01.425,-21192.165,-44754.615,-76552.155,-48203.955,-8502.21,-16021.484999999999,8314.695,-58387.454999999994,1.0825328119750837,0.32557750270021923,-1.2439820892138573,-1.970864093406485,-0.8830543494981958,1.611569900155939,0.9429096062742829,1.395073513765107,0.951840825,-0.09130836,0.335265255,28.52094,0.30519999999999997,13.291459999999999,67.0
1774823641.4252095,1.3113021850585938e-05,2026-03-29T22:34:01.425,2026-03-29T18:34:01.425,-21201.12,-44766.36,-76562.91,-48199.95,-8498.07,-16021.664999999999,8310.779999999999,-58388.939999999995,1.2104314681209987,1.7253511273885336,2.4285444026700196,4.70311641328284,4.50160497261171,3.4000557935474967,-0.3590809998902105,-0.5139708000868103,0.949277355,-0.1123044,0.33727941,59.40718,-0.62566,9.4612,67.0
1774823641.4252136,4.0531158447265625e-06,2026-03-29T22:34:01.425,2026-03-29T18:34:01.425,-21202.559999999998,-44769.96,-76567.00499999999,-48194.909999999996,-8491.095,-16016.939999999999,8308.305,-58384.89,0.8088492826793543,2.3226689552351947,4.935059780688579,9.18221670841731,7.867016054179851,3.601790905501794,-1.5253779796005145,-2.2678944921968327,0.949277355,-0.1123044,0.33727941,59.40718,-0.62566,9.4612,67.0
1774823641.4296415,0.004427909851074219,2026-03-29T22:34:01.429,2026-03-29T18:34:01.429,-21197.88,-44765.055,-76563.18,-48192.525,-8485.74,-16016.849999999999,8307.27,-58379.31,0.04302172239910096,1.8517911915946343,5.178535800292134,9.460337373312576,7.711930978145932,2.241252465490328,-1.9281974459190014,-3.005052944137386,0.949277355,-0.1123044,0.33727941,59.40718,-0.62566,9.4612,67.0
1774823641.4296603,1.8835067749023438e-05,2026-03-29T22:34:01.429,2026-03-29T18:34:01.429,-21198.87,-44763.705,-76560.705,-48199.68,-8488.44,-16017.885,8307.045,-58377.195,-0.7557445772734612,0.550253833000184,3.115231710698978,5.470505949325606,4.121438969136781,0.021039677264344255,-1.3213882127528116,-2.331042296631995,0.949277355,-0.1123044,0.33727941,59.40718,-0.62566,9.4612,67.0
1774823641.4334352,0.003774881362915039,2026-03-29T22:34:01.433,2026-03-29T18:34:01.433,-21198.915,-44764.424999999996,-76555.08,-48193.515,-8479.89,-16001.234999999999,8315.414999999999,-58373.549999999996,-1.2327911329609829,-0.9655252068006028,-0.25898044451646696,-0.9128413189789639,-1.2799763571026852,-2.0409843510784733,0.015489927365920654,-0.5201432106155064,0.949277355,-0.1123044,0.33727941,59.40718,-0.62566,9.4612,67.0
1774823641.4334643,2.9087066650390625e-05,2026-03-29T22:34:01.433,2026-03-29T18:34:01.433,-21201.93,-44764.29,-76549.36499999999,-48179.07,-8467.244999999999,-15987.555,8321.31,-58372.335,-1.1689010468642544,-2.000024724222294,-3.395367767611557,-6.7609406807870975,-6.068261156159926,-3.0806047814957496,1.4059519145860113,1.602466067868057,0.949277355,-0.1123044,0.33727941,59.40718,-0.62566,9.4612,67.0
1774823641.4382513,0.004786968231201172,2026-03-29T22:34:01.438,2026-03-29T18:34:01.438,-21200.895,-44762.22,-76551.84,-48188.564999999995,-8479.755,-16003.845,8320.545,-58368.195,-0.5832807533774478,-2.1045991073120462,-4.911760582253414,-9.444722733299844,-8.113761270909428,-2.745599743863673,2.1188705949212507,3.0440620002686956,0.949277355,-0.1123044,0.33727941,59.40718,-0.62566,9.4612,67.0
1774823641.4382677,1.6450881958007812e-05,2026-03-29T22:34:01.438,2026-03-29T18:34:01.438,-21199.68,-44761.095,-76554.09,-48193.875,-8488.17,-16014.824999999999,8316.045,-58367.61,0.2690178000815328,-1.2739306915361719,-4.207125814342746,-7.82576574236517,-6.533570823495842,-1.297846573011786,1.7508648787822725,3.1121955030366526,0.949277355,-0.1123044,0.33727941,59.40718,-0.62566,9.4612,67.0
1774823641.442306,0.004038333892822266,2026-03-29T22:34:01.442,2026-03-29T18:34:01.442,-21198.015,-44761.634999999995,-76558.31999999999,-48198.689999999995,-8499.735,-16032.914999999999,8306.82,-58368.78,1.0080590128817752,0.07369155197305123,-1.696236919285241,-2.741253263678516,-2.074706660865641,0.5583526370488597,0.44940473055757035,1.745180648295469,0.949277355,-0.1123044,0.33727941,59.40718,-0.62566,9.4612,67.0
1774823641.4423268,2.0742416381835938e-05,2026-03-29T22:34:01.442,2026-03-29T18:34:01.442,-21198.735,-44763.615,-76558.5,-48193.83,-8496.225,-16032.24,8310.824999999999,-58368.689999999995,1.3004063892009967,1.3114599638142803,1.424594224801868,3.4241613196168683,3.2388583287386923,2.0179532168483174,-1.144921135491333,-0.45162437116624954,0.949277355,-0.1123044,0.33727941,59.40718,-0.62566,9.4612,67.0
1774823641.4456353,0.003308534622192383,2026-03-29T22:34:01.445,2026-03-29T18:34:01.445,-21199.14,-44760.24,-76548.555,-48179.52,-8479.215,-16014.105,8317.395,-58367.97,1.0126210345291073,1.9021116953238517,3.751738236450948,7.862399050016392,7.028758300836081,2.521721866753153,-2.2151322022084345,-2.481620618030535,0.947934585,-0.108947475,0.33752355,76.10162,-0.88508,7.15694,67.0
1774823641.4456484,1.3113021850585938e-05,2026-03-29T22:34:01.445,2026-03-29T18:34:01.445,-21195.225,-44753.085,-76539.15,-48173.22,-8470.08,-16004.34,8314.92,-58363.829999999994,0.27448275480779394,1.6343975538337838,4.311256203624537,8.629955218564973,7.632721240125114,1.9605740950473092,-2.186168488415577,-3.415981626600945,0.947934585,-0.108947475,0.33752355,76.10162,-0.88508,7.15694,67.0
1774823641.4497976,0.004149198532104492,2026-03-29T22:34:01.449,2026-03-29T18:34:01.449,-21195.585,-44752.86,-76538.52,-48169.485,-8463.914999999999,-15998.13,8311.455,-58362.704999999994,-0.5794896607069068,0.6925110535718256,2.9676468733498886,5.505642416292114,4.839131442156008,0.6695907445004944,-1.030484582898552,-2.8217362083416684,0.947934585,-0.108947475,0.33752355,76.10162,-0.88508,7.15694,67.0
1774823641.4499247,0.0001270771026611328,2026-03-29T22:34:01.449,2026-03-29T18:34:01.449,-21196.079999999998,-44755.92,-76541.48999999999,-48172.59,-8471.789999999999,-16011.135,8309.88,-58357.35,-1.164245694588243,-0.46027933392831344,0.4329462287470114,0.036996670038656455,-0.041065728627954226,-0.7591743806127041,0.700313587600207,-0.9604333660899848,0.947934585,-0.108947475,0.33752355,76.10162,-0.88508,7.15694,67.0
1774823641.455738,0.0058133602142333984,2026-03-29T22:34:01.455,2026-03-29T18:34:01.455,-21196.8,-44759.384999999995,-76549.995,-48188.25,-8492.58,-16034.265,8309.475,-58354.65,-1.221949788124984,-1.313694798593562,-2.104122617086253,-5.222386775522675,-4.788602852660096,-1.7448168060534779,2.1412654318223554,1.3330014520781162,0.947934585,-0.108947475,0.33752355,76.10162,-0.88508,7.15694,67.0
1774823641.4557564,1.8358230590820312e-05,2026-03-29T22:34:01.455,2026-03-29T18:34:01.455,-21198.645,-44762.759999999995,-76558.05,-48197.295,-8496.81,-16033.185,8313.84,-58351.994999999995,-0.7391043658496091,-1.5402229077115877,-3.5382250097214443,-7.9102654038930975,-7.289186151292726,-1.9473371880157904,2.5479426729434946,3.032712117475057,0.947934585,-0.108947475,0.33752355,76.10162,-0.88508,7.15694,67.0
1774823641.459381,0.0036246776580810547,2026-03-29T22:34:01.459,2026-03-29T18:34:01.459,-21199.14,-44763.345,-76562.28,-48198.015,-8494.65,-16029.224999999999,8311.095,-58353.03,0.052203881993362934,-1.117398384724434,-3.3320957554356005,-6.924613352730477,-6.481879004799639,-1.3724709158306727,1.6798341148759641,3.3873587788275388,0.947934585,-0.108947475,0.33752355,76.10162,-0.88508,7.15694,67.0
1774823641.459412,3.0994415283203125e-05,2026-03-29T22:34:01.459,2026-03-29T18:34:01.459,-21204.675,-44768.52,-76560.61499999999,-48184.92,-8476.02,-16012.98,8310.15,-58356.0,0.7880928445034427,-0.2990743211180701,-1.7124482408422381,-2.877277403494471,-2.8144950644841815,-0.3275069278480064,-0.06396892243121768,2.2547414570930546,0.947934585,-0.108947475,0.33752355,76.10162,-0.88508,7.15694,67.0
1774823641.4621863,0.0027742385864257812,2026-03-29T22:34:01.462,2026-03-29T18:34:01.462,-21202.92,-44764.064999999995,-76556.745,-48179.295,-8477.19,-16024.32,8306.595,-58355.28,1.145225143822382,0.532010690276586,0.49099101617918506,2.2548923937747856,1.9919286615432665,0.7340379402629976,-1.8311475585791084,0.15548072484064623,0.947934585,-0.108947475,0.33752355,76.10162,-0.88508,7.15694,67.0
1774823641.462201,1.4781951904296875e-05,2026-03-29T22:34:01.462,2026-03-29T18:34:01.462,-21201.885,-44760.104999999996,-76547.565,-48167.865,-8475.164999999999,-16042.814999999999,8303.76,-58352.625,0.9877870627429507,1.0466017285530078,2.2645553123045996,6.091927740328839,5.750161632227845,1.403910140461719,-2.736118440901523,-1.97286309693691,0.947934585,-0.108947475,0.33752355,76.10162,-0.88508,7.15694,67.0
1774823641.4655888,0.0033876895904541016,2026-03-29T22:34:01.465,2026-03-29T18:34:01.465,-21197.34,-44753.805,-76543.33499999999,-48170.88,-8479.89,-16053.435,8296.695,-58349.115,0.41962638609258796,1.0978501298883794,2.8785308834465084,6.959108394816237,6.807397190965791,1.4692873203187164,-2.30497516170635,-3.2027744996585117,0.947812515,-0.07763652,0.339903915,64.15303999999999,-2.57894,4.715339999999999,67.0
1774823641.4656053,1.6450881958007812e-05,2026-03-29T22:34:01.465,2026-03-29T18:34:01.465,-21194.594999999998,-44753.49,-76544.86499999999,-48170.025,-8479.035,-16050.42,8284.275,-58347.225,-0.2792946930520687,0.7472497401706406,2.1875755397253402,4.62389547914845,4.779649597001458,0.970830104240658,-0.7211113865286202,-3.0271306290427966,0.947812515,-0.07763652,0.339903915,64.15303999999999,-2.57894,4.715339999999999,67.0
1774823641.469731,0.004125833511352539,2026-03-29T22:34:01.469,2026-03-29T18:34:01.469,-21191.309999999998,-44746.515,-76534.785,-48173.13,-8489.295,-16047.72,8294.67,-58342.634999999995,-0.7952786714343688,0.1953441494669681,0.6402970124807763,0.334771323511201,0.6902990451742969,0.15874441691376198,1.2549532895100994,-1.568682428081413,0.947812515,-0.07763652,0.339903915,64.15303999999999,-2.57894,4.715339999999999,67.0
1774823641.4697573,2.6226043701171875e-05,2026-03-29T22:34:01.469,2026-03-29T18:34:01.469,-21200.219999999998,-44755.424999999996,-76545.495,-48192.075,-8504.19,-16042.23,8312.895,-58345.064999999995,-0.9280738423586449,-0.3308018952298911,-0.9821356051307851,-3.827679683098413,-3.537235639665204,-0.6247262928194407,2.6553272676744393,0.49820933627348357,0.947812515,-0.07763652,0.339903915,64.15303999999999,-2.57894,4.715339999999999,67.0
1774823641.4732585,0.0035011768341064453,2026-03-29T22:34:01.473,2026-03-29T18:34:01.473,-21198.015,-44760.915,-76558.095,-48203.055,-8513.279999999999,-16042.769999999999,8313.93,-58343.085,-0.6706916494591868,-0.6710553018711485,-1.954800249820301,-5.956664818994031,-5.984723693731742,-1.0848668105853658,2.782131507742232,2.26682726978064,0.947812515,-0.07763652,0.339903915,64.15303999999999,-2.57894,4.715339999999999,67.0
1774823641.4732776,1.9073486328125e-05,2026-03-29T22:34:01.473,2026-03-29T18:34:01.473,-21197.204999999998,-44761.994999999995,-76550.715,-48188.295,-8493.255,-16021.17,8307.945,-58341.375,-0.18836333005395475,-0.7681176559011771,-1.933950826753812,-5.1970654959287605,-5.616054003291035,-1.0821419007116362,1.555398066363595,3.0045417184312138,0.947812515,-0.07763652,0.339903915,64.15303999999999,-2.57894,4.715339999999999,67.0
1774823641.4772828,0.0040051937103271484,2026-03-29T22:34:01.477,2026-03-29T18:34:01.477,-21201.3,-44769.015,-76563.495,-48196.89,-8489.115,-16011.224999999999,8306.055,-58339.979999999996,0.283001064572599,-0.6470729843798175,-1.0721931260045956,-2.089411402100392,-2.7221475207003003,-0.6704865605915095,-0.4421996956295387,2.4605349744800753,0.947812515,-0.07763652,0.339903915,64.15303999999999,-2.57894,4.715339999999999,67.0
1774823641.477296,1.33514404296875e-05,2026-03-29T22:34:01.477,2026-03-29T18:34:01.477,-21190.184999999998,-44765.955,-76567.68,-48200.04,-8487.404999999999,-16010.82,8310.06,-58328.775,0.5586021247749225,-0.3704518859002003,0.11106155033652641,1.758519012613346,1.2602907642474181,-0.057237292073648555,-2.247125339095284,0.9433375356904095,0.947812515,-0.07763652,0.339903915,64.15303999999999,-2.57894,4.715339999999999,67.0
1774823641.485217,0.007920980453491211,2026-03-29T22:34:01.485,2026-03-29T18:34:01.485,-21191.895,-44760.915,-76554.675,-48185.189999999995,-8474.4,-16002.09,8315.145,-58327.2,0.5814331948722516,-0.005765614465421645,1.0194808689434876,4.4877666180305855,4.4544860922307405,0.49410677726256935,-2.984666555033352,-0.8515470967281454,0.947812515,-0.07763652,0.339903915,64.15303999999999,-2.57894,4.715339999999999,67.0
1774823641.4852364,1.9311904907226562e-05,2026-03-29T22:34:01.485,2026-03-29T18:34:01.485,-21217.59,-44764.965,-76548.95999999999,-48181.994999999995,-8467.65,-15986.699999999999,8324.46,-58354.02,0.41932784875099127,0.3774973504141667,1.275499249355116,4.883343211210345,5.429940843451139,0.7758360602252165,-2.2952395114164705,-2.169405227121508,0.947812515,-0.07763652,0.339903915,64.15303999999999,-2.57894,4.715339999999999,67.0
1774823641.488394,0.0031576156616210938,2026-03-29T22:34:01.488,2026-03-29T18:34:01.488,-21206.655,-44762.174999999996,-76558.31999999999,-48194.909999999996,-8478.36,-16000.92,8322.975,-58346.145,0.19574042542009393,0.6933413186551196,0.8770069244161846,2.9184986500713643,3.849884240917798,0.7158876933227996,-0.5083295072097866,-2.5215257308081918,0.953305665,-0.06762678,0.35388093,44.574459999999995,1.2207999999999999,9.354379999999999,67.0
1774823641.488407,1.2874603271484375e-05,2026-03-29T22:34:01.488,2026-03-29T18:34:01.488,-21201.704999999998,-44765.415,-76563.855,-48193.92,-8470.485,-15991.064999999999,8330.76,-58335.884999999995,0.004547255619461322,0.836178713182171,0.1501681178127173,-0.2971210767713473,0.5836409599461183,0.39358650247223814,1.5195490243992351,-1.8638674579276744,0.953305665,-0.06762678,0.35388093,44.574459999999995,1.2207999999999999,9.354379999999999,67.0
1774823641.4884207,1.3828277587890625e-05,2026-03-29T22:34:01.488,2026-03-29T18:34:01.488,-21206.43,-44763.615,-76560.345,-48198.015,-8482.32,-16008.164999999999,8324.775,-58341.869999999995,-0.13602774721695293,0.7110697943914815,-0.4597959895687807,-3.114817468853901,-2.7519501130729354,-0.012185108280965152,2.821142910586098,-0.5647148023824621,0.953305665,-0.06762678,0.35388093,44.574459999999995,1.2207999999999999,9.354379999999999,67.0
1774823641.4884272,6.4373016357421875e-06,2026-03-29T22:34:01.488,2026-03-29T18:34:01.488,-21204.18,-44756.64,-76544.64,-48191.354999999996,-8490.735,-16025.805,8312.94,-58338.72,-0.26452822447560714,0.29205194043491145,-0.6389763752933975,-4.1777790702638855,-4.586768429585728,-0.31537810565737834,2.7840342630787474,0.800508782871698,0.953305665,-0.06762678,0.35388093,44.574459999999995,1.2207999999999999,9.354379999999999,67.0
1774823641.49358,0.00515294075012207,2026-03-29T22:34:01.493,2026-03-29T18:34:01.493,-21195.405,-44749.17,-76535.45999999999,-48182.445,-8486.1,-16027.92,8308.98,-58328.82,-0.41149431543206905,-0.32557079638919995,-0.3622460228003088,-3.0719203977020895,-4.139226078666017,-0.41028561648793527,1.4394235033048488,1.7142146797953048,0.953305665,-0.06762678,0.35388093,44.574459999999995,1.2207999999999999,9.354379999999999,67.0
1774823641.4936008,2.0742416381835938e-05,2026-03-29T22:34:01.493,2026-03-29T18:34:01.493,-21191.715,-44752.095,-76547.83499999999,-48191.805,-8491.005,-16035.84,8304.705,-58327.47,-0.5402384638987431,-0.9226749377339217,0.11985889343057866,-0.4852552267345294,-1.7537553718083632,-0.31181327783000407,-0.5623578671400276,1.914935249420148,0.953305665,-0.06762678,0.35388093,44.574459999999995,1.2207999999999999,9.354379999999999,67.0
1774823641.4979737,0.004372835159301758,2026-03-29T22:34:01.497,2026-03-29T18:34:01.497,-21190.545,-44757.945,-76557.645,-48197.115,-8493.66,-16033.994999999999,8307.72,-58323.6,-0.5432492758989159,-1.2270270915649202,0.4482595760696617,2.1845296866923145,1.3140815412214162,-0.13039003820894088,-2.2718525755282513,1.451247964606603,0.953305665,-0.06762678,0.35388093,44.574459999999995,1.2207999999999999,9.354379999999999,67.0
1774823641.4980028,2.9087066650390625e-05,2026-03-29T22:34:01.498,2026-03-29T18:34:01.498,-21190.14,-44760.24,-76558.36499999999,-48195.494999999995,-8488.89,-16024.769999999999,8310.824999999999,-58320.18,-0.3083025537340511,-1.0389016508170537,0.37767207215292736,3.561269410983585,3.5429047216106637,0.0024902205084958097,-2.896115062833344,0.5941067764709872,0.953305665,-0.06762678,0.35388093,44.574459999999995,1.2207999999999999,9.354379999999999,67.0
1774823641.506546,0.008543252944946289,2026-03-29T22:34:01.506,2026-03-29T18:34:01.506,-21188.745,-44759.475,-76556.79,-48200.22,-8492.895,-16028.279999999999,8310.51,-58313.88,0.1813445956732774,-0.35303647469713073,-0.0721358760307029,2.985937311332266,3.8948611177863475,0.01554143432713756,-2.168915358728649,-0.3218108062406066,0.953305665,-0.06762678,0.35388093,44.574459999999995,1.2207999999999999,9.354379999999999,67.0
1774823641.5065618,1.5735626220703125e-05,2026-03-29T22:34:01.506,2026-03-29T18:34:01.506,-21208.094999999998,-44762.985,-76550.67,-48186.765,-8480.115,-16018.785,8313.21,-58331.79,0.7803460350615499,0.5943024344187054,-0.621714683468587,0.8297885889027067,2.3014401988969024,-0.06102675841602332,-0.46161319515363364,-1.035788733292905,0.953305665,-0.06762678,0.35388093,44.574459999999995,1.2207999999999999,9.354379999999999,67.0
1774823641.5065763,1.4543533325195312e-05,2026-03-29T22:34:01.506,2026-03-29T18:34:01.506,-21212.19,-44761.095,-76546.395,-48178.17,-8472.42,-16013.115,8316.0,-58337.64,1.2071067637746689,1.3966530287544723,-0.8926011120387497,-1.7230640739637386,-0.343057686585764,-0.11922895647329307,1.4098794767057659,-1.4170286241279186,0.960629865,-0.070007145,0.36401274,30.886239999999997,1.31236,11.41448,67.0
1774823641.5065804,4.0531158447265625e-06,2026-03-29T22:34:01.506,2026-03-29T18:34:01.506,-21202.875,-44756.46,-76543.02,-48177.0,-8473.904999999999,-16018.38,8313.3,-58327.29,1.1713131391747977,1.6520813916310906,-0.6352493184250448,-3.303070979038222,-2.6619251088369316,-0.04978717556147161,2.580374707776998,-1.4383077071641566,0.960629865,-0.070007145,0.36401274,30.886239999999997,1.31236,11.41448,67.0
1774823641.5159993,0.009418964385986328,2026-03-29T22:34:01.515,2026-03-29T18:34:01.515,-21198.105,-44750.88,-76533.93,-48171.645,-8472.375,-16018.019999999999,8312.265,-58317.884999999995,0.5475699523545478,1.1661011193608875,0.1038857196882578,-3.0679823401161386,-3.4992899371443564,0.1734461063075031,2.5390618241291665,-1.1175495635138528,0.960629865,-0.070007145,0.36401274,30.886239999999997,1.31236,11.41448,67.0
1774823641.5160265,2.7179718017578125e-05,2026-03-29T22:34:01.516,2026-03-29T18:34:01.516,-21200.895,-44759.52,-76545.765,-48176.729999999996,-8472.869999999999,-16016.445,8313.21,-58315.454999999994,-0.5021421390556475,0.07977683752335193,0.9752601396578728,-1.1373755370230827,-2.4913798650416146,0.4545878273003791,1.351610718831248,-0.4883619960597587,0.960629865,-0.070007145,0.36401274,30.886239999999997,1.31236,11.41448,67.0
1774823641.5160508,2.4318695068359375e-05,2026-03-29T22:34:01.516,2026-03-29T18:34:01.516,-21204.27,-44765.549999999996,-76556.565,-48185.369999999995,-8480.34,-16023.33,8309.16,-58320.99,-1.5437222197027276,-1.1553129646842648,1.4940454324971837,1.4705407111629178,-0.22481137070755666,0.613323297777744,-0.3952086586404916,0.373200923569983,0.960629865,-0.070007145,0.36401274,30.886239999999997,1.31236,11.41448,67.0
1774823641.5160608,1.0013580322265625e-05,2026-03-29T22:34:01.516,2026-03-29T18:34:01.516,-21202.155,-44761.5,-76553.50499999999,-48191.759999999995,-8490.779999999999,-16035.029999999999,8306.73,-58319.055,-2.045508115901478,-1.9631054260982321,1.3016467171718966,3.3659710613703124,2.0873121871143003,0.48655672621203866,-1.8873389323275507,1.292940636705997,0.960629865,-0.070007145,0.36401274,30.886239999999997,1.31236,11.41448,67.0
1774823641.5160725,1.1682510375976562e-05,2026-03-29T22:34:01.516,2026-03-29T18:34:01.516,-21199.68,-44760.735,-76552.155,-48188.115,-8482.77,-16026.885,8312.31,-58314.735,-1.6447843880677404,-1.9143661327696062,0.3829993980765788,3.5092880415027192,3.2383677568324236,0.040688707914082085,-2.4669385732974067,1.9782960446424138,0.960629865,-0.070007145,0.36401274,30.886239999999997,1.31236,11.41448,67.0
1774823641.5160813,8.821487426757812e-06,2026-03-29T22:34:01.516,2026-03-29T18:34:01.516,-21201.12,-44761.814999999995,-76549.635,-48183.525,-8478.945,-16024.949999999999,8309.205,-58311.945,-0.37421689606121233,-0.9543155620641544,-0.883544542230137,1.759128115033259,2.645332572042741,-0.5730658459679757,-1.9231253989706893,2.0888500013664353,0.960629865,-0.070007145,0.36401274,30.886239999999997,1.31236,11.41448,67.0
1774823641.5255785,0.00949716567993164,2026-03-29T22:34:01.525,2026-03-29T18:34:01.525,-21201.344999999998,-44763.705,-76553.73,-48190.14,-8489.34,-16036.74,8306.145,-58311.72,1.2835797563287987,0.5338154919582181,-1.8850348263956527,-1.0350197401445231,0.6383776944109257,-1.0638793746586874,-0.5613671182676767,1.3969151242547162,0.960629865,-0.070007145,0.36401274,30.886239999999997,1.31236,11.41448,67.0
1774823641.525612,3.361701965332031e-05,2026-03-29T22:34:01.525,2026-03-29T18:34:01.525,-21201.434999999998,-44763.975,-76559.04,-48192.84,-8488.529999999999,-16035.255,8305.83,-58318.47,2.5711315602905556,1.877613393464151,-2.073741275046891,-3.44846122710418,-1.7192673176149813,-1.137873493859302,0.9664203628920643,-0.03398359304925523,0.960629865,-0.070007145,0.36401274,30.886239999999997,1.31236,11.41448,67.0
1774823641.529618,0.004005908966064453,2026-03-29T22:34:01.529,2026-03-29T18:34:01.529,-21198.329999999998,-44760.78,-76558.68,-48191.4,-8485.38,-16029.18,8313.75,-58319.729999999996,2.8023309910239034,2.4211950116783068,-1.2603978395591873,-4.200718706690757,-3.1844615754464076,-0.662503601776294,1.9773091721224696,-1.7657439538910065,0.96740475,-0.038024805,0.35839752,1.7549,2.9451799999999997,11.12454,67.0
1774823641.5296855,6.747245788574219e-05,2026-03-29T22:34:01.529,2026-03-29T18:34:01.529,-21198.42,-44760.6,-76555.215,-48189.375,-8490.779999999999,-16038.675,8310.465,-58321.35,1.7213323161566614,1.8478757632347762,0.25374110848909565,-2.8179606037895133,-2.9759202799163007,0.2298998962486745,2.0642921492042183,-3.086322516805617,0.96740475,-0.038024805,0.35839752,1.7549,2.9451799999999997,11.12454,67.0
1774823641.529706,2.0503997802734375e-05,2026-03-29T22:34:01.529,2026-03-29T18:34:01.529,-21195.809999999998,-44757.494999999995,-76551.165,-48186.674999999996,-8491.59,-16041.33,8305.785,-58319.189999999995,-0.3116184860086436,0.359940659974304,1.7870834969333702,0.09863096672515437,-1.1776261896602918,1.166356107894125,1.256212284492748,-3.295209318114725,0.96740475,-0.038024805,0.35839752,1.7549,2.9451799999999997,11.12454,67.0
1774823641.5297165,1.049041748046875e-05,2026-03-29T22:34:01.529,2026-03-29T18:34:01.529,-21196.079999999998,-44756.145,-76547.43,-48184.244999999995,-8487.36,-16038.18,8303.22,-58322.88,-2.424842235346297,-1.384572621056699,2.590896659104155,3.1422815457495212,1.3003971213730057,1.6904239567152952,-0.02962243441541349,-2.063712100686199,0.96740475,-0.038024805,0.35839752,1.7549,2.9451799999999997,11.12454,67.0
1774823641.535659,0.005942583084106445,2026-03-29T22:34:01.535,2026-03-29T18:34:01.535,-21195.719999999998,-44752.185,-76540.00499999999,-48183.03,-8486.055,-16039.215,8300.88,-58327.92,-3.610080433143108,-2.563495834873905,2.219187756192328,4.783710858320017,3.183261473184467,1.485736391129159,-1.203141276392069,0.3112019791355182,0.96740475,-0.038024805,0.35839752,1.7549,2.9451799999999997,11.12454,67.0
1774823641.5356688,9.775161743164062e-06,2026-03-29T22:34:01.535,2026-03-29T18:34:01.535,-21200.715,-44756.369999999995,-76542.525,-48177.63,-8477.685,-16036.65,8294.805,-58338.765,-3.2058400697206975,-2.580943947921257,0.7710437270953951,4.134422133857847,3.4803218825514173,0.5557022568641542,-1.7739600722727515,2.9223568917385814,0.96740475,-0.038024805,0.35839752,1.7549,2.9451799999999997,11.12454,67.0
1774823641.5374765,0.0018076896667480469,2026-03-29T22:34:01.537,2026-03-29T18:34:01.537,-21193.605,-44753.67,-76537.395,-48162.645,-8460.315,-16017.39,8295.345,-58342.545,-1.2560856808865277,-1.3696984473978904,-1.1244251998391046,1.4108663227928506,1.9937600396959023,-0.7396435821809988,-1.5541776903452549,4.585618946570812,0.96740475,-0.038024805,0.35839752,1.7549,2.9451799999999997,11.12454,67.0
1774823641.5374885,1.1920928955078125e-05,2026-03-29T22:34:01.537,2026-03-29T18:34:01.537,-21187.934999999998,-44759.295,-76551.93,-48181.409999999996,-8475.48,-16021.845,8302.095,-58343.939999999995,1.4470273798627356,0.5483813439387886,-2.5870858259230225,-2.1376791955245764,-0.570577866335399,-1.823738068487371,-0.7091379617830355,4.376731757690523,0.96740475,-0.038024805,0.35839752,1.7549,2.9451799999999997,11.12454,67.0
1774823641.5415368,0.004048347473144531,2026-03-29T22:34:01.541,2026-03-29T18:34:01.541,-21191.265,-44767.665,-76573.485,-48215.88,-8511.57,-16054.154999999999,8303.94,-58352.354999999996,3.6847459768516093,2.2863962505268276,-2.902729653460065,-4.813018103384219,-2.9471029549181926,-2.165915614311827,0.34971325312409157,2.128689617475025,0.96740475,-0.038024805,0.35839752,1.7549,2.9451799999999997,11.12454,67.0
1774823641.5415487,1.1920928955078125e-05,2026-03-29T22:34:01.541,2026-03-29T18:34:01.541,-21186.045,-44766.18,-76573.53,-48210.57,-8508.105,-16054.244999999999,8308.305,-58360.634999999995,4.367335956410412,3.005039134001458,-1.877162983027727,-5.286323038105519,-3.938100952960198,-1.5440069413025146,1.1652884598949205,-1.3725145971207442,0.96740475,-0.038024805,0.35839752,1.7549,2.9451799999999997,11.12454,67.0
1774823641.5456355,0.004086732864379883,2026-03-29T22:34:01.545,2026-03-29T18:34:01.545,-21190.454999999998,-44762.445,-76564.17,-48198.42,-8493.615,-16046.279999999999,8298.63,-58392.945,3.067342121173731,2.3205078827851806,0.0501977328149648,-3.254091155631876,-3.0123191120957498,-0.17552298919376422,1.430944709058521,-4.638789692604449,0.96337644,-0.03015129,0.354308175,-8.5456,0.07629999999999999,15.9467,67.0
1774823641.5456483,1.2874603271484375e-05,2026-03-29T22:34:01.545,2026-03-29T18:34:01.545,-21205.98,-44765.505,-76556.79,-48183.705,-8477.145,-16031.43,8298.72,-58439.744999999995,0.2678674749468396,0.5081780434129688,1.997758879669938,0.39085904877319605,-0.5766958709660125,1.356769439513652,1.0990063930985232,-6.112692253708448,0.96337644,-0.03015129,0.354308175,-8.5456,0.07629999999999999,15.9467,67.0
1774823641.5513809,0.005732536315917969,2026-03-29T22:34:01.551,2026-03-29T18:34:01.551,-21226.274999999998,-44778.015,-76547.745,-48156.975,-8453.295,-16009.244999999999,8307.63,-58492.665,-2.8126837884425178,-1.605488249008465,3.0536103360783504,3.963461295676676,2.2137394588631705,2.360526282085652,0.3677058418746759,-4.913439555686505,0.96337644,-0.03015129,0.354308175,-8.5456,0.07629999999999999,15.9467,67.0
1774823641.551397,1.621246337890625e-05,2026-03-29T22:34:01.551,2026-03-29T18:34:01.551,-21229.965,-44784.0,-76542.39,-48146.715,-8451.09,-16008.39,8310.06,-58556.43,-4.758289736511232,-3.0217920076830747,2.711871076701263,5.777487886582872,4.014122118031615,2.3550479211528703,-0.43062421944774254,-1.3372802862080335,0.96337644,-0.03015129,0.354308175,-8.5456,0.07629999999999999,15.9467,67.0
1774823641.5535696,0.0021724700927734375,2026-03-29T22:34:01.553,2026-03-29T18:34:01.553,-21224.204999999998,-44781.165,-76554.0,-48164.04,-8468.865,-16032.914999999999,8305.199999999999,-58625.28,-4.614487336788087,-3.044645449792222,1.1208645508921666,4.947120504721559,3.9419052322232275,1.304954347556937,-0.9791852861484006,3.163636649191876,0.96337644,-0.03015129,0.354308175,-8.5456,0.07629999999999999,15.9467,67.0
1774823641.5535865,1.6927719116210938e-05,2026-03-29T22:34:01.553,2026-03-29T18:34:01.553,-21209.67,-44763.165,-76556.655,-48182.759999999995,-8483.535,-16052.849999999999,8300.34,-58690.845,-2.3580313165287228,-1.6241065408448012,-0.9810290483397126,1.815395431201604,2.0046600723449397,-0.3492824880074017,-1.0976207450539917,6.567458767906232,0.96337644,-0.03015129,0.354308175,-8.5456,0.07629999999999999,15.9467,67.0
1774823641.5576932,0.004106760025024414,2026-03-29T22:34:01.557,2026-03-29T18:34:01.557,-21196.17,-44749.53,-76558.185,-48204.99,-8496.225,-16059.24,8301.24,-58757.22,1.055257238840775,0.6016683449691207,-2.6143931980359394,-2.1963952698650515,-0.9024083962873016,-1.8837890597359996,-0.7911297076264417,7.199817017159459,0.96337644,-0.03015129,0.354308175,-8.5456,0.07629999999999999,15.9467,67.0
1774823641.5577052,1.1920928955078125e-05,2026-03-29T22:34:01.557,2026-03-29T18:34:01.557,-21188.475,-44751.284999999996,-76561.245,-48202.56,-8490.33,-16040.385,8303.13,-58825.395,4.102372390092925,2.5945220107420717,-3.025111792245471,-5.247978078739046,-3.4240856684231322,-2.619072410824442,-0.2215376894499286,4.5620247666402305,0.96337644,-0.03015129,0.354308175,-8.5456,0.07629999999999999,15.9467,67.0
1774823641.5615191,0.0038139820098876953,2026-03-29T22:34:01.561,2026-03-29T18:34:01.561,-21177.809999999998,-44740.755,-76542.93,-48175.515,-8463.555,-16012.125,8308.574999999999,-58887.405,5.3837897040864435,3.4035668870558857,-2.041826277074439,-5.93610586498647,-4.387787880810789,-2.229483391593281,0.37430082775895984,-0.3415978207607101,0.96337644,-0.03015129,0.354308175,-8.5456,0.07629999999999999,15.9467,67.0
1774823641.561542,2.288818359375e-05,2026-03-29T22:34:01.561,2026-03-29T18:34:01.561,-21180.69,-44745.525,-76545.315,-48192.255,-8472.24,-16011.314999999999,8317.89,-58957.515,4.274280872186831,2.621311333593299,-0.1511009781233234,-3.9439714567126374,-3.351718377446043,-0.889123126344551,0.779042004942747,-5.375144103360835,0.96337644,-0.03015129,0.354308175,-8.5456,0.07629999999999999,15.9467,67.0
1774823641.568617,0.007075071334838867,2026-03-29T22:34:01.568,2026-03-29T18:34:01.568,-21182.76,-44747.909999999996,-76546.98,-48205.17,-8485.425,-16020.855,8319.735,-59029.965,1.2271667068005234,0.5885787784517147,1.7445359301471068,-0.18158651777175192,-0.8007847716569076,0.8123933888976149,0.8670198987011143,-8.21076310734858,0.95043702,-0.041320695,0.340758405,4.02864,-5.58516,14.45122,67.0
1774823641.5686483,3.123283386230469e-05,2026-03-29T22:34:01.568,2026-03-29T18:34:01.568,-21179.114999999998,-44742.825,-76533.97499999999,-48191.445,-8480.565,-16023.555,8315.55,-59099.67,-2.416210257554893,-1.7547724808581635,2.764900908416408,3.642700199197461,2.0937737195517143,2.1411197895665364,0.6347891834106298,-7.419151110200404,0.95043702,-0.041320695,0.340758405,4.02864,-5.58516,14.45122,67.0
1774823641.5735674,0.0049190521240234375,2026-03-29T22:34:01.573,2026-03-29T18:34:01.573,-21174.434999999998,-44738.729999999996,-76529.43,-48186.765,-8482.86,-16028.01,8316.27,-59168.88,-5.029034101199234,-3.3074796749048856,2.470887844989573,5.812397414589251,4.026669818212818,2.546869012694094,0.18859585485440417,-3.193767630162143,0.95043702,-0.041320695,0.340758405,4.02864,-5.58516,14.45122,67.0
1774823641.5735896,2.2172927856445312e-05,2026-03-29T22:34:01.573,2026-03-29T18:34:01.573,-21175.695,-44740.619999999995,-76529.52,-48180.33,-8480.025,-16028.595,8314.199999999999,-59251.005,-5.437096553541984,-3.3274791632155214,1.0601610962987396,5.382984916313152,4.156121013693645,1.8959435706532974,-0.30016058979535204,2.6600443315594213,0.95043702,-0.041320695,0.340758405,4.02864,-5.58516,14.45122,67.0
1774823641.579973,0.006383419036865234,2026-03-29T22:34:01.579,2026-03-29T18:34:01.579,-21175.965,-44741.52,-76531.95,-48175.65,-8473.994999999999,-16025.265,8313.66,-59333.534999999996,-3.4518072938862123,-1.7877762291398964,-0.7505616234490164,2.5931203464095307,2.4690749038643967,0.5072739035300774,-0.6549210780206369,7.5028011586987216,0.95043702,-0.041320695,0.340758405,4.02864,-5.58516,14.45122,67.0
1774823641.58,2.6941299438476562e-05,2026-03-29T22:34:01.579,2026-03-29T18:34:01.579,-21178.665,-44745.884999999995,-76537.17,-48177.18,-8473.365,-16024.769999999999,8312.31,-59411.34,0.046636278488033436,0.6037828272532239,-2.090756585048185,-1.2719953023064354,-0.24368982624544683,-1.0127042533077182,-0.7522301466328762,9.067811701386052,0.95043702,-0.041320695,0.340758405,4.02864,-5.58516,14.45122,67.0
1774823641.5800247,2.47955322265625e-05,2026-03-29T22:34:01.580,2026-03-29T18:34:01.580,-21175.739999999998,-44737.784999999996,-76520.87999999999,-48170.924999999996,-8469.585,-16020.63,8314.065,-59480.145,3.510997015556212,2.7329662541524775,-2.3622872044135494,-4.486370152218089,-2.772752309798699,-2.0479822111988204,-0.562644809505595,6.537859169468789,0.95043702,-0.041320695,0.340758405,4.02864,-5.58516,14.45122,67.0
1774823641.5800364,1.1682510375976562e-05,2026-03-29T22:34:01.580,2026-03-29T18:34:01.580,-21173.67,-44736.21,-76525.92,-48184.83,-8484.48,-16033.545,8313.21,-59546.52,5.424974323562055,3.601912223170422,-1.5147605834776723,-5.666822617851739,-4.042119745807285,-2.230360753811847,-0.16186931416942937,0.9731466398880012,0.95043702,-0.041320695,0.340758405,4.02864,-5.58516,14.45122,67.0
1774823641.5833092,0.0032727718353271484,2026-03-29T22:34:01.583,2026-03-29T18:34:01.583,-21178.98,-44746.83,-76534.73999999999,-48175.695,-8481.33,-16034.13,8307.135,-59597.009999999995,4.9759489810845885,2.7990827857320366,-0.039558926917046315,-4.373015757601885,-3.5704483089906707,-1.5645410218297615,0.2939799309361072,-5.134173030440231,0.95043702,-0.041320695,0.340758405,4.02864,-5.58516,14.45122,67.0
1774823641.5833225,1.33514404296875e-05,2026-03-29T22:34:01.583,2026-03-29T18:34:01.583,-21178.665,-44746.695,-76528.305,-48165.21,-8473.949999999999,-16025.715,8308.17,-59625.494999999995,2.3994256036537314,0.6938606802537793,1.3032199742470498,-1.261503353493135,-1.6421435662732078,-0.381456634321326,0.6245330703811452,-8.991519079669365,0.95043702,-0.041320695,0.340758405,4.02864,-5.58516,14.45122,67.0
1774823641.5926,0.009277582168579102,2026-03-29T22:34:01.592,2026-03-29T18:34:01.592,-21180.645,-44751.33,-76540.14,-48180.465,-8478.63,-16027.785,8310.24,-59592.915,-1.150696643106522,-1.7361963594501615,1.8770794497086933,2.2539530091933186,0.8656746039906256,0.8365436833939762,0.6954978967556955,-8.802783828160916,0.947080095,-0.057556005,0.33142005,25.07218,-7.2485,10.056339999999999,67.0
1774823641.5926137,1.3589859008789062e-05,2026-03-29T22:34:01.592,2026-03-29T18:34:01.592,-21181.005,-44752.095,-76542.03,-48189.509999999995,-8485.199999999999,-16034.67,8306.64,-59474.25,-4.132915058661414,-3.3633515514483285,1.4779732062933457,4.65801076712457,2.896398030495255,1.663009657072151,0.47637902912547364,-4.619355788598596,0.947080095,-0.057556005,0.33142005,25.07218,-7.2485,10.056339999999999,67.0
1774823641.5926268,1.3113021850585938e-05,2026-03-29T22:34:01.592,2026-03-29T18:34:01.592,-21182.715,-44756.145,-76547.97,-48190.14,-8485.83,-16038.494999999999,8305.47,-59360.579999999994,-5.299336729302213,-3.436379399628048,0.4069133822504629,4.995599245854449,3.6666801305579186,1.8726547317467048,0.05908711481239103,1.664449801239701,0.947080095,-0.057556005,0.33142005,25.07218,-7.2485,10.056339999999999,67.0
1774823641.5926335,6.67572021484375e-06,2026-03-29T22:34:01.592,2026-03-29T18:34:01.592,-21191.535,-44762.939999999995,-76552.605,-48185.415,-8483.715,-16036.47,8303.355,-59262.615,-4.22039100124068,-1.928276448613098,-0.7197680645175696,3.247010916233218,2.96113124089861,1.4767773207177481,-0.37578079133199016,7.179629296149322,0.947080095,-0.057556005,0.33142005,25.07218,-7.2485,10.056339999999999,67.0
1774823641.592641,7.62939453125e-06,2026-03-29T22:34:01.592,2026-03-29T18:34:01.592,-21194.145,-44764.244999999995,-76558.05,-48188.07,-8486.369999999999,-16039.26,8299.215,-59164.29,-1.4309737139773195,0.45649180336528733,-1.3123127847343885,0.27140382637009636,1.162334797589508,0.6628340596829603,-0.6355004344941415,9.411738200204484,0.947080095,-0.057556005,0.33142005,25.07218,-7.2485,10.056339999999999,67.0
1774823641.5926473,6.198883056640625e-06,2026-03-29T22:34:01.592,2026-03-29T18:34:01.592,-21192.795,-44762.13,-76554.45,-48190.77,-8489.43,-16043.265,8292.914999999999,-59072.22,1.8444097251695761,2.6152026982421583,-1.116271460170157,-2.6234589125574943,-0.963370515349155,-0.30606999669055196,-0.6030195557709777,7.366658099446504,0.947080095,-0.057556005,0.33142005,25.07218,-7.2485,10.056339999999999,67.0
1774823641.5979276,0.005280256271362305,2026-03-29T22:34:01.597,2026-03-29T18:34:01.597,-21185.954999999998,-44755.74,-76543.515,-48189.33,-8488.755,-16042.59,8296.244999999999,-58986.54,4.242765964571748,3.561032128316706,-0.3265689858982938,-4.266871672757302,-2.603206548921354,-1.1739532593080897,-0.2948578098541435,2.0238270057195833,0.947080095,-0.057556005,0.33142005,25.07218,-7.2485,10.056339999999999,67.0
1774823641.5979457,1.811981201171875e-05,2026-03-29T22:34:01.597,2026-03-29T18:34:01.597,-21188.07,-44758.755,-76552.65,-48202.965,-8495.595,-16046.414999999999,8296.154999999999,-58914.854999999996,4.835451368738469,2.8763594317048398,0.5464124406221642,-4.09911897863368,-3.2048682586896446,-1.73120781648642,0.14175860188882417,-4.1343236122778135,0.947080095,-0.057556005,0.33142005,25.07218,-7.2485,10.056339999999999,67.0
1774823641.602036,0.004090309143066406,2026-03-29T22:34:01.602,2026-03-29T18:34:01.602,-21188.88,-44759.52,-76552.245,-48201.93,-8493.345,-16045.154999999999,8298.404999999999,-58844.835,3.4789480686305874,0.8958458277783169,0.9780119531637949,-2.3417117508683347,-2.6392255243796074,-1.8249754140807735,0.4958543424321725,-8.289739488988154,0.947080095,-0.057556005,0.33142005,25.07218,-7.2485,10.056339999999999,67.0
1774823641.6020622,2.6226043701171875e-05,2026-03-29T22:34:01.602,2026-03-29T18:34:01.602,-21190.68,-44762.085,-76554.675,-48200.939999999995,-8495.19,-16053.48,8292.06,-58780.799999999996,0.8159084720592767,-1.4603788591812266,0.7285834324372291,0.17513736152318224,-1.1857550674544444,-1.3752525317608444,0.5947229815256807,-8.597740164780442,0.947080095,-0.057556005,0.33142005,25.07218,-7.2485,10.056339999999999,67.0
1774823641.606048,0.003985881805419922,2026-03-29T22:34:01.606,2026-03-29T18:34:01.606,-21194.594999999998,-44765.055,-76557.465,-48200.13,-8494.065,-16053.074999999999,8291.61,-58723.515,-2.04134439240442,-3.118991878567383,-0.024468614789813294,2.4138551510491326,0.615721145604721,-0.417190424279157,0.39152769921492264,-5.021109001854153,0.95251221,-0.068176095,0.32745277500000003,40.316919999999996,-6.83648,3.92182,67.0
1774823641.6060681,2.002716064453125e-05,2026-03-29T22:34:01.606,2026-03-29T18:34:01.606,-21190.815,-44759.924999999996,-76552.02,-48195.81,-8488.17,-16045.47,8296.515,-58665.15,-3.9840584783169137,-3.345915551694644,-0.7940233728906645,3.562063181481663,2.165141443190561,0.8476470483790635,-0.00732521058857736,0.6945102401901135,0.95251221,-0.068176095,0.32745277500000003,40.316919999999996,-6.83648,3.92182,67.0
1774823641.6113954,0.0053272247314453125,2026-03-29T22:34:01.611,2026-03-29T18:34:01.611,-21186.765,-44754.57,-76543.875,-48186.09,-8479.845,-16038.81,8295.21,-58611.825,-4.331199418938084,-2.0712669832415247,-1.069765191399162,3.3137031925769778,2.9799231243387454,2.0410871752278084,-0.39269362252327716,5.8755134564346525,0.95251221,-0.068176095,0.32745277500000003,40.316919999999996,-6.83648,3.92182,67.0
1774823641.6114182,2.288818359375e-05,2026-03-29T22:34:01.611,2026-03-29T18:34:01.611,-21188.07,-44759.25,-76551.48,-48192.705,-8489.16,-16049.654999999999,8295.345,-58565.115,-3.045438542640623,0.09710605701136209,-0.623775309975981,1.9092577032647726,2.8113562388150664,2.6886527641044182,-0.5590073385136274,8.185260324113077,0.95251221,-0.068176095,0.32745277500000003,40.316919999999996,-6.83648,3.92182,67.0
1774823641.6202145,0.008796215057373047,2026-03-29T22:34:01.620,2026-03-29T18:34:01.620,-21193.469999999998,-44767.259999999995,-76558.77,-48195.674999999996,-8486.505,-16040.519999999999,8297.91,-58521.689999999995,-0.6866569343567192,2.1678998971046606,0.33808159739374755,-0.0374263127887629,1.6950510839005193,2.396820070351034,-0.41336236711848046,6.6943610850128215,0.95251221,-0.068176095,0.32745277500000003,40.316919999999996,-6.83648,3.92182,67.0
1774823641.6202433,2.8848648071289062e-05,2026-03-29T22:34:01.620,2026-03-29T18:34:01.620,-21186.945,-44760.465,-76549.72499999999,-48192.345,-8485.38,-16042.635,8289.99,-58474.305,1.8427152673503426,3.224093795074658,1.270346064174894,-1.8151207241197416,-0.0556015995474573,1.0674881256699127,-0.02958706703328864,2.2590237303425784,0.95251221,-0.068176095,0.32745277500000003,40.316919999999996,-6.83648,3.92182,67.0
1774823641.6202738,3.0517578125e-05,2026-03-29T22:34:01.620,2026-03-29T18:34:01.620,-21181.68,-44759.97,-76550.715,-48191.354999999996,-8486.145,-16041.96,8292.96,-58428.405,3.6395269799472882,2.8306598252114292,1.584892966441419,-2.866465164796977,-1.9106116848267063,-0.9601191302162498,0.38466777791419604,-2.9484272831387965,0.95251221,-0.068176095,0.32745277500000003,40.316919999999996,-6.83648,3.92182,67.0
1774823641.6202931,1.9311904907226562e-05,2026-03-29T22:34:01.620,2026-03-29T18:34:01.620,-21186.809999999998,-44773.2,-76571.37,-48208.725,-8502.119999999999,-16055.91,8293.095,-58395.195,4.101018019954024,1.2101695715675356,0.9929847703456738,-2.9304189782073684,-3.245851048621261,-2.9460563558627224,0.5949970594730127,-6.506373354208757,0.95251221,-0.068176095,0.32745277500000003,40.316919999999996,-6.83648,3.92182,67.0
1774823641.6287813,0.008488178253173828,2026-03-29T22:34:01.628,2026-03-29T18:34:01.628,-21188.79,-44772.165,-76564.62,-48202.47,-8500.86,-16061.13,8288.955,-58364.055,3.0975566179181864,-0.8826525144591422,-0.29761773159219074,-2.0608186178643435,-3.5246178149014287,-4.000894806452834,0.4678712497886176,-6.882646361191789,0.95251221,-0.068176095,0.32745277500000003,40.316919999999996,-6.83648,3.92182,67.0
1774823641.6288025,2.1219253540039062e-05,2026-03-29T22:34:01.628,2026-03-29T18:34:01.628,-21185.864999999998,-44771.22,-76562.64,-48199.049999999996,-8500.68,-16061.265,8293.635,-58331.564999999995,0.9869740389055254,-2.517266447468022,-1.6503286267746242,-0.5592842094457663,-2.503849286716344,-3.4775691630642953,0.050773090251678026,-4.104397333848844,0.95251221,-0.068176095,0.32745277500000003,40.316919999999996,-6.83648,3.92182,67.0
1774823641.6288607,5.817413330078125e-05,2026-03-29T22:34:01.628,2026-03-29T18:34:01.628,-21184.155,-44776.395,-76571.325,-48200.354999999996,-8497.89,-16057.26,8290.125,-58299.255,-1.5117451243361308,-3.0041646551723775,-2.313242386039013,1.1252858113175936,-0.3910950321459209,-1.3342129885240497,-0.44177993469515187,0.3380442571701268,0.9494604600000001,-0.05358873,0.32641518,31.435599999999997,-11.429739999999999,5.27996,67.0
1774823641.6288683,7.62939453125e-06,2026-03-29T22:34:01.628,2026-03-29T18:34:01.628,-21193.2,-44776.395,-76567.72499999999,-48193.47,-8479.619999999999,-16035.57,8290.44,-58274.865,-3.540983625849107,-2.1840373985560375,-1.8240868959784977,2.4991722099710434,2.137770620882836,1.7252728353130011,-0.7348837268522473,4.273246869408811,0.9494604600000001,-0.05358873,0.32641518,31.435599999999997,-11.429739999999999,5.27996,67.0
1774823641.6288772,8.821487426757812e-06,2026-03-29T22:34:01.628,2026-03-29T18:34:01.628,-21183.12,-44761.229999999996,-76553.955,-48195.134999999995,-8482.185,-16034.715,8297.01,-58237.064999999995,-4.367953602677278,-0.46889872325196635,-0.2929177406397144,3.126388252782095,4.117805145309924,4.4502386896362705,-0.6407308988528054,5.912062497484289,0.9494604600000001,-0.05358873,0.32641518,31.435599999999997,-11.429739999999999,5.27996,67.0
1774823641.6288836,6.4373016357421875e-06,2026-03-29T22:34:01.628,2026-03-29T18:34:01.628,-21183.524999999998,-44763.57,-76554.81,-48199.725,-8492.67,-16050.15,8294.22,-58208.445,-3.627649066108053,1.3677554473636857,1.5992115637660658,2.740009722379997,4.6480916469222375,5.546217037059758,-0.16949206627537938,4.670562193547965,0.9494604600000001,-0.05358873,0.32641518,31.435599999999997,-11.429739999999999,5.27996,67.0
1774823641.6381104,0.009226799011230469,2026-03-29T22:34:01.638,2026-03-29T18:34:01.638,-21177.405,-44759.52,-76548.69,-48199.634999999995,-8498.115,-16059.824999999999,8285.13,-58177.395,-1.4782722393969445,2.5438759917181315,2.906411504737327,1.3521650730112453,3.298271878397371,4.284209175168593,0.45924422031960155,1.3701135181410644,0.9494604600000001,-0.05358873,0.32641518,31.435599999999997,-11.429739999999999,5.27996,67.0
1774823641.6381216,1.1205673217773438e-05,2026-03-29T22:34:01.638,2026-03-29T18:34:01.638,-21172.995,-44756.46,-76542.345,-48189.33,-8492.175,-16057.125,8288.145,-58151.835,1.3941670436327696,2.6019893984796236,2.889801174843141,-0.6807181938599167,0.3865697392099258,0.9318234229200285,0.9178645910900796,-2.2492075725946252,0.9494604600000001,-0.05358873,0.32641518,31.435599999999997,-11.429739999999999,5.27996,67.0
1774823641.6381404,1.8835067749023438e-05,2026-03-29T22:34:01.638,2026-03-29T18:34:01.638,-21167.954999999998,-44756.189999999995,-76542.93,-48182.49,-8482.275,-16043.265,8303.265,-58123.89,3.9574798234254147,1.5806460350001161,1.4198842720074747,-2.698069367002911,-3.033469780602607,-3.2333156566664876,0.9385091174045664,-4.429674753532428,0.9494604600000001,-0.05358873,0.32641518,31.435599999999997,-11.429739999999999,5.27996,67.0
1774823641.6381457,5.245208740234375e-06,2026-03-29T22:34:01.638,2026-03-29T18:34:01.638,-21168.45,-44764.695,-76558.23,-48193.965,-8487.63,-16035.029999999999,8314.875,-58102.515,5.177851657385834,-0.03631365380347677,-0.904515601142172,-3.9173432693996704,-5.530851159540079,-6.394412238781897,0.4620521069661103,-4.250458932135757,0.9494604600000001,-0.05358873,0.32641518,31.435599999999997,-11.429739999999999,5.27996,67.0
1774823641.6448574,0.006711721420288086,2026-03-29T22:34:01.644,2026-03-29T18:34:01.644,-21166.739999999998,-44763.93,-76555.89,-48193.92,-8498.565,-16056.09,8303.715,-58082.805,4.42848003086242,-1.552704313576826,-3.0015702967534326,-3.729099667372622,-5.892051780536003,-6.986450949979283,-0.3125254490658702,-2.019782169178386,0.9494604600000001,-0.05358873,0.32641518,31.435599999999997,-11.429739999999999,5.27996,67.0
1774823641.6448753,1.7881393432617188e-05,2026-03-29T22:34:01.644,2026-03-29T18:34:01.644,-21172.23,-44765.909999999996,-76556.25,-48186.99,-8493.255,-16055.279999999999,8289.315,-58070.564999999995,1.805600758492664,-2.3614774933500535,-3.8148368886442197,-1.9986357096158804,-3.7079634957690857,-4.4640532534825486,-1.011517809410272,0.963534175918415,0.9494604600000001,-0.05358873,0.32641518,31.435599999999997,-11.429739999999999,5.27996,67.0
1774823641.6448925,1.71661376953125e-05,2026-03-29T22:34:01.644,2026-03-29T18:34:01.644,-21173.489999999998,-44762.715,-76562.685,-48190.005,-8483.985,-16034.849999999999,8294.58,-58062.375,-1.8054217731815103,-2.1834465889718637,-2.843629842534384,0.7740337697104859,0.3301056501200018,0.3278723013582536,-1.2677054066680205,3.1271295548928975,0.948056655,-0.045593145,0.32311929,12.37586,-15.107399999999998,6.83648,67.0
1774823641.6448996,7.152557373046875e-06,2026-03-29T22:34:01.644,2026-03-29T18:34:01.644,-21162.465,-44750.52,-76541.4,-48182.805,-8478.09,-16018.154999999999,8307.0,-58048.155,-4.994283702221222,-1.1518276597560375,-0.4296651003499646,3.553503859168739,4.610178937854694,5.404486435914215,-0.9109254101096413,3.437425391256866,0.948056655,-0.045593145,0.32311929,12.37586,-15.107399999999998,6.83648,67.0
1774823641.6496315,0.004731893539428711,2026-03-29T22:34:01.649,2026-03-29T18:34:01.649,-21153.555,-44743.14,-76531.275,-48185.055,-8482.095,-16031.564999999999,8304.57,-58048.47,-6.363596984417505,0.27537493676173674,2.3573898867090564,5.140517333924575,7.234472639735191,8.458907836536515,-0.06951293217756359,1.8932227086311977,0.948056655,-0.045593145,0.32311929,12.37586,-15.107399999999998,6.83648,67.0
1774823641.6496508,1.9311904907226562e-05,2026-03-29T22:34:01.649,2026-03-29T18:34:01.649,-21155.895,-44756.145,-76558.905,-48204.27,-8488.574999999999,-16041.555,8295.93,-58055.715,-5.1428822890963435,1.5214495796600318,4.200349411599804,4.69124485417712,6.864464698442529,7.91350733967779,0.8749557601417033,-0.5350911865722149,0.948056655,-0.045593145,0.32311929,12.37586,-15.107399999999998,6.83648,67.0
1774823641.6539643,0.004313468933105469,2026-03-29T22:34:01.653,2026-03-29T18:34:01.653,-21148.38,-44754.479999999996,-76555.44,-48205.979999999996,-8493.164999999999,-16044.255,8299.035,-58050.09,-1.6082512918309702,2.121643971640459,4.162222349657318,2.1587764931472075,3.398423950795075,3.7244730568351616,1.464353998146622,-2.4656021694720147,0.948056655,-0.045593145,0.32311929,12.37586,-15.107399999999998,6.83648,67.0
1774823641.6539924,2.8133392333984375e-05,2026-03-29T22:34:01.653,2026-03-29T18:34:01.653,-21145.094999999998,-44756.009999999995,-76550.94,-48197.205,-8491.815,-16051.095,8294.76,-58046.04,2.9162262969760153,1.8875872211368363,2.15976587716907,-1.5716166165235506,-1.8598016083818336,-2.466940492266452,1.3886555465032824,-2.8559201922893793,0.948056655,-0.045593145,0.32311929,12.37586,-15.107399999999998,6.83648,67.0
1774823641.657968,0.003975629806518555,2026-03-29T22:34:01.657,2026-03-29T18:34:01.657,-21140.774999999998,-44748.765,-76540.68,-48195.225,-8488.529999999999,-16050.734999999999,8289.494999999999,-58049.189999999995,6.535043984319329,0.9525974386753682,-0.9555403976631344,-4.967539850599901,-6.674175056704866,-7.965461509857701,0.6470191988180163,-1.548568397091731,0.948056655,-0.045593145,0.32311929,12.37586,-15.107399999999998,6.83648,67.0
1774823641.6579957,2.765655517578125e-05,2026-03-29T22:34:01.657,2026-03-29T18:34:01.657,-21151.665,-44743.455,-76531.14,-48186.72,-8480.925,-16041.42,8291.789999999999,-58078.485,7.5757918936686615,-0.30335964326395093,-3.7647508101071563,-6.4780443407361155,-8.830351398965377,-10.199811886883834,-0.43820033638814626,0.6687899742661312,0.948056655,-0.045593145,0.32311929,12.37586,-15.107399999999998,6.83648,67.0
1774823641.662196,0.0042002201080322266,2026-03-29T22:34:01.662,2026-03-29T18:34:01.662,-21148.739999999998,-44747.82,-76540.68,-48191.939999999995,-8483.895,-16041.24,8299.485,-58116.465,5.368821092769558,-1.407457180412233,-4.936130114425186,-5.248720313837701,-7.162207880631094,-7.931349644818388,-1.3665518477307763,2.5094331251845805,0.948056655,-0.045593145,0.32311929,12.37586,-15.107399999999998,6.83648,67.0
1774823641.6622255,2.956390380859375e-05,2026-03-29T22:34:01.662,2026-03-29T18:34:01.662,-21157.29,-44757.494999999995,-76551.525,-48198.555,-8488.44,-16040.835,8304.615,-58154.579999999994,0.6453372413251353,-1.9648106846862772,-3.86147581600018,-1.590571055091161,-2.1715654897537546,-1.9226281124599032,-1.6961979395877733,2.8964905643600707,0.948056655,-0.045593145,0.32311929,12.37586,-15.107399999999998,6.83648,67.0
1774823641.674261,0.012035608291625977,2026-03-29T22:34:01.674,2026-03-29T18:34:01.674,-21160.215,-44759.88,-76554.045,-48199.365,-8487.315,-16039.845,8306.145,-58174.11,-4.672618669604657,-1.7888527552475577,-0.967776016278838,3.049679415330037,4.084490044210146,5.288723581904878,-1.2574967128367043,1.556319048895454,0.948178725,-0.055358745,0.31487956500000003,4.1964999999999995,-18.937659999999997,8.392999999999999,67.0
1774823641.6742795,1.8358230590820312e-05,2026-03-29T22:34:01.674,2026-03-29T18:34:01.674,-21168.27,-44759.115,-76548.105,-48184.11,-8472.42,-16031.925,8303.535,-58194.225,-8.251143864942154,-0.9548166284543897,2.4541832471083995,6.655747823603655,8.84066685346301,10.463451978811069,-0.2383398169919205,-0.8191346323779771,0.948178725,-0.055358745,0.31487956500000003,4.1964999999999995,-18.937659999999997,8.392999999999999,67.0
1774823641.6742976,1.811981201171875e-05,2026-03-29T22:34:01.674,2026-03-29T18:34:01.674,-21163.815,-44754.93,-76540.59,-48180.15,-8471.835,-16035.84,8300.205,-58210.784999999996,-8.378832842576717,0.23327790860739855,4.834624442311006,7.526497745382106,9.857286723586535,11.127570508892461,0.9015284324913976,-2.92967125231609,0.948178725,-0.055358745,0.31487956500000003,4.1964999999999995,-18.937659999999997,8.392999999999999,67.0
1774823641.6743028,5.245208740234375e-06,2026-03-29T22:34:01.674,2026-03-29T18:34:01.674,-21157.2,-44752.59,-76540.59,-48195.765,-8493.66,-16056.404999999999,8295.345,-58259.61,-4.793381452588229,1.3474316975527005,5.054007217758495,5.087108658609217,6.4853197748249265,6.763546172245013,1.6460019042330924,-3.559554448644141,0.948178725,-0.055358745,0.31487956500000003,4.1964999999999995,-18.937659999999997,8.392999999999999,67.0
1774823641.6743104,7.62939453125e-06,2026-03-29T22:34:01.674,2026-03-29T18:34:01.674,-21152.024999999998,-44750.88,-76540.68,-48198.78,-8497.71,-16055.955,8301.96,-58302.63,1.1027150102253027,1.9798050589032243,2.9738169546299367,0.23594625431337513,0.05145702255737176,-0.8514591649464865,1.6632962011189458,-2.2431361440160553,0.948178725,-0.055358745,0.31487956500000003,4.1964999999999995,-18.937659999999997,8.392999999999999,67.0
1774823641.6743166,6.198883056640625e-06,2026-03-29T22:34:01.674,2026-03-29T18:34:01.674,-21139.92,-44743.185,-76537.75499999999,-48197.34,-8494.244999999999,-16049.564999999999,8302.185,-58318.604999999996,6.782065803440288,1.8836603183460368,-0.4847973454791234,-4.97228978297508,-6.65613222304819,-8.36431168751391,0.956103454905006,0.44994171522127707,0.948178725,-0.055358745,0.31487956500000003,4.1964999999999995,-18.937659999999997,8.392999999999999,67.0
1774823641.6778233,0.0035066604614257812,2026-03-29T22:34:01.677,2026-03-29T18:34:01.677,-21138.885,-44739.54,-76532.175,-48189.42,-8486.369999999999,-16044.029999999999,8299.215,-58330.439999999995,9.685317779882258,1.0672116809720116,-3.7568379621213475,-8.203850413681588,-10.606988395381535,-12.334671683979495,-0.14831863764879197,3.1703400449520607,0.948178725,-0.055358745,0.31487956500000003,4.1964999999999995,-18.937659999999997,8.392999999999999,67.0
1774823641.6778467,2.3365020751953125e-05,2026-03-29T22:34:01.677,2026-03-29T18:34:01.677,-21149.055,-44753.085,-76541.58,-48190.095,-8490.69,-16054.064999999999,8300.115,-58342.32,8.390073663316922,-0.19414368206419888,-5.352511546408657,-7.905982805838358,-9.91473403231647,-10.827924423824056,-1.158307630231543,4.466785682363432,0.948178725,-0.055358745,0.31487956500000003,4.1964999999999995,-18.937659999999997,8.392999999999999,67.0
1774823641.6824572,0.004610538482666016,2026-03-29T22:34:01.682,2026-03-29T18:34:01.682,-21157.605,-44761.229999999996,-76546.44,-48189.375,-8487.27,-16053.345,8301.285,-58356.45,3.314521112175871,-1.44023631170612,-4.544222848114759,-4.061595836142182,-4.748589541584486,-4.367099167747142,-1.6463516500701552,3.5450185680443824,0.948178725,-0.055358745,0.31487956500000003,4.1964999999999995,-18.937659999999997,8.392999999999999,67.0
1774823641.6824703,1.3113021850585938e-05,2026-03-29T22:34:01.682,2026-03-29T18:34:01.682,-21160.485,-44754.57,-76537.665,-48176.369999999995,-8470.8,-16036.74,8300.654999999999,-58370.445,-3.395613075551011,-2.185156389001981,-1.7006597968829662,1.73224972341093,2.6754691345969057,4.22883881280707,-1.4352067837228195,0.7162679253472067,0.948178725,-0.055358745,0.31487956500000003,4.1964999999999995,-18.937659999999997,8.392999999999999,67.0
1774823641.6856983,0.0032279491424560547,2026-03-29T22:34:01.685,2026-03-29T18:34:01.685,-21156.93,-44751.104999999996,-76537.08,-48170.52,-8463.06,-16027.92,8300.16,-58373.415,-8.781200840840244,-2.1030475068234242,1.8867038546986599,6.931436779885333,9.052820776793839,11.08382618270793,-0.6575493347276719,-2.7067697135633164,0.9462866400000001,-0.0781248,0.301696005,8.316699999999999,-22.99682,4.79164,67.0
1774823641.6857152,1.6927719116210938e-05,2026-03-29T22:34:01.685,2026-03-29T18:34:01.685,-21154.005,-44755.064999999995,-76546.125,-48180.195,-8473.455,-16034.58,8303.895,-58374.585,-10.392351796850688,-1.1714981466491043,4.600879972942412,9.177426608004419,11.480348980252554,13.033061397873874,0.32847759021034745,-5.031748781390753,0.9462866400000001,-0.0781248,0.301696005,8.316699999999999,-22.99682,4.79164,67.0
1774823641.6914356,0.005720376968383789,2026-03-29T22:34:01.691,2026-03-29T18:34:01.691,-21145.95,-44752.229999999996,-76541.67,-48182.895,-8476.425,-16038.72,8306.82,-58380.119999999995,-7.419935985607223,0.29115614085611513,5.239415991025179,7.383963035551859,8.798037219626476,9.105215460202233,1.1151883242321705,-5.026582605559869,0.9462866400000001,-0.0781248,0.301696005,8.316699999999999,-22.99682,4.79164,67.0
1774823641.69145,1.4543533325195312e-05,2026-03-29T22:34:01.691,2026-03-29T18:34:01.691,-21146.445,-44755.695,-76547.295,-48190.77,-8478.494999999999,-16039.305,8305.785,-58402.979999999996,-1.105170058522431,1.724175634115778,3.5533181817786064,2.269237095280749,2.1527347306871274,1.0147826134647289,1.4217003269057213,-2.5591946803672485,0.9462866400000001,-0.0781248,0.301696005,8.316699999999999,-22.99682,4.79164,67.0
1774823641.6941807,0.0027306079864501953,2026-03-29T22:34:01.694,2026-03-29T18:34:01.694,-21150.989999999998,-44755.965,-76541.44499999999,-48181.14,-8467.425,-16030.26,8316.135,-58425.659999999996,5.781830435115275,2.534410258534506,0.3402436504633329,-3.930515198669206,-5.49443737242858,-7.5888150912023935,1.1900982957256094,1.2907849782947034,0.9462866400000001,-0.0781248,0.301696005,8.316699999999999,-22.99682,4.79164,67.0
1774823641.694199,1.8358230590820312e-05,2026-03-29T22:34:01.694,2026-03-29T18:34:01.694,-21146.399999999998,-44753.85,-76541.805,-48189.96,-8479.529999999999,-16042.545,8310.69,-58440.24,10.174231529237604,2.341940432494498,-2.94080260599341,-8.45283751574882,-10.705072730048506,-12.78630908215581,0.5703274492885952,4.719212742826985,0.9462866400000001,-0.0781248,0.301696005,8.316699999999999,-22.99682,4.79164,67.0
1774823641.6979237,0.0037245750427246094,2026-03-29T22:34:01.697,2026-03-29T18:34:01.697,-21127.545,-44756.189999999995,-76560.48,-48212.549999999996,-8503.515,-16066.08,8300.295,-58436.64,10.095196895766593,1.1594369180143276,-4.843852782037381,-9.259870633367237,-11.133429004057747,-12.200117654116614,-0.1784730363971081,6.057123929885388,0.9462866400000001,-0.0781248,0.301696005,8.316699999999999,-22.99682,4.79164,67.0
1774823641.697952,2.8371810913085938e-05,2026-03-29T22:34:01.697,2026-03-29T18:34:01.697,-21111.165,-44753.85,-76569.25499999999,-48221.595,-8510.445,-16066.08,8293.05,-58431.42,5.561935116624321,-0.580144753404652,-4.582290227006287,-5.972366896916468,-6.601455082362497,-6.1032577941825545,-0.8066818277303754,4.587249072022225,0.9462866400000001,-0.0781248,0.301696005,8.316699999999999,-22.99682,4.79164,67.0
1774823641.7037036,0.005751609802246094,2026-03-29T22:34:01.703,2026-03-29T18:34:01.703,-21103.695,-44751.42,-76564.845,-48215.744999999995,-8504.595,-16059.779999999999,8289.18,-58430.295,-1.4134444077671637,-2.1753444352492317,-2.3538122486503985,-0.051215731055523135,0.8229076188096882,2.7015641443182834,-1.1533058672982146,0.9158908184730259,0.9462866400000001,-0.0781248,0.301696005,8.316699999999999,-22.99682,4.79164,67.0
1774823641.703724,2.0265579223632812e-05,2026-03-29T22:34:01.703,2026-03-29T18:34:01.703,-21122.774999999998,-44755.424999999996,-76556.79,-48205.619999999995,-8496.315,-16057.215,8286.93,-58455.134999999995,-7.731018149348423,-2.9380062626930608,0.7901540070526093,5.862221561148509,7.781298386386984,10.18272137082238,-1.1619723234095984,-3.288686822896365,0.9462866400000001,-0.0781248,0.301696005,8.316699999999999,-22.99682,4.79164,67.0
1774823641.7075846,0.0038607120513916016,2026-03-29T22:34:01.707,2026-03-29T18:34:01.707,-21162.239999999998,-44760.465,-76542.20999999999,-48184.604999999996,-8474.355,-16036.605,8299.529999999999,-58502.79,-10.60252506440383,-2.492336753503167,3.4502548022803734,9.144371595224914,11.16773522910073,12.951569039550554,-0.8529751271646889,-6.072860594507128,0.942685575,-0.07019025,0.287291745,12.879439999999999,-21.5166,-0.8698199999999999,67.0
1774823641.7076051,2.0503997802734375e-05,2026-03-29T22:34:01.707,2026-03-29T18:34:01.707,-21170.52,-44757.045,-76533.795,-48172.725,-8458.92,-16014.869999999999,8315.685,-58524.615,-8.800840471957429,-0.9600653006966035,4.51267020042675,8.37330284910872,9.539088536672883,9.824849167024349,-0.2922260697508939,-6.119580902140539,0.942685575,-0.07019025,0.287291745,12.879439999999999,-21.5166,-0.8698199999999999,67.0
1774823641.7097597,0.0021545886993408203,2026-03-29T22:34:01.709,2026-03-29T18:34:01.709,-21156.93,-44753.67,-76538.79,-48177.225,-8464.59,-16021.71,8317.71,-58517.415,-3.190191487442866,1.0596691045396212,3.618431549560857,3.9543670904958956,3.7412732356441207,2.344445206634379,0.41365593126171984,-3.3742580236106354,0.942685575,-0.07019025,0.287291745,12.879439999999999,-21.5166,-0.8698199999999999,67.0
1774823641.709775,1.52587890625e-05,2026-03-29T22:34:01.709,2026-03-29T18:34:01.709,-21155.265,-44763.255,-76554.54,-48181.455,-8474.13,-16036.605,8309.115,-58518.63,3.6950317976480944,2.722099049173654,1.2693692495131017,-2.0925700158004945,-3.526449711244585,-5.9812542569972305,1.101248424442176,0.924350084414903,0.942685575,-0.07019025,0.287291745,12.879439999999999,-21.5166,-0.8698199999999999,67.0
1774823641.7172337,0.007458686828613281,2026-03-29T22:34:01.717,2026-03-29T18:34:01.717,-21145.77,-44765.775,-76560.56999999999,-48186.854999999996,-8483.805,-16054.83,8305.47,-58513.905,8.814627415288255,3.291846229550473,-1.4506192232139579,-7.072896083246178,-8.986176320153199,-11.341969539968025,1.5489558532374301,4.821122482985213,0.942685575,-0.07019025,0.287291745,12.879439999999999,-21.5166,-0.8698199999999999,67.0
1774823641.7172523,1.8596649169921875e-05,2026-03-29T22:34:01.717,2026-03-29T18:34:01.717,-21124.305,-44746.47,-76537.44,-48188.159999999996,-8491.23,-16068.779999999999,8298.494999999999,-58502.07,9.985723998002358,2.471049117244223,-3.3854784548810106,-8.839159368078148,-10.285055128751255,-11.397933094215977,1.5278347852947918,6.552602150936484,0.942685575,-0.07019025,0.287291745,12.879439999999999,-21.5166,-0.8698199999999999,67.0
