unix_time_s,dt_s,UTC,LOCAL,EMG1_Raw,EMG2_Raw,EMG3_Raw,EMG4_Raw,EMG5_Raw,EMG6_Raw,EMG7_Raw,EMG8_Raw,EMG1_Filtered,EMG2_Filtered,EMG3_Filtered,EMG4_Filtered,EMG5_Filtered,EMG6_Filtered,EMG7_Filtered,EMG8_Filtered,Accel1_Raw,Accel2_Raw,Accel3_Raw,Gyro1_Raw,Gyro2_Raw,Gyro3_Raw,Battery
1774822946.0727437,,2026-03-29T22:22:26.072,2026-03-29T18:22:26.072,-33199.695,-45868.725,-85229.415,-50351.085,-13413.555,-17291.34,6815.384999999999,-63597.104999999996,-1.6191793557772374,-1.2413940661006453,-1.617756275085278,-1.2691866313363154,-1.2391705721628858,-1.4278595395405094,0.3397343670085194,-1.5802200398887574,-0.308531925,-0.50317254,0.816953475,8.743979999999999,-6.08874,-19.57858,69.0
1774822946.0727575,1.3828277587890625e-05,2026-03-29T22:22:26.072,2026-03-29T18:22:26.072,-33220.619999999995,-45856.935,-85198.36499999999,-50318.505,-13400.505,-17284.68,6823.755,-63596.295,1.426460591767479,1.2381019812845637,4.5531276378186885,-2.44748007097397,-7.42419367130834,-8.916159524172187,-9.82490476769151,1.0050989029057393,-0.308531925,-0.50317254,0.816953475,8.743979999999999,-6.08874,-19.57858,69.0
1774822946.077525,0.004767417907714844,2026-03-29T22:22:26.077,2026-03-29T18:22:26.077,-33221.88,-45843.975,-85182.66,-50308.11,-13409.82,-17306.235,6797.925,-63601.02,4.020468133591274,3.340610190511317,8.705453676151864,-2.394994788461003,-10.119100367875955,-12.192109586292418,-15.721689824476215,3.1846921361664275,-0.30963055500000003,-0.50390496,0.816709335,9.629059999999999,-9.11022,-22.661099999999998,69.0
1774822946.077551,2.5987625122070312e-05,2026-03-29T22:22:26.077,2026-03-29T18:22:26.077,-33181.83,-45809.729999999996,-85165.245,-50302.575,-13406.715,-17301.69,6784.155,-63594.225,4.909690488982651,4.138959453742136,9.049785521074073,-0.9499039609748909,-7.944461968382508,-9.682281598965268,-14.519245988124585,3.927766350062728,-0.30963055500000003,-0.50390496,0.816709335,9.629059999999999,-9.11022,-22.661099999999998,69.0
1774822946.08048,0.002929210662841797,2026-03-29T22:22:26.080,2026-03-29T18:22:26.080,-33146.28,-45798.57,-85172.94,-50301.18,-13400.144999999999,-17285.85,6801.21,-63573.345,3.562230809444016,3.208584961303461,5.48723091155447,1.2834264436918636,-1.8725742931539124,-2.581917253351521,-6.623864753210094,2.850788035176828,-0.30963055500000003,-0.50390496,0.816709335,9.629059999999999,-9.11022,-22.661099999999998,69.0
1774822946.0805004,2.0265579223632812e-05,2026-03-29T22:22:26.080,2026-03-29T18:22:26.080,-33182.729999999996,-45833.985,-85210.02,-50305.32,-13398.029999999999,-17269.829999999998,6848.054999999999,-63574.965,0.46564331686314486,0.8493925135836357,-0.37298553865229045,3.1881959728858096,5.20961456942253,5.717668295293851,4.438180870256254,0.4106714913692334,-0.30963055500000003,-0.50390496,0.816709335,9.629059999999999,-9.11022,-22.661099999999998,69.0
1774822946.0842607,0.0037603378295898438,2026-03-29T22:22:26.084,2026-03-29T18:22:26.084,-33209.685,-45849.555,-85248.09,-50327.64,-13416.39,-17282.745,6857.009999999999,-63593.549999999996,-3.0397738767253837,-1.9966090970375452,-5.952623865036317,3.689989997670453,9.880398507551858,11.261633333885037,13.608442320241855,-2.2888383740805116,-0.30963055500000003,-0.50390496,0.816709335,9.629059999999999,-9.11022,-22.661099999999998,69.0
1774822946.0842884,2.765655517578125e-05,2026-03-29T22:22:26.084,2026-03-29T18:22:26.084,-33207.075,-45847.395,-85223.745,-50319.134999999995,-13403.88,-17271.315,6848.46,-63593.82,-5.341337450665107,-4.118493065132832,-8.855043255958217,2.337808408044214,9.842778648696259,11.432180790543331,16.633547209075438,-3.995719740817879,-0.30963055500000003,-0.50390496,0.816709335,9.629059999999999,-9.11022,-22.661099999999998,69.0
1774822946.0881789,0.003890514373779297,2026-03-29T22:22:26.088,2026-03-29T18:22:26.088,-33202.395,-45843.119999999995,-85204.485,-50329.215,-13408.965,-17270.145,6833.205,-63591.704999999994,-5.2967799718507775,-4.554452067436431,-7.906283803437364,-0.39506991509720707,5.055239746353933,6.196152036950756,12.061042417051047,-3.8883941351432783,-0.30963055500000003,-0.50390496,0.816709335,9.629059999999999,-9.11022,-22.661099999999998,69.0
1774822946.0881996,2.0742416381835938e-05,2026-03-29T22:22:26.088,2026-03-29T18:22:26.088,-33207.705,-45848.205,-85205.34,-50346.765,-13426.47,-17278.92,6836.085,-63594.945,-2.7969020771109916,-3.0321351779305954,-3.6291534907939234,-3.2692240170458273,-2.223932944285874,-1.9004826048739296,1.9468894467794347,-1.9680041145253133,-0.30963055500000003,-0.50390496,0.816709335,9.629059999999999,-9.11022,-22.661099999999998,69.0
1774822946.0920248,0.0038251876831054688,2026-03-29T22:22:26.092,2026-03-29T18:22:26.092,-33201.45,-45855.81,-85228.065,-50367.509999999995,-13456.755,-17305.695,6815.429999999999,-63597.329999999994,1.1276706803206191,-0.12801290644676513,2.0402016128212725,-4.8473639285615695,-8.510195697889438,-8.979132390017963,-9.074418878405279,0.9218240805306697,-0.30963055500000003,-0.50390496,0.816709335,9.629059999999999,-9.11022,-22.661099999999998,69.0
1774822946.092046,2.1219253540039062e-05,2026-03-29T22:22:26.092,2026-03-29T18:22:26.092,-33198.93,-45853.875,-85217.48999999999,-50347.799999999996,-13458.105,-17310.42,6807.554999999999,-63593.145,4.729825606044781,2.943776771661036,6.641029705843458,-4.209084137090112,-10.7698193142457,-11.701744527116505,-15.934145083999645,3.4655075867712846,-0.30963055500000003,-0.50390496,0.816709335,9.629059999999999,-9.11022,-22.661099999999998,69.0
1774822946.096105,0.0040590763092041016,2026-03-29T22:22:26.096,2026-03-29T18:22:26.096,-33203.97,-45846.81,-85195.17,-50315.265,-13435.109999999999,-17292.015,6815.07,-63591.84,6.326553541762858,4.839987620157152,8.268415654289383,-1.4575289768064648,-7.888755809763309,-8.858717199622939,-15.486477280571341,4.473830437408055,-0.30554121,-0.5086656900000001,0.82214145,14.31388,-11.33818,-25.51472,69.0
1774822946.096131,2.5987625122070312e-05,2026-03-29T22:22:26.096,2026-03-29T18:22:26.096,-33206.94,-45846.045,-85194.405,-50310.134999999995,-13427.82,-17285.805,6814.304999999999,-63591.795,5.086806655824045,4.681220702015144,6.365549422261551,2.251640901718584,-1.2193491670451377,-1.9095195594262635,-7.970580175488276,3.4383267819143097,-0.30554121,-0.5086656900000001,0.82214145,14.31388,-11.33818,-25.51472,69.0
1774822946.1014545,0.0053234100341796875,2026-03-29T22:22:26.101,2026-03-29T18:22:26.101,-33213.96,-45846.09,-85195.53,-50307.345,-13421.115,-17275.995,6816.69,-63600.435,1.4569348548307117,2.4653623716742827,1.897221677864942,5.203152139659538,6.062744237946793,5.767241830212206,3.110761860333798,0.7838999226603867,-0.30554121,-0.5086656900000001,0.82214145,14.31388,-11.33818,-25.51472,69.0
1774822946.1014848,3.0279159545898438e-05,2026-03-29T22:22:26.101,2026-03-29T18:22:26.101,-33206.625,-45854.685,-85218.705,-50319.854999999996,-13432.32,-17284.59,6811.29,-63596.655,-2.991745594895364,-0.8950583891204612,-3.138616523452864,5.922768893191234,10.48182965641323,10.528477574324478,12.636489660012407,-2.304590062402939,-0.30554121,-0.5086656900000001,0.82214145,14.31388,-11.33818,-25.51472,69.0
1774822946.1058457,0.00436091423034668,2026-03-29T22:22:26.105,2026-03-29T18:22:26.105,-33198.03,-45859.049999999996,-85231.845,-50337.27,-13449.824999999999,-17294.445,6814.259999999999,-63584.505,-6.246101592229869,-3.946534769804025,-6.613882899460111,3.90828985210919,9.929588736039573,10.209855589305613,16.257772640525722,-4.411747597239212,-0.30554121,-0.5086656900000001,0.82214145,14.31388,-11.33818,-25.51472,69.0
1774822946.1058676,2.193450927734375e-05,2026-03-29T22:22:26.105,2026-03-29T18:22:26.105,-33215.13,-45859.229999999996,-85226.12999999999,-50341.634999999995,-13460.715,-17298.855,6817.005,-63595.53,-6.766815267147353,-5.327799363862634,-7.175589766019401,-0.07007134793375536,4.672376004145569,5.116499179134322,12.406866223917943,-4.540501439434929,-0.30554121,-0.5086656900000001,0.82214145,14.31388,-11.33818,-25.51472,69.0
1774822946.1082556,0.00238800048828125,2026-03-29T22:22:26.108,2026-03-29T18:22:26.108,-33216.93,-45857.744999999995,-85231.08,-50351.939999999995,-13471.605,-17304.345,6820.38,-63598.86,-4.217870900698682,-4.385102394056111,-4.766014878524932,-4.266518594438967,-2.783946598760905,-2.195748513823535,2.985683303771604,-2.582869799159424,-0.30554121,-0.5086656900000001,0.82214145,14.31388,-11.33818,-25.51472,69.0
1774822946.1082788,2.3126602172851562e-05,2026-03-29T22:22:26.108,2026-03-29T18:22:26.108,-33205.545,-45854.325,-85227.705,-50343.255,-13466.519999999999,-17298.765,6815.7,-63592.02,0.3367097650293952,-1.488165047736116,-0.5620934830466222,-6.737517576521839,-8.900412303203193,-8.20873238866771,-7.572940508574728,0.6094290570096272,-0.30554121,-0.5086656900000001,0.82214145,14.31388,-11.33818,-25.51472,69.0
1774822946.112182,0.0039031505584716797,2026-03-29T22:22:26.112,2026-03-29T18:22:26.112,-33194.655,-45860.67,-85233.33,-50344.29,-13470.66,-17306.055,6798.78,-63578.43,4.878250840841553,2.1084821179398165,3.5992417632861193,-6.248370627101214,-10.796259592248468,-10.147658221009971,-14.40765056880207,3.5963594470221296,-0.30554121,-0.5086656900000001,0.82214145,14.31388,-11.33818,-25.51472,69.0
1774822946.1121917,9.775161743164062e-06,2026-03-29T22:22:26.112,2026-03-29T18:22:26.112,-33195.51,-45867.015,-85234.635,-50343.57,-13471.74,-17304.255,6801.389999999999,-63575.865,7.334083493037004,4.810661124699361,6.029088599074594,-2.882475350580652,-7.611231487551117,-7.2707614361912105,-14.489698109808767,5.000952328856397,-0.30554121,-0.5086656900000001,0.82214145,14.31388,-11.33818,-25.51472,69.0
1774822946.1167948,0.004603147506713867,2026-03-29T22:22:26.116,2026-03-29T18:22:26.116,-33215.22,-45863.955,-85230.675,-50343.075,-13476.465,-17306.145,6821.639999999999,-63588.689999999995,6.528923068738951,5.398903671042027,5.870539491034209,1.944753164758925,-0.8917609155846736,-1.1389820636168462,-7.980563049286049,4.145378638053565,-0.303160845,-0.514097805,0.830625315,18.311999999999998,-8.469299999999999,-28.337819999999997,69.0
1774822946.11682,2.5272369384765625e-05,2026-03-29T22:22:26.116,2026-03-29T18:22:26.116,-33253.38,-45848.475,-85203.18,-50305.905,-13442.355,-17272.125,6832.44,-63636.57,2.7476480857769716,3.5887500656925475,3.383178596707215,6.0923778431371565,6.170382472407404,5.223919314200597,1.9295579593683507,1.3771811536676768,-0.303160845,-0.514097805,0.830625315,18.311999999999998,-8.469299999999999,-28.337819999999997,69.0
1774822946.120502,0.0036818981170654297,2026-03-29T22:22:26.120,2026-03-29T18:22:26.120,-33229.305,-45844.29,-85201.785,-50295.78,-13435.92,-17268.524999999998,6819.66,-63619.155,-2.360456819500811,0.17529478843252316,-0.25562466996486977,7.655158748254107,10.267584844131454,8.831546444530128,10.589001632337064,-2.0713397588671953,-0.303160845,-0.514097805,0.830625315,18.311999999999998,-8.469299999999999,-28.337819999999997,69.0
1774822946.1205292,2.7179718017578125e-05,2026-03-29T22:22:26.120,2026-03-29T18:22:26.120,-33210.945,-45840.869999999995,-85195.17,-50290.515,-13429.845,-17265.96,6824.565,-63600.93,-6.5067335873908725,-3.3141532964555656,-3.506944483617403,5.842368833837428,9.53482704761344,8.14658006086461,14.085289432155834,-4.63434653343497,-0.303160845,-0.514097805,0.830625315,18.311999999999998,-8.469299999999999,-28.337819999999997,69.0
1774822946.1297102,0.009181022644042969,2026-03-29T22:22:26.129,2026-03-29T18:22:26.129,-33201.494999999995,-45849.24,-85192.605,-50285.295,-13422.869999999999,-17256.96,6842.61,-63582.615,-7.796142561727676,-5.308842323844204,-5.121845049308679,1.36710230523728,4.398260972751059,3.731651189735541,11.029891557463767,-5.126769930816915,-0.303160845,-0.514097805,0.830625315,18.311999999999998,-8.469299999999999,-28.337819999999997,69.0
1774822946.1297295,1.9311904907226562e-05,2026-03-29T22:22:26.129,2026-03-29T18:22:26.129,-33230.52,-45871.244999999995,-85208.44499999999,-50301.54,-13438.755,-17265.87,6874.155,-63582.659999999996,-5.5984249395341195,-4.912084700974804,-4.612768253219824,-3.8415595392589523,-2.6720468759214726,-2.133847679323883,3.105075242346575,-3.29434856124174,-0.303160845,-0.514097805,0.830625315,18.311999999999998,-8.469299999999999,-28.337819999999997,69.0
1774822946.1297483,1.8835067749023438e-05,2026-03-29T22:22:26.129,2026-03-29T18:22:26.129,-33261.795,-45879.075,-85240.89,-50356.935,-13491.045,-17304.39,6827.085,-63616.95,-0.8544978378130932,-2.315276558872588,-2.371914115072149,-7.482847770728663,-8.362825211000102,-6.6316945101091855,-5.839647140240416,0.057093235305170346,-0.303160845,-0.514097805,0.830625315,18.311999999999998,-8.469299999999999,-28.337819999999997,69.0
1774822946.1297565,8.106231689453125e-06,2026-03-29T22:22:26.129,2026-03-29T18:22:26.129,-33208.875,-45826.965,-85204.98,-50338.395,-13474.89,-17282.34,6785.099999999999,-63613.755,4.330424842517756,1.287615327082745,0.5733227498607626,-7.909248489693342,-10.082258517597149,-7.7679445455007174,-11.663569764119407,3.418503332663501,-0.303160845,-0.514097805,0.830625315,18.311999999999998,-8.469299999999999,-28.337819999999997,69.0
1774822946.1445107,0.014754295349121094,2026-03-29T22:22:26.144,2026-03-29T18:22:26.144,-33189.345,-45824.085,-85187.97,-50313.869999999995,-13464.81,-17280.18,6776.054999999999,-63589.59,7.629146574865358,4.25001620427804,3.029305869290585,-4.871509236724055,-7.1440315596855415,-5.2573683734403485,-11.865413816956616,5.261738353476389,-0.303160845,-0.514097805,0.830625315,18.311999999999998,-8.469299999999999,-28.337819999999997,69.0
1774822946.14453,1.9311904907226562e-05,2026-03-29T22:22:26.144,2026-03-29T18:22:26.144,-33184.08,-45837.45,-85201.65,-50319.09,-13477.275,-17295.255,6778.755,-63573.795,7.544662734644164,5.233634964469359,4.116715210388347,0.3527834036347635,-1.0281307409656062,-0.5366668663356866,-6.661726465008778,4.738813757839446,-0.303160845,-0.514097805,0.830625315,18.311999999999998,-8.469299999999999,-28.337819999999997,69.0
1774822946.144548,1.7881393432617188e-05,2026-03-29T22:22:26.144,2026-03-29T18:22:26.144,-33204.195,-45845.505,-85197.33,-50311.08,-13465.89,-17275.05,6818.985,-63577.799999999996,4.092870991853178,3.8251467461273854,3.571451355434564,5.5077531004963785,5.3727947223463985,4.040436784416101,1.2534557682055314,2.074085025830006,-0.29992599000000003,-0.51049674,0.83471466,14.6496,-8.71346,-29.02452,69.0
1774822946.144555,7.152557373046875e-06,2026-03-29T22:22:26.144,2026-03-29T18:22:26.144,-33232.994999999995,-45843.165,-85193.235,-50309.145,-13467.644999999999,-17272.89,6877.485,-63601.2,-1.1971628238810565,0.7191262601181891,1.7708078382715227,8.343473824190898,9.134405513607792,6.381830160277148,8.091493657720587,-1.5333067914263165,-0.29992599000000003,-0.51049674,0.83471466,14.6496,-8.71346,-29.02452,69.0
1774822946.1480632,0.0035080909729003906,2026-03-29T22:22:26.148,2026-03-29T18:22:26.148,-33227.909999999996,-45859.409999999996,-85220.055,-50320.439999999995,-13483.305,-17292.96,6857.775,-63609.795,-5.967724273776755,-2.6184280094683867,-0.48861909712991397,7.6016334691133665,8.64376596721898,5.616498720843001,10.788072122751151,-4.454032588997088,-0.29992599000000003,-0.51049674,0.83471466,14.6496,-8.71346,-29.02452,69.0
1774822946.148078,1.4781951904296875e-05,2026-03-29T22:22:26.148,2026-03-29T18:22:26.148,-33237.494999999995,-45875.205,-85231.305,-50322.33,-13483.529999999999,-17290.305,6835.005,-63609.884999999995,-8.091903682305256,-4.645452278278305,-2.3409634519745612,3.5694624096913827,4.284415506849646,2.3931198781959244,8.381549532565552,-5.370788763898294,-0.29992599000000003,-0.51049674,0.83471466,14.6496,-8.71346,-29.02452,69.0
1774822946.1480908,1.2874603271484375e-05,2026-03-29T22:22:26.148,2026-03-29T18:22:26.148,-33255.63,-45879.119999999995,-85232.61,-50332.14,-13494.24,-17295.795,6804.495,-63619.424999999996,-6.627828279080384,-4.466849352996419,-3.176704928214328,-2.0392904540178276,-1.8237825823817928,-1.5685836469859238,2.3284235802802082,-3.8770669730331884,-0.29992599000000003,-0.51049674,0.83471466,14.6496,-8.71346,-29.02452,69.0
1774822946.1480975,6.67572021484375e-06,2026-03-29T22:22:26.148,2026-03-29T18:22:26.148,-33243.255,-45870.615,-85233.42,-50346.314999999995,-13508.775,-17304.48,6811.335,-63617.04,-2.2367843889989136,-2.2416034182753175,-2.8248844156796338,-6.822113439324608,-6.866056487222492,-4.390656426993057,-4.330034406236606,-0.6579062742047126,-0.29992599000000003,-0.51049674,0.83471466,14.6496,-8.71346,-29.02452,69.0
1774822946.148105,7.3909759521484375e-06,2026-03-29T22:22:26.148,2026-03-29T18:22:26.148,-33220.485,-45862.155,-85235.985,-50344.92,-13499.91,-17284.635,6843.465,-63593.865,3.1205043198664275,0.9167600571550263,-1.5478145855083705,-8.721895045875502,-8.639110059116787,-4.9310255839360755,-8.488258620852589,2.828292563854781,-0.29992599000000003,-0.51049674,0.83471466,14.6496,-8.71346,-29.02452,69.0
1774822946.1481109,5.9604644775390625e-06,2026-03-29T22:22:26.148,2026-03-29T18:22:26.148,-33216.93,-45875.88,-85249.08,-50344.2,-13496.984999999999,-17282.565,6838.38,-63588.06,7.067510787552146,3.4923740548220787,0.11667583212498435,-6.910258486308555,-6.511881131347884,-3.231141019217142,-8.425477779642371,5.017498511354911,-0.29992599000000003,-0.51049674,0.83471466,14.6496,-8.71346,-29.02452,69.0
1774822946.1522057,0.004094839096069336,2026-03-29T22:22:26.152,2026-03-29T18:22:26.152,-33222.6,-45885.555,-85235.985,-50331.78,-13487.265,-17276.265,6820.065,-63587.97,7.873356749129961,4.299987068327383,1.5797922117871062,-2.1421783317069174,-1.6231434017392856,-0.35019682440114314,-4.50648746321603,4.9483790233207525,-0.29992599000000003,-0.51049674,0.83471466,14.6496,-8.71346,-29.02452,69.0
1774822946.1522171,1.1444091796875e-05,2026-03-29T22:22:26.152,2026-03-29T18:22:26.152,-33230.159999999996,-45868.5,-85216.14,-50339.205,-13491.404999999999,-17276.805,6822.585,-63592.11,5.214671426886085,3.041976944140284,2.40045729088163,3.5660544294234042,3.727980537843848,2.2630701277174943,1.1444433906271474,2.6871574294960734,-0.29992599000000003,-0.51049674,0.83471466,14.6496,-8.71346,-29.02452,69.0
1774822946.1565008,0.0042836666107177734,2026-03-29T22:22:26.156,2026-03-29T18:22:26.156,-33252.479999999996,-45855.72,-85210.65,-50345.145,-13500.585,-17285.67,6826.32,-63608.715,0.3014168443170672,0.4224736674352775,2.3960774559090035,7.794094332034459,7.172712049691083,3.4998527281498784,5.770109380783526,-0.7202916493869806,-0.300353235,-0.504820485,0.835874325,3.2198599999999997,-10.956679999999999,-27.59008,69.0
1774822946.1565273,2.6464462280273438e-05,2026-03-29T22:22:26.156,2026-03-29T18:22:26.156,-33243.84,-45845.865,-85195.125,-50329.259999999995,-13504.59,-17292.555,6828.21,-63603.045,-4.679795057914448,-2.2284210462385845,1.6506322943550098,8.743488780015005,7.322826296964973,3.0540267784592245,7.31783080083631,-3.738419051803031,-0.300353235,-0.504820485,0.835874325,3.2198599999999997,-10.956679999999999,-27.59008,69.0
1774822946.1603167,0.0037894248962402344,2026-03-29T22:22:26.160,2026-03-29T18:22:26.160,-33236.145,-45844.155,-85195.44,-50314.005,-13499.64,-17293.14,6822.945,-63601.695,-7.545843388595442,-3.6260141347577495,0.44545252551485404,5.998281968479095,4.3143382792893386,1.4294119201650628,5.341322673625578,-5.0417163398256095,-0.300353235,-0.504820485,0.835874325,3.2198599999999997,-10.956679999999999,-27.59008,69.0
1774822946.1603396,2.288818359375e-05,2026-03-29T22:22:26.160,2026-03-29T18:22:26.160,-33226.83,-45843.119999999995,-85205.79,-50326.335,-13511.97,-17303.265,6811.695,-63603.854999999996,-7.078115120330762,-3.1605865469630396,-0.8443262243082311,0.7015972742241793,-0.35889664641601965,-0.4435279635460936,1.0754760639166172,-4.101608577018571,-0.300353235,-0.504820485,0.835874325,3.2198599999999997,-10.956679999999999,-27.59008,69.0
1774822946.1642437,0.003904104232788086,2026-03-29T22:22:26.164,2026-03-29T18:22:26.164,-33234.21,-45849.33,-85210.29,-50327.145,-13510.574999999999,-17296.559999999998,6815.16,-63606.689999999995,-3.5396555062211235,-1.1736346520150396,-1.8506771107704427,-4.923532100172339,-4.592247490516898,-1.727882570986875,-3.285054868738398,-1.3982378581889996,-0.300353235,-0.504820485,0.835874325,3.2198599999999997,-10.956679999999999,-27.59008,69.0
1774822946.1642644,2.0742416381835938e-05,2026-03-29T22:22:26.164,2026-03-29T18:22:26.164,-33229.619999999995,-45851.534999999996,-85217.12999999999,-50334.57,-13518.18,-17295.75,6819.12,-63599.22,1.4700552960495787,1.2494280187079603,-2.292728786025695,-8.506650097306348,-6.622238567105704,-2.051388547374579,-5.6975839951582055,1.8263937983409773,-0.300353235,-0.504820485,0.835874325,3.2198599999999997,-10.956679999999999,-27.59008,69.0
1774822946.1757052,0.011440753936767578,2026-03-29T22:22:26.175,2026-03-29T18:22:26.175,-33221.205,-45854.325,-85224.87,-50339.97,-13523.4,-17293.68,6826.005,-63587.564999999995,5.7433740143852186,2.8552970003316607,-2.034009136955332,-8.525370439323414,-5.751113234201851,-1.5654463859929029,-5.21584223936047,4.146422835359487,-0.300353235,-0.504820485,0.835874325,3.2198599999999997,-10.956679999999999,-27.59008,69.0
1774822946.175741,3.5762786865234375e-05,2026-03-29T22:22:26.175,2026-03-29T18:22:26.175,-33211.26,-45849.689999999995,-85222.17,-50338.17,-13522.904999999999,-17293.995,6826.094999999999,-63582.84,7.441751829892684,2.8678309334871814,-1.1187999383759424,-4.948335949671532,-2.552272228320159,-0.722800405286494,-2.3358119236612462,4.588796830700883,-0.300353235,-0.504820485,0.835874325,3.2198599999999997,-10.956679999999999,-27.59008,69.0
1774822946.1757681,2.7179718017578125e-05,2026-03-29T22:22:26.175,2026-03-29T18:22:26.175,-33220.485,-45858.465,-85225.00499999999,-50337.314999999995,-13523.715,-17295.165,6821.775,-63585.674999999996,5.887593811389742,1.3712684507152504,0.21846659548909603,0.7433579112151877,1.480757594634598,0.04581312628886533,1.3675551023447863,3.041277578416004,-0.300353235,-0.504820485,0.835874325,3.2198599999999997,-10.956679999999999,-27.59008,69.0
1774822946.175779,1.0967254638671875e-05,2026-03-29T22:22:26.175,2026-03-29T18:22:26.175,-33245.325,-45858.104999999996,-85214.06999999999,-50320.53,-13507.875,-17278.38,6820.155,-63610.965,1.8297988023055805,-0.761123347446425,1.5864351416305373,6.167781402766508,4.636137337113615,0.5492121430372457,4.077867558324571,0.2607712832100444,-0.300353235,-0.504820485,0.835874325,3.2198599999999997,-10.956679999999999,-27.59008,69.0
1774822946.1776655,0.0018863677978515625,2026-03-29T22:22:26.177,2026-03-29T18:22:26.177,-33232.994999999995,-45859.455,-85218.56999999999,-50321.025,-13508.595,-17277.614999999998,6828.974999999999,-63602.145,-2.918045311933464,-2.349166053106254,2.5267138468666146,9.035485508867566,5.704660172399628,0.8387612102657215,4.611399247630591,-2.5010308398750336,-0.290343495,-0.506163255,0.84374784,-0.79352,-10.77356,-24.20236,69.0
1774822946.1776884,2.288818359375e-05,2026-03-29T22:22:26.177,2026-03-29T18:22:26.177,-33230.43,-45868.32,-85225.815,-50328.494999999995,-13518.765,-17285.489999999998,6825.96,-63589.005,-6.291435527559751,-2.5416431937286412,2.655155419232039,8.112753377267953,4.419682273912556,1.0400072507853728,2.9135379222582247,-4.067678371050508,-0.290343495,-0.506163255,0.84374784,-0.79352,-10.77356,-24.20236,69.0
1774822946.1835005,0.005812168121337891,2026-03-29T22:22:26.183,2026-03-29T18:22:26.183,-33244.11,-45855.765,-85196.205,-50304.78,-13504.725,-17269.245,6827.625,-63593.729999999996,-6.874280903642278,-1.2694696059724817,1.8180852245752164,3.751665782975246,1.4702367066989759,1.1647584253103926,-0.01948600443140694,-3.840879414573233,-0.290343495,-0.506163255,0.84374784,-0.79352,-10.77356,-24.20236,69.0
1774822946.1835318,3.123283386230469e-05,2026-03-29T22:22:26.183,2026-03-29T18:22:26.183,-33230.655,-45833.445,-85181.08499999999,-50300.189999999995,-13506.3,-17270.91,6822.99,-63604.71,-4.491794506597736,0.7239719820586781,0.20080200824450947,-2.2401966496654584,-1.8649201547599399,1.055814497430799,-2.701802630497494,-2.0204791005753404,-0.290343495,-0.506163255,0.84374784,-0.79352,-10.77356,-24.20236,69.0
1774822946.1835637,3.1948089599609375e-05,2026-03-29T22:22:26.183,2026-03-29T18:22:26.183,-33213.869999999995,-45836.055,-85180.86,-50303.744999999995,-13510.8,-17271.809999999998,6827.3099999999995,-63585.854999999996,-0.2500682018165992,2.2923117031326283,-1.6760958021379626,-7.344646591010545,-4.269586347836668,0.5135764179165047,-3.893674994192713,0.5343470843800651,-0.290343495,-0.506163255,0.84374784,-0.79352,-10.77356,-24.20236,69.0
1774822946.1835716,7.867813110351562e-06,2026-03-29T22:22:26.183,2026-03-29T18:22:26.183,-33230.475,-45853.74,-85195.665,-50317.424999999996,-13522.68,-17277.75,6832.575,-63578.295,3.9776337427877597,2.518286925494771,-3.10387600711778,-9.388176264727559,-4.891738403233192,-0.4832304960379598,-3.1537004110138476,2.715481562305897,-0.290343495,-0.506163255,0.84374784,-0.79352,-10.77356,-24.20236,69.0
1774822946.1914356,0.007863998413085938,2026-03-29T22:22:26.191,2026-03-29T18:22:26.191,-33244.515,-45855.54,-85215.23999999999,-50328.765,-13529.564999999999,-17287.335,6825.24,-63595.079999999994,6.379272833743522,1.2292743179465497,-3.4469218207851684,-7.467484029156321,-3.613933569138896,-1.6310440435177949,-0.9714992690171201,3.6494929384471626,-0.290343495,-0.506163255,0.84374784,-0.79352,-10.77356,-24.20236,69.0
1774822946.1914513,1.5735626220703125e-05,2026-03-29T22:22:26.191,2026-03-29T18:22:26.191,-33231.78,-45844.47,-85213.575,-50317.695,-13516.244999999999,-17280.63,6817.95,-63606.555,5.9807507766775885,-0.8862569799675719,-2.4255090136774484,-2.3513764853496646,-1.026794473196951,-2.3658710191312715,1.537355180027332,3.0419933798768666,-0.290343495,-0.506163255,0.84374784,-0.79352,-10.77356,-24.20236,69.0
1774822946.1969948,0.00554347038269043,2026-03-29T22:22:26.196,2026-03-29T18:22:26.196,-33229.17,-45846.314999999995,-85209.165,-50311.439999999995,-13513.23,-17280.315,6821.28,-63602.505,3.0385714152532937,-2.6350106522426593,-0.2949589461630439,3.8211474157475553,1.8436334168378323,-2.145537792370191,3.191282801333613,1.2501274131195408,-0.290343495,-0.506163255,0.84374784,-0.79352,-10.77356,-24.20236,69.0
1774822946.1970108,1.5974044799804688e-05,2026-03-29T22:22:26.197,2026-03-29T18:22:26.197,-33217.92,-45848.97,-85218.03,-50331.015,-13536.135,-17299.89,6815.835,-63596.25,-1.1082807283473362,-2.9678534432385146,2.1817550537453267,8.431600789281818,3.9292885370423924,-0.80596461153222,3.280301313237172,-0.9202994763363863,-0.290343495,-0.506163255,0.84374784,-0.79352,-10.77356,-24.20236,69.0
1774822946.1970265,1.5735626220703125e-05,2026-03-29T22:22:26.197,2026-03-29T18:22:26.197,-33200.1,-45853.38,-85220.28,-50341.725,-13550.22,-17308.53,6809.94,-63578.475,-4.646751072335172,-1.5770885181553103,3.993166979438403,9.492871532848069,4.491554409133222,1.2285682289504565,1.8455391106793524,-2.580267258599055,-0.27880788,-0.508238445,0.848935815,0.04578,-11.39922,-24.156579999999998,69.0
1774822946.1970336,7.152557373046875e-06,2026-03-29T22:22:26.197,2026-03-29T18:22:26.197,-33224.22,-45851.939999999995,-85181.625,-50306.13,-13518.855,-17271.27,6806.61,-63573.119999999995,-6.082745835875314,0.8872029456655504,4.290265312431895,6.509167761220005,3.3574363320629996,3.0465902411408123,-0.3948031169912478,-3.1183403586408533,-0.27880788,-0.508238445,0.848935815,0.04578,-11.39922,-24.156579999999998,69.0
1774822946.200496,0.0034623146057128906,2026-03-29T22:22:26.200,2026-03-29T18:22:26.200,-33262.02,-45831.645,-85162.36499999999,-50291.009999999995,-13504.545,-17252.684999999998,6802.83,-63608.265,-4.872278539693422,3.118113942139922,2.7838714929335366,0.7110963174014858,0.960714374936463,3.6616116967447723,-2.405239726552702,-2.412403742529139,-0.27880788,-0.508238445,0.848935815,0.04578,-11.39922,-24.156579999999998,69.0
1774822946.2005057,9.775161743164062e-06,2026-03-29T22:22:26.200,2026-03-29T18:22:26.200,-33238.44,-45834.705,-85191.61499999999,-50316.119999999995,-13522.814999999999,-17267.76,6801.48,-63605.97,-1.6243234821147425,3.832519364320359,-0.05683035949168252,-5.44737207245817,-1.8138006540190108,2.546544414369705,-3.29837798206416,-0.8273391673828097,-0.27880788,-0.508238445,0.848935815,0.04578,-11.39922,-24.156579999999998,69.0
1774822946.2045236,0.004017829895019531,2026-03-29T22:22:26.204,2026-03-29T18:22:26.204,-33249.869999999995,-45863.549999999996,-85229.86499999999,-50342.49,-13539.869999999999,-17282.655,6828.21,-63615.689999999995,2.1987634319050344,2.481680459587405,-3.1239449726930237,-9.327098878689025,-3.933502079393694,0.0011399413651899623,-2.703510725212327,0.9724391230016376,-0.27880788,-0.508238445,0.848935815,0.04578,-11.39922,-24.156579999999998,69.0
1774822946.2045488,2.5272369384765625e-05,2026-03-29T22:22:26.204,2026-03-29T18:22:26.204,-33247.89,-45866.159999999996,-85231.70999999999,-50344.38,-13545.269999999999,-17291.88,6848.955,-63610.2,4.938710356788148,-0.3920781137428815,-5.095276861734304,-9.238266612759373,-4.5792662769830175,-2.8808154093594234,-0.8981303851342868,2.2995763933357942,-0.27880788,-0.508238445,0.848935815,0.04578,-11.39922,-24.156579999999998,69.0
1774822946.2082334,0.003684520721435547,2026-03-29T22:22:26.208,2026-03-29T18:22:26.208,-33238.305,-45859.95,-85224.42,-50333.13,-13537.664999999999,-17291.385,6860.969999999999,-63600.704999999994,5.46191213626302,-3.366885128181896,-5.005350779126515,-5.181650176760731,-3.4520375735092754,-4.681382502903351,1.3303510886050756,2.6955141359370622,-0.27880788,-0.508238445,0.848935815,0.04578,-11.39922,-24.156579999999998,69.0
1774822946.208258,2.4557113647460938e-05,2026-03-29T22:22:26.208,2026-03-29T18:22:26.208,-33234.615,-45862.11,-85223.655,-50329.17,-13536.855,-17293.59,6843.0599999999995,-63601.29,3.629684314463333,-4.842557128361608,-2.71650990816697,1.1312801648690465,-0.9152639106785244,-4.363168664872594,3.020412452742809,2.0717005169442695,-0.27880788,-0.508238445,0.848935815,0.04578,-11.39922,-24.156579999999998,69.0
1774822946.21289,0.004631996154785156,2026-03-29T22:22:26.212,2026-03-29T18:22:26.212,-33250.77,-45879.705,-85230.09,-50322.735,-13529.744999999999,-17282.024999999998,6806.655,-63621.314999999995,0.32241396047324494,-3.88683520425971,0.9386934119465977,6.999229112621864,2.09678512110109,-1.8550139786704356,3.431419454542565,0.7079734566342846,-0.27880788,-0.508238445,0.848935815,0.04578,-11.39922,-24.156579999999998,69.0
1774822946.2129064,1.6450881958007812e-05,2026-03-29T22:22:26.212,2026-03-29T18:22:26.212,-33261.075,-45899.505,-85271.895,-50340.24,-13548.33,-17292.329999999998,6798.33,-63624.195,-2.9785802740747087,-0.7845708679757806,4.444353295157156,9.889947713360572,4.3998291074603975,1.807273867235283,2.3472982975825034,-0.8715501071199361,-0.27880788,-0.508238445,0.848935815,0.04578,-11.39922,-24.156579999999998,69.0
1774822946.2161689,0.0032625198364257812,2026-03-29T22:22:26.216,2026-03-29T18:22:26.216,-33268.229999999996,-45887.895,-85281.56999999999,-50349.15,-13556.789999999999,-17300.7,6811.11,-63632.384999999995,-4.855120657911759,3.0207088442741687,6.22777790177466,8.5383410053832,5.013359440343547,4.90369498942736,0.17611236710971237,-2.0907212794671435,-0.27453543,-0.501524595,0.849302025,5.70724,-17.35062,-25.52998,69.0
1774822946.216187,1.811981201171875e-05,2026-03-29T22:22:26.216,2026-03-29T18:22:26.216,-33259.14,-45869.354999999996,-85254.075,-50339.744999999995,-13537.439999999999,-17279.145,6829.695,-63627.165,-4.564383235635762,5.600829681647038,5.368392410745072,3.5048119668860407,3.579870816874656,5.8460765005742115,-2.1950078424388018,-2.516825721031489,-0.27453543,-0.501524595,0.849302025,5.70724,-17.35062,-25.52998,69.0
1774822946.2203565,0.004169464111328125,2026-03-29T22:22:26.220,2026-03-29T18:22:26.220,-33243.615,-45858.104999999996,-85225.905,-50339.744999999995,-13526.234999999999,-17263.079999999998,6839.009999999999,-63608.67,-2.3335053871080764,5.517200528094239,2.068398261248667,-3.054941042863592,0.5690349475228226,3.995795755020335,-3.744098657884551,-2.002160665750683,-0.27453543,-0.501524595,0.849302025,5.70724,-17.35062,-25.52998,69.0
1774822946.2203777,2.1219253540039062e-05,2026-03-29T22:22:26.220,2026-03-29T18:22:26.220,-33245.64,-45859.32,-85203.405,-50336.775,-13530.105,-17269.245,6830.415,-63609.75,0.7810101697144688,2.604176369825803,-2.3533953691743785,-8.315185973140677,-2.848119649100877,0.06057024620374639,-3.736086128569313,-0.7329343680534866,-0.27453543,-0.501524595,0.849302025,5.70724,-17.35062,-25.52998,69.0
1774822946.225113,0.004735231399536133,2026-03-29T22:22:26.225,2026-03-29T18:22:26.225,-33243.975,-45864.36,-85210.245,-50349.915,-13551.255,-17288.19,6827.94,-63606.42,3.3909423141512502,-1.858161420171932,-5.981144994745857,-10.002155644622142,-5.240377012921974,-4.164185471073441,-2.059058587535879,0.8294643522036408,-0.27453543,-0.501524595,0.849302025,5.70724,-17.35062,-25.52998,69.0
1774822946.22514,2.7179718017578125e-05,2026-03-29T22:22:26.225,2026-03-29T18:22:26.225,-33236.145,-45862.2,-85209.48,-50341.32,-13564.755,-17305.29,6803.37,-63605.88,4.3978052556564275,-5.707846289812237,-7.1346363943418,-7.38181767238532,-5.514518133053929,-6.621616126686249,0.673130745493773,2.1020767887421696,-0.27453543,-0.501524595,0.849302025,5.70724,-17.35062,-25.52998,69.0
1774822946.2298234,0.004683256149291992,2026-03-29T22:22:26.229,2026-03-29T18:22:26.229,-33235.695,-45859.229999999996,-85196.87999999999,-50315.715,-13550.039999999999,-17292.015,6814.665,-63607.77,3.458564185710378,-6.953039240485813,-5.152474219249586,-1.581876136392495,-3.4208823102178085,-6.003106447824564,3.3228935082974194,2.586754781092665,-0.27453543,-0.501524595,0.849302025,5.70724,-17.35062,-25.52998,69.0
1774822946.229838,1.4543533325195312e-05,2026-03-29T22:22:26.229,2026-03-29T18:22:26.229,-33243.119999999995,-45857.295,-85179.735,-50286.24,-13520.88,-17259.975,6852.195,-63610.244999999995,1.0961998359070058,-4.798518105505731,-0.7588902237233252,4.89435174434267,0.2704794365961642,-2.44162381608243,4.685038782907839,2.063102813891405,-0.27453543,-0.501524595,0.849302025,5.70724,-17.35062,-25.52998,69.0
1774822946.2322788,0.002440929412841797,2026-03-29T22:22:26.232,2026-03-29T18:22:26.232,-33247.305,-45862.29,-85181.895,-50280.119999999995,-13517.279999999999,-17263.17,6853.32,-63602.549999999996,-1.577626566239294,-0.11922333914817314,4.184555945474202,9.251984057983623,4.034614769810543,2.4772192483789044,4.025299522748357,0.6944954649949387,-0.27453543,-0.501524595,0.849302025,5.70724,-17.35062,-25.52998,69.0
1774822946.232293,1.4066696166992188e-05,2026-03-29T22:22:26.232,2026-03-29T18:22:26.232,-33251.67,-45861.705,-85198.36499999999,-50301.72,-13529.43,-17273.52,6848.82,-63610.02,-3.3854734622753395,4.889894500177942,7.467103954596357,9.61517253985006,6.217232275885428,6.425953891158313,1.4656823890962685,-1.0063584625685993,-0.27453543,-0.501524595,0.849302025,5.70724,-17.35062,-25.52998,69.0
1774822946.2387905,0.006497621536254883,2026-03-29T22:22:26.238,2026-03-29T18:22:26.238,-33233.67,-45862.155,-85220.145,-50333.805,-13547.43,-17284.274999999998,6833.655,-63607.005,-3.606492801178957,7.750947708753365,7.523956432709906,5.837756876713133,5.766536532144823,7.4464468465099305,-1.9825236622926996,-2.357858819380045,-0.272643345,-0.493834185,0.8447244,4.66956,-22.21856,-29.61966,69.0
1774822946.2388103,1.9788742065429688e-05,2026-03-29T22:22:26.238,2026-03-29T18:22:26.238,-33245.235,-45868.365,-85223.61,-50341.5,-13546.8,-17276.13,6858.315,-63604.755,-2.264418974249706,6.934079649480617,4.1879695107105555,-0.43761627391478297,2.745118429427977,4.926032659345191,-4.798710456634607,-2.7797517550542734,-0.272643345,-0.493834185,0.8447244,4.66956,-22.21856,-29.61966,69.0
1774822946.2491825,0.010372161865234375,2026-03-29T22:22:26.249,2026-03-29T18:22:26.249,-33259.725,-45872.415,-85233.015,-50345.415,-13565.43,-17295.39,6843.509999999999,-63615.149999999994,-0.0653949260004731,2.668639058623672,-1.1654715973556706,-6.495641604937758,-1.6293744850315208,-0.050400709126414596,-5.616221188661065,-2.0478593525684805,-0.272643345,-0.493834185,0.8447244,4.66956,-22.21856,-29.61966,69.0
1774822946.2492003,1.7881393432617188e-05,2026-03-29T22:22:26.249,2026-03-29T18:22:26.249,-33244.695,-45872.865,-85243.36499999999,-50336.865,-13571.279999999999,-17308.485,6810.66,-63621.99,1.9648976678315129,-3.0929415945010597,-6.180086439774155,-9.726441404576448,-5.466896461363877,-5.168847172044512,-3.8842062753953677,-0.4188009638473496,-0.272643345,-0.493834185,0.8447244,4.66956,-22.21856,-29.61966,69.0
1774822946.249222,2.1696090698242188e-05,2026-03-29T22:22:26.249,2026-03-29T18:22:26.249,-33228.45,-45875.295,-85237.47,-50328.134999999995,-13560.345,-17296.02,6816.285,-63606.195,2.961280532289754,-7.57556502004438,-8.560845130557698,-8.752994281753564,-7.023920510972735,-7.971792436382992,-0.20770145751269517,1.4462902121275927,-0.272643345,-0.493834185,0.8447244,4.66956,-22.21856,-29.61966,69.0
1774822946.2492268,4.76837158203125e-06,2026-03-29T22:22:26.249,2026-03-29T18:22:26.249,-33220.575,-45879.165,-85220.64,-50309.955,-13538.25,-17272.53,6832.44,-63593.189999999995,2.590541065746421,-8.52823898141195,-7.133844630628801,-4.019778090688622,-5.502641288253074,-7.046882642622197,3.8348552581526123,2.7458443657280722,-0.272643345,-0.493834185,0.8447244,4.66956,-22.21856,-29.61966,69.0
1774822946.249232,5.245208740234375e-06,2026-03-29T22:22:26.249,2026-03-29T18:22:26.249,-33235.02,-45871.155,-85199.535,-50301.63,-13531.59,-17260.739999999998,6856.785,-63594.585,1.1531720017982239,-5.359341845145368,-2.430465354642711,2.409369110650642,-1.460921498816882,-2.739641890686629,6.362242183448873,2.8868932677552834,-0.272643345,-0.493834185,0.8447244,4.66956,-22.21856,-29.61966,69.0
1774822946.2492356,3.5762786865234375e-06,2026-03-29T22:22:26.249,2026-03-29T18:22:26.249,-33269.895,-45872.46,-85211.73,-50322.96,-13554.225,-17273.79,6869.925,-63615.465,-0.6102615486580958,0.5142550381244001,3.49694178153166,7.7522690812830435,3.3778404099582526,2.9697578769479462,6.069177215492668,1.7650232248699378,-0.272643345,-0.493834185,0.8447244,4.66956,-22.21856,-29.61966,69.0
1774822946.2572193,0.007983684539794922,2026-03-29T22:22:26.257,2026-03-29T18:22:26.257,-33267.06,-45871.064999999995,-85211.64,-50334.119999999995,-13569.345,-17287.92,6828.03,-63622.17,-1.8951084344732492,6.303875353741017,7.97239980756338,9.714493773487758,6.858710672856269,7.384775140151963,2.9012770554061014,-0.1611141247713631,-0.272643345,-0.493834185,0.8447244,4.66956,-22.21856,-29.61966,69.0
1774822946.2572403,2.09808349609375e-05,2026-03-29T22:22:26.257,2026-03-29T18:22:26.257,-33246.945,-45860.04,-85195.845,-50333.174999999996,-13574.564999999999,-17292.555,6812.1449999999995,-63609.84,-2.2017996473591426,9.1843629981017,8.914036542340867,7.477131818998457,7.361010433256865,8.376018306196954,-1.8237398535481648,-2.0512223128083207,-0.272643345,-0.493834185,0.8447244,4.66956,-22.21856,-29.61966,69.0
1774822946.2572598,1.9550323486328125e-05,2026-03-29T22:22:26.257,2026-03-29T18:22:26.257,-33252.075,-45868.59,-85208.625,-50335.064999999995,-13574.88,-17295.075,6814.98,-63612.63,-1.5276030809299739,7.6838512111989905,5.814020371910598,2.040403278747568,4.560340178033047,5.414471756603839,-5.954515207621492,-3.0526699659684997,-0.265685355,-0.488951385,0.842954385,5.29522,-22.75266,-31.405079999999998,69.0
1774822946.2572677,7.867813110351562e-06,2026-03-29T22:22:26.257,2026-03-29T18:22:26.257,-33262.784999999996,-45873.54,-85212.855,-50334.39,-13569.93,-17293.77,6808.139999999999,-63628.829999999994,-0.30850757012545355,2.4395530543681185,0.014496697425580192,-4.221623474338102,-0.37458746108047103,-0.1495305732876407,-7.490625014917455,-2.694315272511185,-0.265685355,-0.488951385,0.842954385,5.29522,-22.75266,-31.405079999999998,69.0
1774822946.2687948,0.011527061462402344,2026-03-29T22:22:26.268,2026-03-29T18:22:26.268,-33233.67,-45859.365,-85199.58,-50317.83,-13557.6,-17288.37,6793.785,-63615.78,0.8362219559012987,-4.070039947572622,-5.870805105976381,-8.597854927857721,-5.264924553033556,-5.707101659959926,-5.5607479253613725,-1.1188030969893203,-0.265685355,-0.488951385,0.842954385,5.29522,-22.75266,-31.405079999999998,69.0
1774822946.2688081,1.33514404296875e-05,2026-03-29T22:22:26.268,2026-03-29T18:22:26.268,-33222.375,-45867.735,-85200.75,-50310.27,-13552.38,-17281.98,6819.84,-63595.53,1.4148492292647574,-8.705871967277906,-9.141876914759566,-9.216147672556291,-7.887501905395967,-8.623345720735625,-0.9116942599367741,0.9656936656064316,-0.265685355,-0.488951385,0.842954385,5.29522,-22.75266,-31.405079999999998,69.0
1774822946.2688217,1.3589859008789062e-05,2026-03-29T22:22:26.268,2026-03-29T18:22:26.268,-33275.97,-45886.68,-85204.845,-50311.575,-13546.17,-17265.285,6866.955,-63618.479999999996,1.2744363335700382,-9.195518550934704,-8.264137715455808,-5.847946223362407,-6.993805758670942,-7.4950891349554505,4.3642798520670905,2.6035891849965545,-0.265685355,-0.488951385,0.842954385,5.29522,-22.75266,-31.405079999999998,69.0
1774822946.268826,4.291534423828125e-06,2026-03-29T22:22:26.268,2026-03-29T18:22:26.268,-33268.365,-45877.005,-85216.00499999999,-50327.189999999995,-13564.26,-17282.07,6861.105,-63621.99,0.6217139910432262,-5.25808562776825,-3.600588891829359,0.00558782776772191,-2.9115027625576,-2.8297974264480446,7.775046500608928,3.0373178817472013,-0.265685355,-0.488951385,0.842954385,5.29522,-22.75266,-31.405079999999998,69.0
1774822946.2704146,0.001588582992553711,2026-03-29T22:22:26.270,2026-03-29T18:22:26.270,-33237.494999999995,-45865.259999999995,-85211.685,-50325.57,-13565.295,-17278.335,6858.179999999999,-63605.79,-0.13411572105433284,1.234709719731717,2.7302277029066,5.779636227774218,2.5642000483639973,3.1841731636860424,7.618400508150553,2.069275639339512,-0.265685355,-0.488951385,0.842954385,5.29522,-22.75266,-31.405079999999998,69.0
1774822946.270432,1.7404556274414062e-05,2026-03-29T22:22:26.270,2026-03-29T18:22:26.270,-33236.145,-45851.85,-85181.175,-50295.06,-13538.609999999999,-17249.67,6871.634999999999,-63600.299999999996,-0.6166881031597039,7.153250229903957,7.819730865419441,8.97022666857045,6.960606153481894,7.711006024591555,3.842325501698436,0.16229006868554222,-0.265685355,-0.488951385,0.842954385,5.29522,-22.75266,-31.405079999999998,69.0
1774822946.2753303,0.0048983097076416016,2026-03-29T22:22:26.275,2026-03-29T18:22:26.275,-33240.555,-45847.845,-85162.185,-50269.994999999995,-13523.58,-17240.445,6869.16,-63600.479999999996,-0.6668930151284138,9.630741264667138,9.317147643268441,8.224488144765791,8.251304181749335,8.613303976011016,-1.8637671873255903,-1.776921256077361,-0.265685355,-0.488951385,0.842954385,5.29522,-22.75266,-31.405079999999998,69.0
1774822946.2753532,2.288818359375e-05,2026-03-29T22:22:26.275,2026-03-29T18:22:26.275,-33259.95,-45876.645,-85198.59,-50289.345,-13542.345,-17264.565,6837.974999999999,-63619.244999999995,-0.3870849581295753,7.465744506121635,6.530095101127591,3.9203784326178495,5.799903200376264,5.46793419129597,-6.825433387999582,-2.832222899491221,-0.265685355,-0.488951385,0.842954385,5.29522,-22.75266,-31.405079999999998,69.0
1774822946.2753747,2.1457672119140625e-05,2026-03-29T22:22:26.275,2026-03-29T18:22:26.275,-33265.395,-45897.345,-85235.31,-50318.369999999995,-13565.43,-17280.27,6823.17,-63623.07,-0.038350106911475786,1.714377246608672,0.7560645515769482,-2.015449784321263,0.6800264200744729,-0.23360471832465335,-8.648811380829653,-2.520984671496179,-0.257018385,-0.48992794500000003,0.8441140500000001,-1.0834599999999999,-21.98966,-30.6726,69.0
1774822946.2753844,9.775161743164062e-06,2026-03-29T22:22:26.275,2026-03-29T18:22:26.275,-33264.27,-45913.545,-85243.23,-50331.15,-13572.404999999999,-17276.94,6831.224999999999,-63613.845,0.13675106663594255,-4.8237621936642965,-5.318919976403423,-6.967688070575077,-4.791693200935886,-5.795706192616258,-6.391112678427913,-1.0270567018510708,-0.257018385,-0.48992794500000003,0.8441140500000001,-1.0834599999999999,-21.98966,-30.6726,69.0
1774822946.2814476,0.006063222885131836,2026-03-29T22:22:26.281,2026-03-29T18:22:26.281,-33264.27,-45914.58,-85227.39,-50322.42,-13567.859999999999,-17271.945,6837.615,-63603.585,0.05935150154164931,-8.976095565188583,-8.87709032015392,-8.788017685422604,-8.108288154901382,-8.59995441925726,-1.0567883024319689,0.894116630352152,-0.257018385,-0.48992794500000003,0.8441140500000001,-1.0834599999999999,-21.98966,-30.6726,69.0
1774822946.2814703,2.2649765014648438e-05,2026-03-29T22:22:26.281,2026-03-29T18:22:26.281,-33271.515,-45905.49,-85234.77,-50341.229999999996,-13589.1,-17292.465,6839.55,-63612.27,-0.15318136127021612,-8.749658867553277,-8.289952513794223,-6.734609840064799,-7.730652473826593,-7.345184250321748,4.8449969371958135,2.2938041446143114,-0.257018385,-0.48992794500000003,0.8441140500000001,-1.0834599999999999,-21.98966,-30.6726,69.0
1774822946.2842207,0.002750396728515625,2026-03-29T22:22:26.284,2026-03-29T18:22:26.284,-33254.595,-45887.354999999996,-85236.25499999999,-50349.015,-13596.66,-17298.36,6832.259999999999,-63615.555,-0.2790884290371977,-4.300303976526338,-3.877986940397047,-1.781166269030078,-3.812012840283131,-2.656013481987183,8.489099149306696,2.503841740644944,-0.257018385,-0.48992794500000003,0.8441140500000001,-1.0834599999999999,-21.98966,-30.6726,69.0
1774822946.2842436,2.288818359375e-05,2026-03-29T22:22:26.284,2026-03-29T18:22:26.284,-33263.46,-45890.685,-85230.405,-50334.57,-13578.975,-17280.135,6837.389999999999,-63615.869999999995,-0.14827242600507004,2.1582368679117963,2.251855251880718,3.8370803889930007,1.8567942993347581,3.226528378344724,8.102336412048231,1.4673390908529242,-0.257018385,-0.48992794500000003,0.8441140500000001,-1.0834599999999999,-21.98966,-30.6726,69.0
1774822946.2903125,0.0060689449310302734,2026-03-29T22:22:26.290,2026-03-29T18:22:26.290,-33257.205,-45880.335,-85224.19499999999,-50332.365,-13579.695,-17278.92,6832.035,-63611.685,0.23314949599729054,7.456604050337862,7.212755775493442,7.632260507580325,6.666270015696433,7.519352441429058,3.8413536670705337,-0.24230810507294157,-0.257018385,-0.48992794500000003,0.8441140500000001,-1.0834599999999999,-21.98966,-30.6726,69.0
1774822946.2903337,2.1219253540039062e-05,2026-03-29T22:22:26.290,2026-03-29T18:22:26.290,-33247.755,-45875.295,-85217.265,-50326.2,-13574.43,-17274.375,6817.1849999999995,-63615.509999999995,0.6662017147772554,9.033881021346092,8.70746938296506,7.972466921672257,8.396793493508572,8.220035268925677,-2.2605845857212574,-1.7247360585272524,-0.257018385,-0.48992794500000003,0.8441140500000001,-1.0834599999999999,-21.98966,-30.6726,69.0
1774822946.2999709,0.009637117385864258,2026-03-29T22:22:26.299,2026-03-29T18:22:26.299,-33255.945,-45868.634999999995,-85193.19,-50300.505,-13553.865,-17259.075,6800.715,-63632.204999999994,0.8643693125443239,6.187675944566237,6.10650430656174,4.792947726803842,6.25383310925805,5.046770454964198,-7.266378056656756,-2.2227747690477195,-0.257018385,-0.48992794500000003,0.8441140500000001,-1.0834599999999999,-21.98966,-30.6726,69.0
1774822946.2999928,2.193450927734375e-05,2026-03-29T22:22:26.299,2026-03-29T18:22:26.299,-33239.07,-45858.869999999995,-85179.915,-50299.92,-13566.555,-17274.645,6812.28,-63618.615,0.6244094094676632,0.39471200264951894,0.7225733430338658,-0.40480858247616724,1.242229889466413,-0.447949855721667,-8.760709557971811,-1.5156634652487857,-0.257018385,-0.48992794500000003,0.8441140500000001,-1.0834599999999999,-21.98966,-30.6726,69.0
1774822946.3000145,2.1696090698242188e-05,2026-03-29T22:22:26.300,2026-03-29T18:22:26.300,-33232.77,-45866.924999999996,-85205.79,-50331.689999999995,-13585.365,-17285.489999999998,6848.775,-63610.829999999994,-0.03370557272694783,-5.44791677257447,-4.8430535694823105,-5.256729709340792,-4.300932737889911,-5.635655089042748,-6.031174677262005,-0.028880762998898166,-0.24938901,-0.48889035000000003,0.847959255,-13.642439999999999,-20.188979999999997,-31.34404,69.0
1774822946.3000216,7.152557373046875e-06,2026-03-29T22:22:26.300,2026-03-29T18:22:26.300,-33257.295,-45892.17,-85230.72,-50353.74,-13600.755,-17290.71,6873.795,-63621.854999999996,-0.8413144892426844,-8.47340806137695,-7.959923893399098,-7.61512672659778,-7.799420852862564,-8.072002798832631,-0.42054860804353406,1.399434247236094,-0.24938901,-0.48889035000000003,0.847959255,-13.642439999999999,-20.188979999999997,-31.34404,69.0
1774822946.3033268,0.003305196762084961,2026-03-29T22:22:26.303,2026-03-29T18:22:26.303,-33275.88,-45899.775,-85229.415,-50343.255,-13603.635,-17296.065,6848.009999999999,-63634.68,-1.394480301960623,-7.26021344691021,-7.222294200113146,-6.508775807899952,-7.644124709048057,-6.65330837295911,5.329204699350403,1.9743916696260126,-0.24938901,-0.48889035000000003,0.847959255,-13.642439999999999,-20.188979999999997,-31.34404,69.0
1774822946.3033545,2.765655517578125e-05,2026-03-29T22:22:26.303,2026-03-29T18:22:26.303,-33264.81,-45889.29,-85203.94499999999,-50310.045,-13583.564999999999,-17281.35,6829.695,-63625.994999999995,-1.35599261745855,-2.5091784529148637,-3.094975479634934,-2.550355477915975,-3.943686998901996,-2.1203909229809303,8.422245425781458,1.3806094467367556,-0.24938901,-0.48889035000000003,0.847959255,-13.642439999999999,-20.188979999999997,-31.34404,69.0
1774822946.3093278,0.005973339080810547,2026-03-29T22:22:26.309,2026-03-29T18:22:26.309,-33258.015,-45880.604999999996,-85198.14,-50310.045,-13578.48,-17274.329999999998,6826.995,-63620.595,-0.6446935834171768,3.343641562646663,2.3509737199782905,2.3838523614841765,1.5353307575802904,3.3216489619222966,7.38082468714979,-0.037902821882284075,-0.24938901,-0.48889035000000003,0.847959255,-13.642439999999999,-20.188979999999997,-31.34404,69.0
1774822946.3093476,1.9788742065429688e-05,2026-03-29T22:22:26.309,2026-03-29T18:22:26.309,-33258.465,-45874.89,-85193.955,-50306.534999999996,-13575.734999999999,-17275.32,6817.365,-63625.5,0.4890806522039491,7.3702259634710465,6.470594019438718,6.040891932527554,6.209760140056479,7.074658679834811,2.7652110562693903,-1.4584643900661547,-0.24938901,-0.48889035000000003,0.847959255,-13.642439999999999,-20.188979999999997,-31.34404,69.0
1774822946.3093648,1.71661376953125e-05,2026-03-29T22:22:26.309,2026-03-29T18:22:26.309,-33256.26,-45873.945,-85197.15,-50311.125,-13572.675,-17273.114999999998,6824.88,-63623.34,1.5506929255206292,7.617022503258031,7.332895786345189,6.826117644390711,7.902497637909665,7.389555147147709,-3.1150348020425964,-2.0323081782452124,-0.24938901,-0.48889035000000003,0.847959255,-13.642439999999999,-20.188979999999997,-31.34404,69.0
1774822946.3093717,6.9141387939453125e-06,2026-03-29T22:22:26.309,2026-03-29T18:22:26.309,-33261.885,-45885.96,-85211.81999999999,-50327.595,-13577.4,-17273.52,6853.7699999999995,-63622.259999999995,2.020102304062022,4.058916723949718,4.635258464037151,4.507607794765167,5.865483178836798,4.1847270551927895,-7.353915141916725,-1.3684773314033716,-0.24938901,-0.48889035000000003,0.847959255,-13.642439999999999,-20.188979999999997,-31.34404,69.0
1774822946.3121483,0.002776622772216797,2026-03-29T22:22:26.312,2026-03-29T18:22:26.312,-33261.165,-45891.225,-85217.08499999999,-50337.9,-13587.57,-17277.84,6860.655,-63616.229999999996,1.6037340038036825,-1.427864967138549,-0.19282715146171417,0.27430084476740746,1.1182926059103055,-0.9433754698084896,-7.891174101613921,0.2185507384376403,-0.24938901,-0.48889035000000003,0.847959255,-13.642439999999999,-20.188979999999997,-31.34404,69.0
1774822946.312157,8.58306884765625e-06,2026-03-29T22:22:26.312,2026-03-29T18:22:26.312,-33250.229999999996,-45887.265,-85215.825,-50335.604999999996,-13597.335,-17289.405,6846.66,-63610.829999999994,0.39841417785923944,-6.044017405056796,-4.731106626673183,-3.8611447798610605,-4.05451737551765,-5.510364590448393,-4.5252532073552505,1.8472782373047434,-0.24938901,-0.48889035000000003,0.847959255,-13.642439999999999,-20.188979999999997,-31.34404,69.0
1774822946.3166056,0.004448652267456055,2026-03-29T22:22:26.316,2026-03-29T18:22:26.316,-33252.975,-45892.71,-85218.97499999999,-50331.689999999995,-13594.545,-17289.585,6839.505,-63611.729999999996,-1.118050895157849,-7.490029627073312,-6.775760607459319,-6.019101169369945,-7.202078255344031,-7.34525971965047,1.0059539397423707,2.537860444520954,-0.24059997,-0.498961125,0.84582303,-19.73118,-18.662979999999997,-29.680699999999998,69.0
1774822946.3166256,2.002716064453125e-05,2026-03-29T22:22:26.316,2026-03-29T18:22:26.316,-33256.17,-45896.265,-85224.15,-50332.455,-13592.205,-17287.155,6839.19,-63612.494999999995,-2.2772715591418007,-5.111711516614659,-5.411890299291473,-5.313973395042173,-6.873360837312847,-5.622746077610474,5.912138573028297,1.7693028229066987,-0.24059997,-0.498961125,0.84582303,-19.73118,-18.662979999999997,-29.680699999999998,69.0
1774822946.3219352,0.005309581756591797,2026-03-29T22:22:26.321,2026-03-29T18:22:26.321,-33270.885,-45889.92,-85216.815,-50324.985,-13584.689999999999,-17279.595,6841.98,-63631.89,-2.5145851251433977,-0.19720256961070384,-1.427943201351047,-2.2216788900602302,-3.2935497662564153,-1.2354338437996994,7.756200081647152,-0.18063105656121922,-0.24059997,-0.498961125,0.84582303,-19.73118,-18.662979999999997,-29.680699999999998,69.0
1774822946.3219647,2.956390380859375e-05,2026-03-29T22:22:26.321,2026-03-29T18:22:26.321,-33273.315,-45880.335,-85208.535,-50316.795,-13577.85,-17271.945,6846.4349999999995,-63642.42,-1.6377140246614268,4.709662308235591,3.117822470998125,1.7010855864158823,1.7678674199149231,3.661885332866355,5.670723411337359,-2.3188582713478487,-0.24059997,-0.498961125,0.84582303,-19.73118,-18.662979999999997,-29.680699999999998,69.0
1774822946.3289013,0.006936550140380859,2026-03-29T22:22:26.328,2026-03-29T18:22:26.328,-33248.34,-45874.665,-85210.2,-50319.945,-13581.18,-17273.565,6846.929999999999,-63619.29,0.05519165136408926,7.11716765695036,5.9473158215652475,4.59107324862113,5.865656486678668,6.705369449129431,0.7754311918937814,-3.430532044752378,-0.24059997,-0.498961125,0.84582303,-19.73118,-18.662979999999997,-29.680699999999998,69.0
1774822946.328917,1.5735626220703125e-05,2026-03-29T22:22:26.328,2026-03-29T18:22:26.328,-33234.435,-45875.205,-85202.50499999999,-50316.03,-13579.875,-17272.485,6845.445,-63605.655,1.8717099300717397,5.844884133691857,5.697558097206494,5.164040892312508,7.059517398862006,6.459511476242816,-4.409461201455329,-2.7423099550482464,-0.24059997,-0.498961125,0.84582303,-19.73118,-18.662979999999997,-29.680699999999998,69.0
1774822946.328931,1.4066696166992188e-05,2026-03-29T22:22:26.328,2026-03-29T18:22:26.328,-33270.93,-45898.695,-85213.395,-50318.415,-13578.435,-17269.605,6834.509999999999,-63622.439999999995,3.0063827932293297,1.5994831230756559,2.57702128016517,3.2898755641168176,4.836540089454672,3.0927352531886947,-7.251730049112852,-0.4027878837036307,-0.24059997,-0.498961125,0.84582303,-19.73118,-18.662979999999997,-29.680699999999998,69.0
1774822946.3289375,6.4373016357421875e-06,2026-03-29T22:22:26.328,2026-03-29T18:22:26.328,-33284.34,-45896.715,-85215.915,-50322.689999999995,-13585.14,-17278.11,6809.13,-63632.475,2.89358138414854,-3.412698572433668,-1.7728100210114117,-0.002471652105347204,0.33514361522596003,-1.7259860263595255,-6.341778927944984,2.500760952764668,-0.24059997,-0.498961125,0.84582303,-19.73118,-18.662979999999997,-29.680699999999998,69.0
1774822946.3327763,0.003838777542114258,2026-03-29T22:22:26.332,2026-03-29T18:22:26.332,-33256.215,-45880.155,-85200.61499999999,-50307.975,-13574.97,-17270.19,6814.125,-63619.47,1.4797279213263206,-6.625663604703704,-5.1269498849627775,-3.069577520149483,-4.228748001113865,-5.64928468997163,-2.1969413974247254,4.440371468319729,-0.24059997,-0.498961125,0.84582303,-19.73118,-18.662979999999997,-29.680699999999998,69.0
1774822946.3327916,1.52587890625e-05,2026-03-29T22:22:26.332,2026-03-29T18:22:26.332,-33258.825,-45891.72,-85211.45999999999,-50321.475,-13589.64,-17282.43,6838.785,-63613.845,-0.7117819034479914,-6.419015123269688,-5.802141267305053,-4.465820163207708,-6.646923047946827,-6.788799180344173,3.018858393367853,4.235665834774234,-0.24059997,-0.498961125,0.84582303,-19.73118,-18.662979999999997,-29.680699999999998,69.0
1774822946.3395667,0.0067751407623291016,2026-03-29T22:22:26.339,2026-03-29T18:22:26.339,-33273.09,-45907.29,-85232.655,-50352.345,-13613.76,-17298.315,6864.255,-63615.329999999994,-2.767186516647247,-2.9267972878804334,-3.4926937672411933,-3.6241867007001116,-5.785590593844395,-4.618688561566262,6.612894457384113,1.7317751299404638,-0.226012605,-0.517759905,0.840024705,-15.427859999999999,-13.993419999999999,-27.483259999999998,69.0
1774822946.339578,1.1205673217773438e-05,2026-03-29T22:22:26.339,2026-03-29T18:22:26.339,-33275.07,-45909.225,-85247.595,-50371.29,-13628.475,-17310.555,6849.99,-63634.814999999995,-3.757482696447209,2.051140400468235,0.5951970113987236,-1.084790009526497,-2.1185857622791806,-0.2150432615039301,6.745745366966738,-2.0087056256740365,-0.226012605,-0.517759905,0.840024705,-15.427859999999999,-13.993419999999999,-27.483259999999998,69.0
1774822946.344627,0.005048990249633789,2026-03-29T22:22:26.344,2026-03-29T18:22:26.344,-33283.305,-45900.945,-85231.395,-50347.53,-13601.654999999999,-17287.065,6846.929999999999,-63639.0,-3.151340249705384,5.977619466400768,4.367469097861411,1.8199067988923523,2.524298872218522,4.27606376184407,3.370971144525621,-5.147145324881431,-0.226012605,-0.517759905,0.840024705,-15.427859999999999,-13.993419999999999,-27.483259999999998,69.0
1774822946.3446996,7.271766662597656e-05,2026-03-29T22:22:26.344,2026-03-29T18:22:26.344,-33265.755,-45872.145,-85205.79,-50323.095,-13581.045,-17270.415,6837.525,-63637.784999999996,-1.0860764688920086,6.866604556064224,5.90327109528189,3.6487571238646135,5.862864361272096,6.679071557494851,-1.7474512366583188,-5.965883983933231,-0.226012605,-0.517759905,0.840024705,-15.427859999999999,-13.993419999999999,-27.483259999999998,69.0
1774822946.354241,0.00954127311706543,2026-03-29T22:22:26.354,2026-03-29T18:22:26.354,-33268.68,-45880.965,-85204.305,-50320.35,-13578.57,-17266.545,6834.285,-63638.865,1.6359529491468867,4.278176405801684,4.418850696024488,3.558548377593166,6.2800042712469875,5.8350959943493,-5.9477107215070015,-3.7860774249687923,-0.226012605,-0.517759905,0.840024705,-15.427859999999999,-13.993419999999999,-27.483259999999998,69.0
1774822946.3542688,2.7894973754882812e-05,2026-03-29T22:22:26.354,2026-03-29T18:22:26.354,-33271.83,-45886.275,-85213.62,-50329.08,-13586.49,-17276.67,6844.7699999999995,-63639.314999999995,3.848594235214458,-0.47557403123024283,0.6551993212518439,1.6897297874414972,3.6013347173119494,2.1534777977536996,-7.044179670868761,0.575875893132961,-0.226012605,-0.517759905,0.840024705,-15.427859999999999,-13.993419999999999,-27.483259999999998,69.0
1774822946.3542917,2.288818359375e-05,2026-03-29T22:22:26.354,2026-03-29T18:22:26.354,-33271.47,-45886.59,-85213.53,-50331.555,-13591.08,-17281.035,6850.575,-63634.274999999994,4.513586293414733,-5.005307415452316,-3.4977442387293007,-0.9438976485160643,-0.8336028949310039,-2.59073672367327,-4.457175919029386,5.092817975106355,-0.226012605,-0.517759905,0.840024705,-15.427859999999999,-13.993419999999999,-27.483259999999998,69.0
1774822946.354299,7.3909759521484375e-06,2026-03-29T22:22:26.354,2026-03-29T18:22:26.354,-33276.33,-45891.27,-85223.61,-50337.27,-13595.535,-17284.32,6824.474999999999,-63643.814999999995,3.199961128185053,-7.048900175093789,-5.947031851643203,-2.9890302150099073,-4.8363805493662335,-6.111266032130996,0.48312776931312046,7.466502981338269,-0.226012605,-0.517759905,0.840024705,-15.427859999999999,-13.993419999999999,-27.483259999999998,69.0
1774822946.354308,8.821487426757812e-06,2026-03-29T22:22:26.354,2026-03-29T18:22:26.354,-33270.57,-45887.805,-85217.715,-50328.314999999995,-13587.3,-17281.53,6817.32,-63642.24,0.3337523604194496,-5.596231580850419,-5.4396332795434965,-3.4341196455427627,-6.442054183592007,-6.705710229725921,5.217455163154255,6.2882855286604045,-0.226012605,-0.517759905,0.840024705,-15.427859999999999,-13.993419999999999,-27.483259999999998,69.0
1774822946.3543143,6.4373016357421875e-06,2026-03-29T22:22:26.354,2026-03-29T18:22:26.354,-33261.84,-45876.509999999995,-85197.87,-50310.765,-13574.654999999999,-17273.295,6827.13,-63631.439999999995,-2.9175724271617516,-1.3760419768125298,-2.186338427500213,-2.099645292750779,-4.865712439844414,-4.069047004330838,7.275883627198432,1.8379825866116777,-0.226012605,-0.517759905,0.840024705,-15.427859999999999,-13.993419999999999,-27.483259999999998,69.0
1774822946.3567314,0.0024170875549316406,2026-03-29T22:22:26.356,2026-03-29T18:22:26.356,-33253.515,-45868.95,-85185.36,-50297.22,-13562.595,-17261.19,6851.88,-63621.405,-5.109300468590371,3.525174948608625,2.237951964469209,0.2965618106211559,-0.8803991620367068,0.5594070702117412,5.557463648790718,-3.9192431511129184,-0.20715279,-0.52380237,0.83068635,-12.879439999999999,-10.880379999999999,-25.52998,69.0
1774822946.356753,2.1696090698242188e-05,2026-03-29T22:22:26.356,2026-03-29T18:22:26.356,-33247.845,-45863.64,-85173.84,-50282.82,-13548.24,-17241.93,6892.38,-63616.59,-5.154363367967843,6.707187963889675,5.664234645343893,2.518199364073921,3.5631356596267603,4.982560726586988,0.911042989459596,-8.19761424421916,-0.20715279,-0.52380237,0.83068635,-12.879439999999999,-10.880379999999999,-25.52998,69.0
1774822946.3609521,0.004199028015136719,2026-03-29T22:22:26.360,2026-03-29T18:22:26.360,-33252.705,-45872.1,-85191.56999999999,-50297.49,-13557.779999999999,-17249.805,6883.11,-63624.42,-2.8539447088072745,6.635037323675116,6.3894394357541175,3.4357257814229962,6.28693069218626,7.085933514790816,-4.28667275766159,-8.738663234434334,-0.20715279,-0.52380237,0.83068635,-12.879439999999999,-10.880379999999999,-25.52998,69.0
1774822946.3609793,2.7179718017578125e-05,2026-03-29T22:22:26.360,2026-03-29T18:22:26.360,-33260.49,-45894.195,-85235.12999999999,-50329.305,-13579.47,-17266.86,6842.205,-63633.149999999994,0.9314837068461903,3.371644814736423,4.008943434224716,2.5857857089931167,5.9446152565019545,5.83991359304837,-7.3454217312946595,-4.99011882104445,-0.20715279,-0.52380237,0.83068635,-12.879439999999999,-10.880379999999999,-25.52998,69.0
1774822946.3706183,0.00963902473449707,2026-03-29T22:22:26.370,2026-03-29T18:22:26.370,-33265.89,-45915.75,-85260.915,-50345.64,-13592.97,-17279.595,6824.925,-63632.79,4.585163350133262,-1.4828516425155058,-0.38038502491789405,0.3930042269163273,2.6768619939631404,1.7921839979972938,-6.648282542841508,1.4946883134595566,-0.20715279,-0.52380237,0.83068635,-12.879439999999999,-10.880379999999999,-25.52998,69.0
1774822946.370736,0.00011754035949707031,2026-03-29T22:22:26.370,2026-03-29T18:22:26.370,-33257.7,-45929.205,-85264.69499999999,-50352.299999999996,-13595.894999999999,-17283.149999999998,6849.585,-63616.725,6.4158779035642235,-5.5941615490714085,-4.700724682979228,-2.0471770574351837,-1.9517145118340007,-3.1805120455803597,-2.498071519210052,7.691283449891657,-0.20715279,-0.52380237,0.83068635,-12.879439999999999,-10.880379999999999,-25.52998,69.0
1774822946.370758,2.2172927856445312e-05,2026-03-29T22:22:26.370,2026-03-29T18:22:26.370,-33255.945,-45919.439999999995,-85246.29,-50353.2,-13597.064999999999,-17283.015,6865.155,-63615.149999999994,5.436195572202448,-7.028647362126926,-6.883360211832681,-3.5113684914536787,-5.702980813166333,-6.745064029017904,3.017141062446771,10.518873254398613,-0.20715279,-0.52380237,0.83068635,-12.879439999999999,-10.880379999999999,-25.52998,69.0
1774822946.3707638,5.7220458984375e-06,2026-03-29T22:22:26.370,2026-03-29T18:22:26.370,-33264.765,-45894.24,-85226.895,-50340.015,-13589.865,-17276.67,6872.49,-63624.195,1.8814137393047274,-5.162488802530019,-5.853207596288481,-3.2490001270312976,-6.742225900562461,-7.202078574812888,7.078739535406294,8.371977673101114,-0.20715279,-0.52380237,0.83068635,-12.879439999999999,-10.880379999999999,-25.52998,69.0
1774822946.3744144,0.003650665283203125,2026-03-29T22:22:26.374,2026-03-29T18:22:26.374,-33264.405,-45890.189999999995,-85238.55,-50337.045,-13592.295,-17276.579999999998,6863.355,-63620.189999999995,-2.7985362101983853,-0.9374906759114365,-2.0413865640409976,-1.3505174108972455,-4.5252745532758105,-4.285937866892857,7.578367730016268,2.0071101446884834,-0.20715279,-0.52380237,0.83068635,-12.879439999999999,-10.880379999999999,-25.52998,69.0
1774822946.3744287,1.430511474609375e-05,2026-03-29T22:22:26.374,2026-03-29T18:22:26.374,-33299.369999999995,-45904.59,-85237.83,-50341.14,-13598.369999999999,-17281.079999999998,6788.07,-63662.805,-6.517741051188953,3.6330429790021754,2.8117279752686275,1.2913903190173261,-0.07080203734596373,0.6975721936605793,4.208173778193061,-5.696326259241966,-0.20715279,-0.52380237,0.83068635,-12.879439999999999,-10.880379999999999,-25.52998,69.0
1774822946.376927,0.002498149871826172,2026-03-29T22:22:26.376,2026-03-29T18:22:26.376,-33303.555,-45898.155,-85222.44,-50342.04,-13594.545,-17281.305,6788.655,-63678.645,-7.480174928455717,6.442334820717228,6.464594104078664,3.4058600748321983,4.513789164248353,5.462028898379791,-1.3619501410685737,-11.043310005860002,-0.198546855,-0.514341945,0.81970005,-17.28958,-15.717799999999999,-26.4761,69.0
1774822946.3769517,2.47955322265625e-05,2026-03-29T22:22:26.376,2026-03-29T18:22:26.376,-33289.29,-45895.77,-85206.825,-50336.055,-13587.119999999999,-17278.11,6822.09,-63661.814999999995,-5.044175541998604,6.268850400830991,7.212238156832595,3.949717915657282,7.029504379218464,7.789556720295635,-6.318577862255818,-11.303391766327097,-0.198546855,-0.514341945,0.81970005,-17.28958,-15.717799999999999,-26.4761,69.0
1774822946.3808491,0.003897428512573242,2026-03-29T22:22:26.380,2026-03-29T18:22:26.380,-33279.705,-45893.835,-85201.965,-50341.095,-13594.68,-17290.755,6832.125,-63649.35,-0.11054278062834728,3.2975292522315853,4.6720460195294145,2.6084578722001983,6.233973355370475,6.557109672654257,-8.131255209184804,-6.1025373088812565,-0.198546855,-0.514341945,0.81970005,-17.28958,-15.717799999999999,-26.4761,69.0
1774822946.3808773,2.8133392333984375e-05,2026-03-29T22:22:26.380,2026-03-29T18:22:26.380,-33276.15,-45898.56,-85217.04,-50353.92,-13612.005,-17310.285,6830.505,-63643.77,5.18834856631438,-1.0335063638259037,-0.040033781948525124,-0.042748082596156485,2.4437461946937638,2.267824931944637,-5.846002297691486,2.2823368185234845,-0.198546855,-0.514341945,0.81970005,-17.28958,-15.717799999999999,-26.4761,69.0
1774822946.3876052,0.006727933883666992,2026-03-29T22:22:26.387,2026-03-29T18:22:26.387,-33259.994999999995,-45896.625,-85221.0,-50350.59,-13615.019999999999,-17309.43,6830.325,-63633.015,8.405036577113545,-4.749336300289068,-4.815977526244074,-2.793617528911147,-2.5969200909468086,-3.1596172959912248,-0.5839025896041109,9.921670624115613,-0.198546855,-0.514341945,0.81970005,-17.28958,-15.717799999999999,-26.4761,69.0
1774822946.3876257,2.0503997802734375e-05,2026-03-29T22:22:26.387,2026-03-29T18:22:26.387,-33255.945,-45899.189999999995,-85208.715,-50317.74,-13590.404999999999,-17280.045,6843.0599999999995,-63623.79,7.908413107678916,-6.252612993542677,-7.507266018885889,-4.352360894014107,-6.523500497945174,-7.252802747429564,5.014700861271816,13.086651127633056,-0.198546855,-0.514341945,0.81970005,-17.28958,-15.717799999999999,-26.4761,69.0
1774822946.387642,1.621246337890625e-05,2026-03-29T22:22:26.387,2026-03-29T18:22:26.387,-33283.619999999995,-45896.04,-85192.155,-50292.45,-13567.949999999999,-17258.22,6853.23,-63637.244999999995,3.7067007361805113,-5.006424304348,-6.888263100568185,-3.9448347521909075,-7.459224130961609,-8.11031934568572,8.122733035508302,10.07826915050586,-0.198546855,-0.514341945,0.81970005,-17.28958,-15.717799999999999,-26.4761,69.0
1774822946.3876464,4.5299530029296875e-06,2026-03-29T22:22:26.387,2026-03-29T18:22:26.387,-33267.915,-45883.395,-85195.665,-50310.99,-13582.17,-17269.875,6864.57,-63630.314999999995,-2.4519954673301174,-1.696219962742635,-3.20133486028846,-1.684879436037081,-4.905158061984006,-5.278958439586878,7.160291851137339,2.13056120338364,-0.198546855,-0.514341945,0.81970005,-17.28958,-15.717799999999999,-26.4761,69.0
1774822946.3951488,0.007502317428588867,2026-03-29T22:22:26.395,2026-03-29T18:22:26.395,-33264.945,-45891.54,-85205.97,-50323.005,-13578.119999999999,-17260.155,6871.995,-63622.979999999996,-7.798193367727478,2.1574663699860155,1.9522984948108446,1.455563296825373,0.0068469015753085845,0.01846619793526258,2.6002488271736874,-7.089171906209782,-0.198546855,-0.514341945,0.81970005,-17.28958,-15.717799999999999,-26.4761,69.0
1774822946.3951678,1.9073486328125e-05,2026-03-29T22:22:26.395,2026-03-29T18:22:26.395,-33284.34,-45899.64,-85216.36499999999,-50330.79,-13572.585,-17254.215,6846.929999999999,-63638.145,-9.788691899694587,4.914551048235275,6.3191888927058,4.068299903583896,5.0221405781766695,5.415268743570545,-3.2662179399326043,-13.184960955346035,-0.198546855,-0.514341945,0.81970005,-17.28958,-15.717799999999999,-26.4761,69.0
1774822946.3996153,0.004447460174560547,2026-03-29T22:22:26.399,2026-03-29T18:22:26.399,-33276.24,-45895.14,-85219.37999999999,-50343.795,-13590.945,-17275.815,6791.219999999999,-63642.42,-7.320592170325844,5.515093855092484,7.980859836264993,4.938209470063614,7.801653337898915,8.46011553620816,-7.487128793307749,-13.143870276984682,-0.197692365,-0.513121245,0.81701451,-22.60006,-21.8218,-29.32972,69.0
1774822946.3996353,2.002716064453125e-05,2026-03-29T22:22:26.399,2026-03-29T18:22:26.399,-33274.44,-45893.88,-85203.315,-50320.935,-13582.215,-17270.55,6792.795,-63646.604999999996,-1.3300085542459559,3.864492045800607,6.188935296480751,3.6004468959352427,7.011408948335327,7.729203851421035,-7.94310598908237,-6.833220195886972,-0.197692365,-0.513121245,0.81701451,-22.60006,-21.8218,-29.32972,69.0
1774822946.399655,1.9788742065429688e-05,2026-03-29T22:22:26.399,2026-03-29T18:22:26.399,-33271.29,-45898.29,-85193.37,-50299.92,-13566.105,-17255.79,6835.32,-63635.22,5.545329241384764,0.7781767921828342,1.6891273159708795,0.5738926711121718,2.9565691062025854,3.4878749526087,-4.41815284428735,2.864653831582984,-0.197692365,-0.513121245,0.81701451,-22.60006,-21.8218,-29.32972,69.0
1774822946.3996654,1.0251998901367188e-05,2026-03-29T22:22:26.399,2026-03-29T18:22:26.399,-33289.83,-45918.134999999995,-85213.08,-50316.21,-13578.345,-17266.86,6866.955,-63631.439999999995,10.129057195261671,-2.4355651908894567,-3.5996635500620693,-2.8412240146314045,-2.538949199573694,-2.404096940270702,1.2956686660634091,11.37888096695682,-0.197692365,-0.513121245,0.81701451,-22.60006,-21.8218,-29.32972,69.0
1774822946.4065952,0.006929874420166016,2026-03-29T22:22:26.406,2026-03-29T18:22:26.406,-33267.375,-45904.5,-85216.455,-50326.83,-13593.105,-17283.555,6873.66,-63613.35,10.181825712525447,-4.53601963127731,-7.40792053776031,-5.122265975676161,-6.958639047341431,-7.31096851190016,6.311296137217392,14.623147255856777,-0.197692365,-0.513121245,0.81701451,-22.60006,-21.8218,-29.32972,69.0
1774822946.406746,0.0001506805419921875,2026-03-29T22:22:26.406,2026-03-29T18:22:26.406,-33272.19,-45910.979999999996,-85235.48999999999,-50347.53,-13614.57,-17307.899999999998,6854.219999999999,-63614.34,5.500286849288521,-4.811391831934252,-8.085856281761327,-5.200155899261781,-8.249235334802039,-9.002640072600013,8.111441856055857,10.973853953224115,-0.197692365,-0.513121245,0.81701451,-22.60006,-21.8218,-29.32972,69.0
1774822946.40876,0.00201416015625,2026-03-29T22:22:26.408,2026-03-29T18:22:26.408,-33279.705,-45912.015,-85247.19,-50359.59,-13625.279999999999,-17315.684999999998,6841.9349999999995,-63624.104999999996,-1.9025863462387778,-3.2806344916425174,-5.309435206313403,-2.954373201910618,-5.774349720115335,-6.669347641311245,5.81961740116473,2.087836361583893,-0.197692365,-0.513121245,0.81701451,-22.60006,-21.8218,-29.32972,69.0
1774822946.4087708,1.0728836059570312e-05,2026-03-29T22:22:26.408,2026-03-29T18:22:26.408,-33282.9,-45895.049999999996,-85218.3,-50333.13,-13600.8,-17290.845,6847.5599999999995,-63643.59,-8.66185074410633,-0.605836495152081,-0.2248701300117322,0.6995138830423641,-0.6231765986258376,-1.3074193811641313,0.6327898500377687,-7.854928301411389,-0.197692365,-0.513121245,0.81701451,-22.60006,-21.8218,-29.32972,69.0
1774822946.4128225,0.004051685333251953,2026-03-29T22:22:26.412,2026-03-29T18:22:26.412,-33280.92,-45896.805,-85217.715,-50329.665,-13591.529999999999,-17278.245,6856.29,-63633.24,-11.599861356140373,2.202403174961564,5.028468539881947,4.18242108340328,4.873938848112348,4.707466641954444,-4.8000901174417825,-14.13569405395419,-0.197692365,-0.513121245,0.81701451,-22.60006,-21.8218,-29.32972,69.0
1774822946.4128492,2.6702880859375e-05,2026-03-29T22:22:26.412,2026-03-29T18:22:26.412,-33279.435,-45905.04,-85229.50499999999,-50339.025,-13597.064999999999,-17280.225,6844.905,-63627.57,-9.23201925402541,4.15206763087289,8.21684194704672,5.934075872277384,8.20601828946237,8.677113218331083,-7.732193053530742,-13.758382019326802,-0.197692365,-0.513121245,0.81701451,-22.60006,-21.8218,-29.32972,69.0
1774822946.4182937,0.005444526672363281,2026-03-29T22:22:26.418,2026-03-29T18:22:26.418,-33276.24,-45905.354999999996,-85232.745,-50340.78,-13599.494999999999,-17283.195,6832.349999999999,-63626.31,-2.5198126603078848,4.5854127575544075,7.956862767959117,5.111295764963141,7.833342774469413,8.796618617805182,-6.712756699562234,-6.894281410538316,-0.18810987,-0.51940785,0.816587265,-25.80466,-21.27244,-29.39076,69.0
1774822946.4183257,3.1948089599609375e-05,2026-03-29T22:22:26.418,2026-03-29T18:22:26.418,-33280.47,-45903.869999999995,-85224.95999999999,-50332.049999999996,-13590.449999999999,-17275.454999999998,6838.065,-63626.13,5.512594985424585,3.3656385817163423,4.310103694541842,1.9904546495455664,3.90044095819017,4.979324128627711,-2.3115197709926654,3.1939737221788027,-0.18810987,-0.51940785,0.816587265,-25.80466,-21.27244,-29.39076,69.0
1774822946.4206607,0.002335071563720703,2026-03-29T22:22:26.420,2026-03-29T18:22:26.420,-33289.244999999995,-45904.409999999996,-85219.065,-50324.445,-13583.25,-17268.614999999998,6841.844999999999,-63636.479999999996,11.14999583158009,0.905652714940868,-1.2249647359842517,-2.1169607666684667,-1.8209072804372441,-1.0883612548845707,3.19053898122229,11.716824103727314,-0.18810987,-0.51940785,0.816587265,-25.80466,-21.27244,-29.39076,69.0
1774822946.4206772,1.6450881958007812e-05,2026-03-29T22:22:26.420,2026-03-29T18:22:26.420,-33278.354999999996,-45897.659999999996,-85211.595,-50318.415,-13583.744999999999,-17271.585,6841.9349999999995,-63623.475,11.720055021954881,-1.9563316104197446,-6.327161933955185,-5.415637365582014,-6.736265485065114,-6.695437387348343,6.979197865015579,14.654696070573767,-0.18810987,-0.51940785,0.816587265,-25.80466,-21.27244,-29.39076,69.0
1774822946.429352,0.008674860000610352,2026-03-29T22:22:26.429,2026-03-29T18:22:26.429,-33276.06,-45900.314999999995,-85216.59,-50320.305,-13588.965,-17278.605,6844.7699999999995,-63616.905,6.8730946802267345,-4.207409826214534,-8.82302620318435,-6.41380396362887,-8.61328617273428,-9.325337545436954,7.146672317334179,10.675597733292193,-0.18810987,-0.51940785,0.816587265,-25.80466,-21.27244,-29.39076,69.0
1774822946.4293685,1.6450881958007812e-05,2026-03-29T22:22:26.429,2026-03-29T18:22:26.429,-33288.57,-45912.869999999995,-85232.11499999999,-50330.475,-13600.529999999999,-17292.42,6841.71,-63625.994999999995,-1.211441455587053,-4.985460260098991,-7.610432271886348,-4.600790982287491,-6.6024247173594794,-7.794482833804418,3.656262129184982,1.7484449023067532,-0.18810987,-0.51940785,0.816587265,-25.80466,-21.27244,-29.39076,69.0
1774822946.4293828,1.430511474609375e-05,2026-03-29T22:22:26.429,2026-03-29T18:22:26.429,-33299.729999999996,-45914.805,-85229.19,-50324.805,-13592.07,-17284.32,6844.094999999999,-63639.494999999995,-8.81120813123795,-3.896233864924645,-3.1446585374758946,-0.7056510279826942,-1.6238187750411563,-2.791136333222874,-1.6572847673108688,-7.835161351845874,-0.18810987,-0.51940785,0.816587265,-25.80466,-21.27244,-29.39076,69.0
1774822946.4293876,4.76837158203125e-06,2026-03-29T22:22:26.429,2026-03-29T18:22:26.429,-33307.065,-45917.46,-85226.31,-50322.06,-13585.814999999999,-17274.465,6846.884999999999,-63642.555,-12.391252379690927,-1.213081902454197,2.727398472700265,3.5938183213909665,4.057451671620085,3.434207456075506,-6.0447795136259925,-13.543283303528169,-0.18810987,-0.51940785,0.816587265,-25.80466,-21.27244,-29.39076,69.0
1774822946.4327707,0.003383159637451172,2026-03-29T22:22:26.432,2026-03-29T18:22:26.432,-33297.479999999996,-45911.61,-85229.55,-50330.79,-13595.715,-17281.305,6839.6849999999995,-63636.479999999996,-10.266680352986201,2.1425790180423854,7.528161888220147,6.3976048308394295,7.870792678166377,8.088478864378951,-7.2602550242826975,-12.771358998827528,-0.18810987,-0.51940785,0.816587265,-25.80466,-21.27244,-29.39076,69.0
1774822946.432792,2.1219253540039062e-05,2026-03-29T22:22:26.432,2026-03-29T18:22:26.432,-33284.655,-45898.65,-85224.735,-50334.39,-13601.564999999999,-17285.085,6835.995,-63630.0,-3.40700485207507,4.882295141116507,9.19458423909731,6.429898213506491,8.11387009339429,9.101140733327528,-4.7097632983642495,-6.047249577888854,-0.18810987,-0.51940785,0.816587265,-25.80466,-21.27244,-29.39076,69.0
1774822946.4387145,0.005922555923461914,2026-03-29T22:22:26.438,2026-03-29T18:22:26.438,-33275.385,-45898.65,-85231.17,-50339.79,-13605.705,-17286.39,6825.42,-63619.965,5.007446781438005,5.8308029580917635,6.967658858233309,3.625390270809802,4.720148505729385,6.0564891540702055,0.25608593587741646,3.2919254027393134,-0.17602494,-0.5291124150000001,0.816953475,-24.32444,-19.27338,-25.04166,69.0
1774822946.4387417,2.7179718017578125e-05,2026-03-29T22:22:26.438,2026-03-29T18:22:26.438,-33258.78,-45899.505,-85234.77,-50348.295,-13613.13,-17292.329999999998,6817.995,-63596.384999999995,11.074151539345015,4.43508628577514,1.7414802469126405,-0.8169756070115065,-0.7296541316162828,0.36783450278546675,5.050792568422602,10.764978756799234,-0.17602494,-0.5291124150000001,0.816953475,-24.32444,-19.27338,-25.04166,69.0
1774822946.4413457,0.0026040077209472656,2026-03-29T22:22:26.441,2026-03-29T18:22:26.441,-33242.58,-45903.465,-85247.81999999999,-50361.705,-13626.359999999999,-17306.415,6824.835,-63573.975,11.99911718930084,1.079037306274546,-4.2907284879840875,-4.949502217951741,-5.749942014536631,-5.38203297434148,7.19219336947442,12.91920812841512,-0.17602494,-0.5291124150000001,0.816953475,-24.32444,-19.27338,-25.04166,69.0
1774822946.4413629,1.71661376953125e-05,2026-03-29T22:22:26.441,2026-03-29T18:22:26.441,-33260.13,-45919.755,-85260.465,-50372.415,-13636.439999999999,-17313.39,6822.585,-63579.06,7.401377574232556,-2.972969577487277,-8.557125077283631,-6.938143338940792,-8.09571730279302,-8.625442759869564,5.582071599656217,8.947133958534977,-0.17602494,-0.5291124150000001,0.816953475,-24.32444,-19.27338,-25.04166,69.0
1774822946.4520996,0.010736703872680664,2026-03-29T22:22:26.452,2026-03-29T18:22:26.452,-33303.78,-45914.715,-85236.25499999999,-50343.345,-13609.26,-17291.79,6824.115,-63641.115,-0.5262840995822459,-6.035258069868555,-9.208893676157484,-5.886319318729054,-6.778272931401227,-7.971122715322665,1.0671812996922707,0.9804070794729217,-0.17602494,-0.5291124150000001,0.816953475,-24.32444,-19.27338,-25.04166,69.0
1774822946.45212,2.0503997802734375e-05,2026-03-29T22:22:26.452,2026-03-29T18:22:26.452,-33297.659999999996,-45893.97,-85212.855,-50320.575,-13592.654999999999,-17284.005,6842.16,-63648.494999999995,-8.07077251129913,-6.706505376402121,-5.9291654654978965,-2.245390337394034,-2.486075266708344,-3.8100508784450255,-4.0042667402390215,-7.041476067016038,-0.17602494,-0.5291124150000001,0.816953475,-24.32444,-19.27338,-25.04166,69.0
1774822946.4521391,1.9073486328125e-05,2026-03-29T22:22:26.452,2026-03-29T18:22:26.452,-33317.64,-45903.42,-85213.75499999999,-50315.85,-13585.455,-17271.809999999998,6860.745,-63661.365,-11.757124277315834,-4.524289178858105,-0.0914756365410288,2.3794509053237665,2.7708239793958147,1.902862224748858,-6.999006721168762,-11.332199380361727,-0.17602494,-0.5291124150000001,0.816953475,-24.32444,-19.27338,-25.04166,69.0
1774822946.4521463,7.152557373046875e-06,2026-03-29T22:22:26.452,2026-03-29T18:22:26.452,-33315.93,-45908.145,-85214.295,-50316.57,-13585.23,-17264.475,6868.44,-63652.814999999995,-9.970601076733608,-0.2562485018359044,5.813761830613233,5.944737807387915,6.611247571654735,6.57478305232576,-6.359481438029549,-10.067649893908733,-0.17602494,-0.5291124150000001,0.816953475,-24.32444,-19.27338,-25.04166,69.0
1774822946.4663825,0.014236211776733398,2026-03-29T22:22:26.466,2026-03-29T18:22:26.466,-33282.81,-45887.715,-85193.09999999999,-50298.255,-13572.225,-17254.17,6858.405,-63624.735,-3.6752620616476874,4.346988443508611,9.24704498172237,6.883394495651736,7.375094774245989,8.166989892099606,-2.4078124330679866,-4.168834745381269,-0.17602494,-0.5291124150000001,0.816953475,-24.32444,-19.27338,-25.04166,69.0
1774822946.466401,1.8596649169921875e-05,2026-03-29T22:22:26.466,2026-03-29T18:22:26.466,-33259.455,-45870.705,-85176.315,-50275.08,-13548.15,-17231.579999999998,6886.71,-63601.11,4.0965315381906136,7.272462769803108,8.72212447030862,4.803607266595484,4.850147235520159,6.097948373696462,2.8201385209233827,3.281029901030236,-0.17602494,-0.5291124150000001,0.816953475,-24.32444,-19.27338,-25.04166,69.0
1774822946.4664347,3.361701965332031e-05,2026-03-29T22:22:26.466,2026-03-29T18:22:26.466,-33260.985,-45880.47,-85191.795,-50283.494999999995,-13554.045,-17237.43,6894.2699999999995,-63591.119999999995,9.717218522146794,7.14147064335468,4.459737169910916,0.6552583862960605,0.3106240038829245,1.450708835789793,6.623946699076392,8.641359408910025,-0.169738335,-0.53527695,0.8204935050000001,-19.563319999999997,-14.43596,-23.1189,69.0
1774822946.4664457,1.0967254638671875e-05,2026-03-29T22:22:26.466,2026-03-29T18:22:26.466,-33288.795,-45908.865,-85235.67,-50326.155,-13591.08,-17275.23,6856.695,-63615.555,10.67883034104847,3.8747397752956463,-1.6999502610514863,-3.7085221346464645,-4.125287447896186,-3.587304735238077,7.030168756415573,9.508172827431842,-0.169738335,-0.53527695,0.8204935050000001,-19.563319999999997,-14.43596,-23.1189,69.0
1774822946.466454,8.344650268554688e-06,2026-03-29T22:22:26.466,2026-03-29T18:22:26.466,-33311.159999999996,-45922.275,-85252.14,-50346.99,-13609.17,-17292.015,6848.73,-63644.625,6.7291872542513955,-1.2018972719572967,-7.094845075193586,-6.37036676846547,-6.495379966210578,-6.765010267766582,3.8100714451380564,5.806766009175518,-0.169738335,-0.53527695,0.8204935050000001,-19.563319999999997,-14.43596,-23.1189,69.0
1774822946.4664607,6.67572021484375e-06,2026-03-29T22:22:26.466,2026-03-29T18:22:26.466,-33285.24,-45911.205,-85238.145,-50333.939999999995,-13599.765,-17284.905,6839.82,-63633.104999999996,-0.09343916650061432,-5.8951370074943545,-9.40197630468343,-6.203201128747444,-5.873708183147886,-6.788820748475483,-1.3995577239319783,-0.3202218047432493,-0.169738335,-0.53527695,0.8204935050000001,-19.563319999999997,-14.43596,-23.1189,69.0
1774822946.4664688,8.106231689453125e-06,2026-03-29T22:22:26.466,2026-03-29T18:22:26.466,-33254.82,-45902.79,-85220.055,-50316.479999999996,-13589.279999999999,-17273.114999999998,6834.42,-63606.465,-6.5082279823447635,-8.107907988464794,-7.651191863864026,-3.353675341566265,-2.7304005477971804,-3.853706118075257,-5.93410733624942,-5.710671949034578,-0.169738335,-0.53527695,0.8204935050000001,-19.563319999999997,-14.43596,-23.1189,69.0
1774822946.466476,7.152557373046875e-06,2026-03-29T22:22:26.466,2026-03-29T18:22:26.466,-33300.765,-45916.335,-85213.215,-50305.095,-13579.244999999999,-17259.03,6829.92,-63624.96,-9.585177311231808,-6.798023973772038,-2.642888441900624,0.8559757410822526,1.368115072685354,0.5365112674692438,-7.466624863808475,-7.8121145065809285,-0.169738335,-0.53527695,0.8204935050000001,-19.563319999999997,-14.43596,-23.1189,69.0
1774822946.46938,0.0029039382934570312,2026-03-29T22:22:26.469,2026-03-29T18:22:26.469,-33320.159999999996,-45910.979999999996,-85219.965,-50315.67,-13586.894999999999,-17264.295,6823.259999999999,-63639.63,-8.103358925070136,-2.483294595461786,3.4151223650519693,4.548742050394094,4.542268686063487,4.337167713721323,-5.200158496245959,-5.9038118448217025,-0.169738335,-0.53527695,0.8204935050000001,-19.563319999999997,-14.43596,-23.1189,69.0
1774822946.4693904,1.049041748046875e-05,2026-03-29T22:22:26.469,2026-03-29T18:22:26.469,-33302.34,-45906.39,-85229.28,-50322.33,-13592.43,-17270.19,6822.855,-63630.945,-3.035301360585838,2.958205753659188,7.888473059624456,6.1414344249184785,5.473172761789956,5.927597893802094,-0.27613172909857514,-1.3209027947365677,-0.169738335,-0.53527695,0.8204935050000001,-19.563319999999997,-14.43596,-23.1189,69.0
1774822946.4732783,0.0038878917694091797,2026-03-29T22:22:26.473,2026-03-29T18:22:26.473,-33297.84,-45910.125,-85244.04,-50338.935,-13603.59,-17283.375,6825.915,-63628.784999999996,3.0349175421773498,7.118983150301033,8.876070986090049,5.031905059050291,3.9553801895036504,4.811697171307713,4.808882611544492,3.374689567100427,-0.169738335,-0.53527695,0.8204935050000001,-19.563319999999997,-14.43596,-23.1189,69.0
1774822946.473354,7.581710815429688e-05,2026-03-29T22:22:26.473,2026-03-29T18:22:26.473,-33293.115,-45910.259999999995,-85248.72,-50347.439999999995,-13606.92,-17286.434999999998,6846.344999999999,-63621.81,7.229238240543091,8.150410001618974,6.031988611417543,1.8225671405261237,0.8943947132093144,1.7465607651550934,7.477189957729136,5.79258229186644,-0.169738335,-0.53527695,0.8204935050000001,-19.563319999999997,-14.43596,-23.1189,69.0
1774822946.4809508,0.007596731185913086,2026-03-29T22:22:26.480,2026-03-29T18:22:26.480,-33293.34,-45915.345,-85251.015,-50349.689999999995,-13608.9,-17284.41,6865.5599999999995,-63617.985,7.757055110953667,5.605686932470076,0.687477829581137,-2.0003283957099742,-2.2071088748026972,-1.717420480567419,6.381534891148427,4.930561944737138,-0.16699176,-0.53686386,0.81835728,-23.97346,-11.490779999999999,-26.90338,69.0
1774822946.480971,2.0265579223632812e-05,2026-03-29T22:22:26.480,2026-03-29T18:22:26.480,-33287.895,-45917.055,-85247.91,-50346.854999999996,-13609.574999999999,-17286.12,6863.085,-63615.104999999996,4.6901205523539184,0.6428558672999832,-4.771395355958005,-4.762832555817801,-3.9916238718669796,-4.021337430595595,2.0845695672555196,1.5903946081961233,-0.16699176,-0.53686386,0.81835728,-23.97346,-11.490779999999999,-26.90338,69.0
1774822946.486542,0.005570888519287109,2026-03-29T22:22:26.486,2026-03-29T18:22:26.486,-33289.92,-45916.604999999996,-85236.795,-50343.299999999996,-13604.355,-17281.305,6861.554999999999,-63616.049999999996,-0.2095778921030627,-4.509186938145719,-7.980101502000635,-5.345010523301674,-3.848746083482899,-4.309527808347351,-3.23682084263381,-2.1794641910831167,-0.16699176,-0.53686386,0.81835728,-23.97346,-11.490779999999999,-26.90338,69.0
1774822946.4865634,2.1457672119140625e-05,2026-03-29T22:22:26.486,2026-03-29T18:22:26.486,-33310.755,-45917.729999999996,-85224.465,-50331.689999999995,-13598.865,-17277.795,6852.42,-63619.244999999995,-4.467438951298327,-7.572532807135211,-7.635872298151378,-3.6355062847410737,-2.1059959048683816,-2.7384467069936567,-6.905155378370827,-4.268655158202079,-0.16699176,-0.53686386,0.81835728,-23.97346,-11.490779999999999,-26.90338,69.0
1774822946.4865842,2.0742416381835938e-05,2026-03-29T22:22:26.486,2026-03-29T18:22:26.486,-33294.06,-45900.945,-85220.28,-50324.13,-13596.39,-17278.065,6843.825,-63608.265,-6.149251805921963,-7.2520991558489065,-4.0370263049921,-0.5145515979254974,0.240287109232543,-0.2760302449380036,-7.100399320097964,-3.655671640954718,-0.16699176,-0.53686386,0.81835728,-23.97346,-11.490779999999999,-26.90338,69.0
1774822946.486591,6.9141387939453125e-06,2026-03-29T22:22:26.486,2026-03-29T18:22:26.486,-33277.095,-45902.835,-85230.495,-50330.295,-13599.81,-17283.825,6834.554999999999,-63604.575,-4.753836528685371,-3.798546294109396,1.1072294639624054,2.596074422051896,2.0755323580394465,1.857708574973049,-3.769175507160873,-0.9081781780422309,-0.16699176,-0.53686386,0.81835728,-23.97346,-11.490779999999999,-26.90338,69.0
1774822946.489192,0.0026009082794189453,2026-03-29T22:22:26.489,2026-03-29T18:22:26.489,-33286.545,-45909.765,-85221.98999999999,-50321.384999999995,-13589.144999999999,-17271.765,6835.005,-63606.509999999995,-1.327058350194287,1.1501779410917392,5.489419054001048,4.386696646503188,2.7010925798104135,2.7971913090436864,1.3721048766442867,2.212322919779735,-0.16699176,-0.53686386,0.81835728,-23.97346,-11.490779999999999,-26.90338,69.0
1774822946.48921,1.7881393432617188e-05,2026-03-29T22:22:26.489,2026-03-29T18:22:26.489,-33306.345,-45903.869999999995,-85204.125,-50309.145,-13576.005,-17255.925,6846.255,-63619.02,2.20475850136086,5.35766521477551,7.252300378534603,4.2136345630379894,2.093632822884708,2.3820884127087463,5.730020537686649,3.7953319039818085,-0.16699176,-0.53686386,0.81835728,-23.97346,-11.490779999999999,-26.90338,69.0
1774822946.4929368,0.003726959228515625,2026-03-29T22:22:26.492,2026-03-29T18:22:26.492,-33302.565,-45893.79,-85211.145,-50312.564999999995,-13581.99,-17263.395,6858.54,-63634.86,4.088953423423961,7.023309402976133,5.79116406327216,2.318229536232013,0.797124931789646,1.1104251913133416,7.155882950630986,2.882777008030013,-0.16699176,-0.53686386,0.81835728,-23.97346,-11.490779999999999,-26.90338,69.0
1774822946.4929533,1.6450881958007812e-05,2026-03-29T22:22:26.492,2026-03-29T18:22:26.492,-33296.13,-45902.115,-85230.495,-50324.04,-13597.064999999999,-17280.09,6848.55,-63639.54,3.6217490668103274,5.5731023012912155,1.9563039354708607,-0.3557702984639117,-0.44847024614596354,-0.22980970851869542,5.0176179114601025,0.0146081128578574,-0.16699176,-0.53686386,0.81835728,-23.97346,-11.490779999999999,-26.90338,69.0
1774822946.4971752,0.004221916198730469,2026-03-29T22:22:26.497,2026-03-29T18:22:26.497,-33295.049999999996,-45909.314999999995,-85239.45,-50326.29,-13594.275,-17277.075,6835.41,-63631.619999999995,1.4052954499530725,1.8498647991700734,-2.4104251181480696,-2.629658393281394,-1.1143237156215464,-1.016423837876946,0.4816734921754181,-3.0807478295790847,-0.162902415,-0.53515488,0.81139929,-33.38888,-13.18464,-27.361179999999997,69.0
1774822946.4971976,2.2411346435546875e-05,2026-03-29T22:22:26.497,2026-03-29T18:22:26.497,-33291.494999999995,-45910.305,-85246.515,-50331.78,-13590.045,-17272.62,6838.65,-63624.509999999995,-1.1041764331214692,-2.356519604141164,-5.362358148733808,-3.610942890810695,-1.106512094321894,-1.0825052473147354,-4.121946395138582,-4.477104792994895,-0.162902415,-0.53515488,0.81139929,-33.38888,-13.18464,-27.361179999999997,69.0
1774822946.5013893,0.00419163703918457,2026-03-29T22:22:26.501,2026-03-29T18:22:26.501,-33299.055,-45916.2,-85249.34999999999,-50334.795,-13588.92,-17276.175,6839.19,-63626.174999999996,-2.4689798183854097,-5.183825136887571,-5.730377840858255,-3.0371882335841147,-0.7120774151970677,-0.7044250919684967,-6.507336284849263,-3.171669389727261,-0.162902415,-0.53515488,0.81139929,-33.38888,-13.18464,-27.361179999999997,69.0
1774822946.5014102,2.09808349609375e-05,2026-03-29T22:22:26.501,2026-03-29T18:22:26.501,-33313.005,-45933.255,-85261.14,-50346.405,-13599.314999999999,-17284.364999999998,6844.86,-63632.07,-2.0664005349320163,-5.54374265865778,-3.594668372471489,-1.314194568109668,-0.33747039217737074,-0.3351002736786867,-5.583364076872966,0.2907862680984575,-0.162902415,-0.53515488,0.81139929,-33.38888,-13.18464,-27.361179999999997,69.0
1774822946.507311,0.005900859832763672,2026-03-29T22:22:26.507,2026-03-29T18:22:26.507,-33312.555,-45934.38,-85254.075,-50337.854999999996,-13599.945,-17285.04,6842.16,-63633.6,-0.37738321161800337,-3.545108929047121,-0.15083413446012098,0.7318087957396561,-0.22021326992569226,-0.27021248982629714,-1.9617592677415836,4.052436032936542,-0.162902415,-0.53515488,0.81139929,-33.38888,-13.18464,-27.361179999999997,69.0
1774822946.5073354,2.4318695068359375e-05,2026-03-29T22:22:26.507,2026-03-29T18:22:26.507,-33289.2,-45899.865,-85223.25,-50319.945,-13590.945,-17273.88,6857.955,-63620.009999999995,1.3683121473983266,-0.32682761901660956,2.9303989924591187,2.2466842809575387,-0.2932891648830811,-0.4587642747177173,2.418309346227577,5.9306263450312136,-0.162902415,-0.53515488,0.81139929,-33.38888,-13.18464,-27.361179999999997,69.0
1774822946.5073564,2.09808349609375e-05,2026-03-29T22:22:26.507,2026-03-29T18:22:26.507,-33282.315,-45881.415,-85213.26,-50317.604999999996,-13588.74,-17271.135,6861.599999999999,-63616.454999999994,1.9657962264853839,2.571796651233819,4.316599321536306,2.7003577225426643,-0.27563052600110355,-0.5684541343800733,5.3290811144272245,4.63728374784072,-0.162902415,-0.53515488,0.81139929,-33.38888,-13.18464,-27.361179999999997,69.0
1774822946.5073636,7.152557373046875e-06,2026-03-29T22:22:26.507,2026-03-29T18:22:26.507,-33274.845,-45877.545,-85206.42,-50314.455,-13585.904999999999,-17269.245,6856.92,-63609.884999999995,0.9745308906895632,3.9619238496405353,3.6029561933540024,2.0560412689168026,0.0825870196769694,-0.2541083754055832,5.400521440086148,0.5645601010992677,-0.162902415,-0.53515488,0.81139929,-33.38888,-13.18464,-27.361179999999997,69.0
1774822946.5128996,0.005536079406738281,2026-03-29T22:22:26.512,2026-03-29T18:22:26.512,-33283.17,-45890.009999999995,-85220.325,-50326.29,-13593.644999999999,-17273.204999999998,6870.825,-63612.765,-1.0032993247199116,3.504906003800518,1.4108870795556225,0.713286852961854,0.7681546636299936,0.5498166443067519,2.7792708316551598,-4.3139120085237215,-0.162902415,-0.53515488,0.81139929,-33.38888,-13.18464,-27.361179999999997,69.0
1774822946.5129204,2.0742416381835938e-05,2026-03-29T22:22:26.512,2026-03-29T18:22:26.512,-33298.02,-45912.15,-85246.73999999999,-50343.975,-13606.74,-17281.17,6858.045,-63623.024999999994,-2.6686567820769582,1.7447272666071596,-1.016806856957676,-0.7161602389092976,1.4474363947497046,1.5093841340224217,-1.0229735304169072,-7.413386409680602,-0.162902415,-0.53515488,0.81139929,-33.38888,-13.18464,-27.361179999999997,69.0
1774822946.5174837,0.004563331604003906,2026-03-29T22:22:26.517,2026-03-29T18:22:26.517,-33302.43,-45919.935,-85252.05,-50342.4,-13605.119999999999,-17279.73,6821.009999999999,-63629.954999999994,-2.8035883031467024,-0.2903341408633366,-2.4891441287554703,-1.680506069444075,1.6370325290661525,2.0383466921484588,-3.9819276481470354,-6.896791049689789,-0.15576132,-0.53527695,0.80248818,-43.50626,-16.28242,-24.858539999999998,69.0
1774822946.5175204,3.6716461181640625e-05,2026-03-29T22:22:26.517,2026-03-29T18:22:26.517,-33302.295,-45916.2,-85245.435,-50334.435,-13598.369999999999,-17277.03,6817.5,-63631.125,-1.0382923735882714,-1.6663247707477848,-2.4540681476196684,-1.890030163383172,1.0121923689751053,1.6433053324062512,-4.641067922834278,-2.7115480394793536,-0.15576132,-0.53527695,0.80248818,-43.50626,-16.28242,-24.858539999999998,69.0
1774822946.5213904,0.0038700103759765625,2026-03-29T22:22:26.521,2026-03-29T18:22:26.521,-33302.295,-45922.095,-85251.87,-50339.97,-13599.494999999999,-17273.25,6825.735,-63625.32,1.8418389071395698,-1.9845385725752027,-1.208831746999715,-1.381990428294689,-0.33256354245261344,0.26866594678540084,-2.842882030991038,3.263186404099539,-0.15576132,-0.53527695,0.80248818,-43.50626,-16.28242,-24.858539999999998,69.0
1774822946.5214155,2.5033950805664062e-05,2026-03-29T22:22:26.521,2026-03-29T18:22:26.521,-33296.895,-45929.52,-85264.37999999999,-50359.229999999996,-13619.025,-17291.34,6823.304999999999,-63610.74,4.252358517079482,-1.471351260199856,0.3487065797840566,-0.4497699860729685,-1.8437149353597715,-1.5741603501443924,0.26189541097909586,8.079173216824868,-0.15576132,-0.53527695,0.80248818,-43.50626,-16.28242,-24.858539999999998,69.0
1774822946.5289173,0.007501840591430664,2026-03-29T22:22:26.528,2026-03-29T18:22:26.528,-33290.46,-45919.755,-85252.5,-50350.455,-13617.494999999999,-17293.005,6869.835,-63601.515,4.664316157017005,-0.7136117879801581,1.268391568672654,0.5090731774969814,-2.7449831495857104,-2.9991191515231526,2.903429428392986,9.186666734946728,-0.15576132,-0.53527695,0.80248818,-43.50626,-16.28242,-24.858539999999998,69.0
1774822946.5289273,1.0013580322265625e-05,2026-03-29T22:22:26.528,2026-03-29T18:22:26.528,-33317.82,-45916.875,-85238.595,-50332.725,-13605.255,-17288.235,6875.82,-63637.155,2.502306954558125,-0.23210865720425777,1.0860688581480302,1.1524386415279941,-2.4445391011927367,-3.185527933437183,3.6834804915383614,5.770923003447758,-0.15576132,-0.53527695,0.80248818,-43.50626,-16.28242,-24.858539999999998,69.0
1774822946.5289376,1.0251998901367188e-05,2026-03-29T22:22:26.528,2026-03-29T18:22:26.528,-33325.29,-45910.395,-85230.94499999999,-50319.854999999996,-13591.664999999999,-17279.55,6852.554999999999,-63660.24,-1.4189893865779872,-0.16088368130118066,0.059406290777585725,1.3023876146865698,-0.8967313464786355,-1.8415196933711655,2.3204185137418403,-0.7379493237848139,-0.15576132,-0.53527695,0.80248818,-43.50626,-16.28242,-24.858539999999998,69.0
1774822946.5289419,4.291534423828125e-06,2026-03-29T22:22:26.528,2026-03-29T18:22:26.528,-33301.665,-45903.104999999996,-85228.02,-50317.155,-13590.72,-17278.065,6843.915,-63639.899999999994,-5.19846422871201,-0.2187416791041228,-1.0191807154105834,0.9772547496781682,1.293630033164225,0.5671393170938043,-0.24978040279809505,-7.276811096216578,-0.15576132,-0.53527695,0.80248818,-43.50626,-16.28242,-24.858539999999998,69.0
1774822946.5328257,0.003883838653564453,2026-03-29T22:22:26.532,2026-03-29T18:22:26.532,-33292.665,-45898.155,-85224.825,-50315.4,-13587.39,-17264.97,6850.304999999999,-63631.71,-6.7806721159398835,0.02673448635228701,-1.3190972191902928,0.3538929364810001,3.111026570374975,2.9725134290154624,-2.4526875647854025,-10.614325247470244,-0.15576132,-0.53527695,0.80248818,-43.50626,-16.28242,-24.858539999999998,69.0
1774822946.532844,1.8358230590820312e-05,2026-03-29T22:22:26.532,2026-03-29T18:22:26.532,-33293.25,-45900.585,-85231.34999999999,-50315.13,-13584.869999999999,-17256.375,6850.349999999999,-63636.659999999996,-5.05469225304412,0.7834808083470257,-0.4935936761953332,-0.31346889277163514,3.616084990261051,4.195335647653936,-2.9956174559807875,-8.957990682538107,-0.15576132,-0.53527695,0.80248818,-43.50626,-16.28242,-24.858539999999998,69.0
1774822946.578901,0.04605698585510254,2026-03-29T22:22:26.578,2026-03-29T18:22:26.578,-33302.07,-45905.265,-85231.845,-50313.555,-13580.369999999999,-17254.89,6844.95,-63634.905,-0.5389170629616525,1.7993841599660443,1.0728107956113575,-0.7860687488319833,2.439275986787491,3.5375840276847135,-1.6065998005455522,-2.899843938178142,-0.141662235,-0.5526719250000001,0.79394328,-43.75042,-13.39828,-19.3039,69.0
1774822946.5789154,1.430511474609375e-05,2026-03-29T22:22:26.578,2026-03-29T18:22:26.578,-33308.19,-45908.505,-85235.22,-50324.265,-13586.894999999999,-17260.515,6847.065,-63633.015,4.743538418199041,2.4375928051869242,2.443232150914865,-0.9177352781800399,0.019257137128796682,1.173207712064478,0.8225978621565935,4.791831799689701,-0.141662235,-0.5526719250000001,0.79394328,-43.75042,-13.39828,-19.3039,69.0
1774822946.5789285,1.3113021850585938e-05,2026-03-29T22:22:26.578,2026-03-29T18:22:26.578,-33293.61,-45908.369999999995,-85241.79,-50335.965,-13597.38,-17271.809999999998,6858.36,-63616.77,8.18894013977177,2.0453507641233024,2.650434557823802,-0.6967098324715548,-2.5581785121815237,-1.8787208391717756,2.7669209810858866,10.462294473013444,-0.141662235,-0.5526719250000001,0.79394328,-43.75042,-13.39828,-19.3039,69.0
1774822946.5789323,3.814697265625e-06,2026-03-29T22:22:26.578,2026-03-29T18:22:26.578,-33291.9,-45919.845,-85256.19,-50349.78,-13607.91,-17280.945,6862.455,-63607.905,7.9060833567618,0.41149579955276433,1.2824669195969143,-0.2416069433201029,-4.062692917873554,-4.2083430688084436,2.96958068841617,11.329346487920922,-0.141662235,-0.5526719250000001,0.79394328,-43.75042,-13.39828,-19.3039,69.0
1774822946.5789375,5.245208740234375e-06,2026-03-29T22:22:26.578,2026-03-29T18:22:26.578,-33281.145,-45921.284999999996,-85264.73999999999,-50365.935,-13630.23,-17299.755,6838.11,-63598.59,3.7317973658888746,-1.968631019560874,-1.1977934385621625,0.24787453974650586,-3.7238991099032415,-4.686918431862703,1.2003794262723633,6.855245746424239,-0.141662235,-0.5526719250000001,0.79394328,-43.75042,-13.39828,-19.3039,69.0
1774822946.5789416,4.0531158447265625e-06,2026-03-29T22:22:26.578,2026-03-29T18:22:26.578,-33297.345,-45920.295,-85252.95,-50353.965,-13624.605,-17294.355,6818.445,-63626.715,-2.5686872751401006,-4.016318060888775,-3.6008638746085695,0.5709051991963736,-1.6336783563527126,-3.026971701378404,-1.5686412557972633,-0.9477808333097096,-0.141662235,-0.5526719250000001,0.79394328,-43.75042,-13.39828,-19.3039,69.0
1774822946.578946,4.5299530029296875e-06,2026-03-29T22:22:26.578,2026-03-29T18:22:26.578,-33319.485,-45914.04,-85226.76,-50322.015,-13589.82,-17261.055,6833.429999999999,-63645.119999999995,-8.063019558809694,-4.567290408076504,-4.583853639621109,0.6080185028643954,1.2664302877830453,0.0527336453743206,-3.686635199327816,-8.443210678584299,-0.141662235,-0.5526719250000001,0.79394328,-43.75042,-13.39828,-19.3039,69.0
1774822946.57895,3.814697265625e-06,2026-03-29T22:22:26.578,2026-03-29T18:22:26.578,-33321.06,-45897.659999999996,-85210.83,-50301.27,-13569.525,-17243.55,6849.2699999999995,-63638.549999999996,-10.038831680462337,-3.010032341134188,-3.3709190068728447,0.3720352888187588,3.6208417759609075,3.149323178602644,-3.768055261010035,-12.091529633314543,-0.141662235,-0.5526719250000001,0.79394328,-43.75042,-13.39828,-19.3039,69.0
1774822946.5789545,4.5299530029296875e-06,2026-03-29T22:22:26.578,2026-03-29T18:22:26.578,-33311.79,-45899.865,-85221.62999999999,-50306.085,-13574.025,-17247.015,6854.625,-63623.295,-7.35036603548217,0.27802934943261004,-0.243629737243033,0.0016507406090836827,4.31167055106288,4.835265107153005,-1.5311933220105525,-10.140680761083948,-0.141662235,-0.5526719250000001,0.79394328,-43.75042,-13.39828,-19.3039,69.0
1774822946.5789578,3.337860107421875e-06,2026-03-29T22:22:26.578,2026-03-29T18:22:26.578,-33313.005,-45909.27,-85234.995,-50319.99,-13591.35,-17263.71,6842.745,-63615.24,-1.0524675079209302,3.965945136314355,3.480933765106402,-0.3048438040829305,3.0054547877304434,4.335879623524831,1.9544242933696305,-3.4702032768095514,-0.141662235,-0.5526719250000001,0.79394328,-43.75042,-13.39828,-19.3039,69.0
1774822946.5789623,4.5299530029296875e-06,2026-03-29T22:22:26.578,2026-03-29T18:22:26.578,-33302.565,-45896.895,-85223.79,-50315.04,-13588.695,-17259.524999999998,6854.67,-63605.024999999994,6.018879340444072,6.31713876519884,6.016762535628389,-0.38873692974770735,0.3209451397204921,1.894788592827629,4.78316384685339,4.818565961718012,-0.124572435,-0.5846542650000001,0.78503217,-35.067479999999996,-10.13264,-10.84986,69.0
1774822946.578966,3.5762786865234375e-06,2026-03-29T22:22:26.578,2026-03-29T18:22:26.578,-33283.305,-45879.21,-85208.805,-50307.705,-13581.225,-17248.454999999998,6869.5199999999995,-63581.534999999996,10.549137417111853,6.019205684734564,5.970775325054711,-0.21533070298109283,-2.468903035937254,-1.3491363056122232,5.240805074456702,10.868919567667827,-0.124572435,-0.5846542650000001,0.78503217,-35.067479999999996,-10.13264,-10.84986,69.0
1774822946.5789704,4.5299530029296875e-06,2026-03-29T22:22:26.578,2026-03-29T18:22:26.578,-33290.955,-45886.545,-85214.205,-50313.15,-13585.365,-17250.434999999998,6873.929999999999,-63580.59,10.320712194911508,2.8933196005504676,3.081115911826723,0.10233765315288082,-4.054799593862096,-3.909230615237119,2.7953474336271764,11.887532138058559,-0.124572435,-0.5846542650000001,0.78503217,-35.067479999999996,-10.13264,-10.84986,69.0
1774822946.578974,3.5762786865234375e-06,2026-03-29T22:22:26.578,2026-03-29T18:22:26.578,-33304.275,-45913.814999999995,-85240.44,-50339.835,-13610.475,-17276.265,6839.82,-63588.149999999994,5.302600753024636,-1.8929902455421728,-1.5513328432025535,0.35928009241153114,-3.7227509742065656,-4.652497614573277,-1.5052099366689797,7.447313525858309,-0.124572435,-0.5846542650000001,0.78503217,-35.067479999999996,-10.13264,-10.84986,69.0
1774822946.5789783,4.291534423828125e-06,2026-03-29T22:22:26.578,2026-03-29T18:22:26.578,-33322.455,-45927.54,-85246.92,-50343.57,-13608.765,-17275.5,6832.9349999999995,-63583.47,-2.283250359835856,-6.262560265176632,-5.889252742675132,0.37116437877427516,-1.6874812968974735,-3.3150639896921925,-5.485104005323991,-0.3387866473270045,-0.124572435,-0.5846542650000001,0.78503217,-35.067479999999996,-10.13264,-10.84986,69.0
1774822946.5789819,3.5762786865234375e-06,2026-03-29T22:22:26.578,2026-03-29T18:22:26.578,-33328.305,-45923.534999999996,-85250.7,-50346.494999999995,-13609.98,-17278.38,6832.08,-63577.665,-8.96893163590298,-8.15030044920586,-7.873963004781822,0.08666072136340139,1.0331326458683083,-0.5907514998032386,-6.946222470913364,-7.840312241201093,-0.124572435,-0.5846542650000001,0.78503217,-35.067479999999996,-10.13264,-10.84986,69.0
1774822946.5789864,4.5299530029296875e-06,2026-03-29T22:22:26.578,2026-03-29T18:22:26.578,-33309.72,-45910.71,-85241.655,-50336.955,-13604.58,-17272.89,6849.855,-63576.765,-11.65347460275581,-6.490991661096562,-6.409284699114443,-0.36434250322731077,3.1326264338763723,2.233610138193819,-4.862636590903345,-11.625815002752216,-0.124572435,-0.5846542650000001,0.78503217,-35.067479999999996,-10.13264,-10.84986,69.0
1774822946.57899,3.5762786865234375e-06,2026-03-29T22:22:26.578,2026-03-29T18:22:26.578,-33325.92,-45929.564999999995,-85257.495,-50339.7,-13608.18,-17274.149999999998,6874.92,-63569.79,-9.058910729047573,-1.7950268175106228,-1.9401542470239899,-0.7221568021363214,3.6568551778470804,3.902449134548296,-0.022060545167175313,-10.051420980197449,-0.124572435,-0.5846542650000001,0.78503217,-35.067479999999996,-10.13264,-10.84986,69.0
1774822946.5789957,5.7220458984375e-06,2026-03-29T22:22:26.578,2026-03-29T18:22:26.578,-33318.63,-45923.22,-85270.36499999999,-50364.45,-13630.994999999999,-17292.239999999998,6868.62,-63557.055,-2.337824078873958,3.991162266007019,3.6716659301987216,-0.7318753369106747,2.4511483562951817,3.7652334139439625,5.26331912004914,-3.977980983043625,-0.124572435,-0.5846542650000001,0.78503217,-35.067479999999996,-10.13264,-10.84986,69.0
1774822946.5789993,3.5762786865234375e-06,2026-03-29T22:22:26.578,2026-03-29T18:22:26.578,-33295.77,-45906.03,-85267.89,-50367.645,-13632.84,-17295.614999999998,6850.125,-63551.34,5.456041912616493,8.31115530467132,7.945090974579243,-0.29548127043645417,0.19839785685950936,2.030402177103575,8.275204107058657,3.696873019774034,-0.124572435,-0.5846542650000001,0.78503217,-35.067479999999996,-10.13264,-10.84986,69.0
1774822946.579004,4.76837158203125e-06,2026-03-29T22:22:26.579,2026-03-29T18:22:26.579,-33291.225,-45909.405,-85274.73,-50366.475,-13631.265,-17294.805,6832.62,-63543.869999999995,10.78261017230197,9.150562263427947,8.89799961700706,0.4425369766547077,-1.956424503734713,-0.3995878069850135,7.289257441173666,9.438446243568897,-0.111266805,-0.601133715,0.78075972,-24.9501,-8.19462,-3.9676,69.0
1774822946.5790076,3.5762786865234375e-06,2026-03-29T22:22:26.579,2026-03-29T18:22:26.579,-33283.215,-45907.515,-85251.33,-50342.085,-13616.955,-17284.23,6823.8,-63533.7,11.247620402664039,5.98516968329549,5.972000661208944,1.1337745969878352,-2.9923077322124363,-2.4023732038250993,2.534460908913279,10.722893659649293,-0.111266805,-0.601133715,0.78075972,-24.9501,-8.19462,-3.9676,69.0
1774822946.581534,0.0025262832641601562,2026-03-29T22:22:26.581,2026-03-29T18:22:26.581,-33294.51,-45925.83,-85243.095,-50322.689999999995,-13592.699999999999,-17256.42,6857.054999999999,-63537.165,6.688629589316884,0.07474576426272855,0.32889756871199605,1.3848839056717857,-2.507021186577104,-3.167962277110558,-3.8120778900769148,7.156507563840636,-0.111266805,-0.601133715,0.78075972,-24.9501,-8.19462,-3.9676,69.0
1774822946.581546,1.2159347534179688e-05,2026-03-29T22:22:26.581,2026-03-29T18:22:26.581,-33312.33,-45951.345,-85278.78,-50329.125,-13595.039999999999,-17256.78,6887.61,-63536.22,-0.7819069125499658,-6.052593602992272,-5.630068274827114,0.9663266675808665,-0.8763799872066155,-2.5305637327722454,-8.637689675033998,0.5661154156296341,-0.111266805,-0.601133715,0.78075972,-24.9501,-8.19462,-3.9676,69.0
1774822946.5849893,0.0034432411193847656,2026-03-29T22:22:26.584,2026-03-29T18:22:26.584,-33348.195,-45964.034999999996,-85322.11499999999,-50365.845,-13621.14,-17287.38,6831.764999999999,-63557.28,-7.777545024289245,-9.706397570157185,-9.312960921156053,-0.035803948854820265,0.9864812979472624,-0.9620453449879838,-9.435527215477538,-5.938093437291008,-0.111266805,-0.601133715,0.78075972,-24.9501,-8.19462,-3.9676,69.0
1774822946.5849984,9.059906005859375e-06,2026-03-29T22:22:26.584,2026-03-29T18:22:26.584,-33341.76,-45944.28,-85305.51,-50379.435,-13623.66,-17287.965,6804.585,-63564.84,-11.198496940464176,-9.234416384117434,-9.08260975942369,-1.2141979737306623,2.1297494186658392,0.7319821380216741,-5.604667609441866,-9.445850089903892,-0.111266805,-0.601133715,0.78075972,-24.9501,-8.19462,-3.9676,69.0
1774822946.5886507,0.003652334213256836,2026-03-29T22:22:26.588,2026-03-29T18:22:26.588,-33294.645,-45900.674999999996,-85257.94499999999,-50376.33,-13620.734999999999,-17278.829999999998,6843.33,-63533.204999999994,-9.62118370170906,-4.773057051511237,-4.983573085763494,-2.0032021778486238,2.051281707907712,1.8303881174263041,1.1648155484957448,-8.562276573897602,-0.111266805,-0.601133715,0.78075972,-24.9501,-8.19462,-3.9676,69.0
1774822946.5886598,9.059906005859375e-06,2026-03-29T22:22:26.588,2026-03-29T18:22:26.588,-33271.47,-45875.07,-85210.605,-50341.994999999995,-13606.695,-17272.62,6876.99,-63515.115,-3.8867533656141244,1.7944456180780886,1.2723441093292869,-1.9463040073214901,0.9252856890483383,2.0101025671596617,7.650062052979689,-3.9555051905146725,-0.111266805,-0.601133715,0.78075972,-24.9501,-8.19462,-3.9676,69.0
1774822946.5930507,0.0043909549713134766,2026-03-29T22:22:26.593,2026-03-29T18:22:26.593,-33268.409999999996,-45874.845,-85193.775,-50319.0,-13592.564999999999,-17259.39,6899.985,-63508.634999999995,3.351856699252086,7.655393160964983,7.048888471436092,-0.9427556305651146,-0.5374923344956795,1.415576712533209,10.65031210334524,2.073858935429369,-0.111266805,-0.601133715,0.78075972,-24.9501,-8.19462,-3.9676,69.0
1774822946.593072,2.1219253540039062e-05,2026-03-29T22:22:26.593,2026-03-29T18:22:26.593,-33281.64,-45890.009999999995,-85212.495,-50328.63,-13607.955,-17271.09,6862.724999999999,-63518.265,8.878963342360729,10.294652508680532,9.920199076841065,0.6549906464930073,-1.5049156581262328,0.48758720253069215,8.578701558102125,6.744270307693037,-0.111266805,-0.601133715,0.78075972,-24.9501,-8.19462,-3.9676,69.0
1774822946.5989182,0.005846261978149414,2026-03-29T22:22:26.598,2026-03-29T18:22:26.598,-33279.165,-45905.354999999996,-85231.75499999999,-50335.335,-13623.029999999999,-17292.51,6824.16,-63511.064999999995,10.36353244552941,8.585503654187715,8.69713453098573,2.158808395903784,-1.4813330594516794,-0.3201462770680179,2.2937520241235863,8.088300988926743,-0.104552955,-0.59216157,0.7817362800000001,-21.11984,-5.1121,-0.16785999999999998,69.0
1774822946.598945,2.6702880859375e-05,2026-03-29T22:22:26.598,2026-03-29T18:22:26.598,-33259.229999999996,-45898.155,-85229.37,-50332.409999999996,-13618.98,-17294.13,6834.825,-63487.619999999995,7.34510916435881,3.266215366561496,3.907003580606019,2.841556719419352,-0.5613532723487112,-0.7663701244277439,-5.262223660248187,5.783489986392941,-0.104552955,-0.59216157,0.7817362800000001,-21.11984,-5.1121,-0.16785999999999998,69.0
1774822946.601596,0.002651214599609375,2026-03-29T22:22:26.601,2026-03-29T18:22:26.601,-33265.215,-45901.53,-85230.27,-50326.74,-13604.715,-17279.91,6846.929999999999,-63493.829999999994,1.340824578197261,-3.3963559713989624,-2.459894830842886,2.2845149635445816,0.6501882071445688,-0.8761961983446116,-10.461930557980201,1.1680413440029516,-0.104552955,-0.59216157,0.7817362800000001,-21.11984,-5.1121,-0.16785999999999998,69.0
1774822946.6016169,2.0742416381835938e-05,2026-03-29T22:22:26.601,2026-03-29T18:22:26.601,-33261.885,-45901.53,-85230.315,-50327.909999999996,-13597.38,-17267.445,6860.205,-63489.195,-4.925136387691155,-8.594466307757928,-7.803383111756497,0.6106793303003447,1.3985189269837581,-0.8244213579746301,-10.753858989424698,-3.504998340191987,-0.104552955,-0.59216157,0.7817362800000001,-21.11984,-5.1121,-0.16785999999999998,69.0
1774822946.6050606,0.0034437179565429688,2026-03-29T22:22:26.605,2026-03-29T18:22:26.605,-33278.715,-45896.939999999995,-85219.69499999999,-50312.655,-13579.38,-17250.704999999998,6860.969999999999,-63517.59,-8.775032997289333,-10.177877322271772,-9.987144452857722,-1.5194148450559959,1.215369090903647,-0.7512970264064556,-5.921193797143515,-6.170120660640151,-0.104552955,-0.59216157,0.7817362800000001,-21.11984,-5.1121,-0.16785999999999998,69.0
1774822946.6050928,3.218650817871094e-05,2026-03-29T22:22:26.605,2026-03-29T18:22:26.605,-33272.82,-45889.29,-85211.28,-50306.67,-13574.699999999999,-17250.3,6854.804999999999,-63517.77,-8.729629831797716,-7.544714841564638,-8.18355209092076,-3.167931187831311,0.1893277737743852,-0.6446901539002411,1.7854713454333457,-5.868056551045931,-0.104552955,-0.59216157,0.7817362800000001,-21.11984,-5.1121,-0.16785999999999998,69.0
1774822946.6092243,0.0041315555572509766,2026-03-29T22:22:26.609,2026-03-29T18:22:26.609,-33255.854999999996,-45882.27,-85207.635,-50305.365,-13573.8,-17249.04,6854.94,-63496.71,-5.06030694934218,-1.8559629787147325,-3.1609443213333273,-3.533377529118585,-1.079023581900485,-0.36796573054089865,8.715311442271139,-3.0702858701872953,-0.104552955,-0.59216157,0.7817362800000001,-21.11984,-5.1121,-0.16785999999999998,69.0
1774822946.6092436,1.9311904907226562e-05,2026-03-29T22:22:26.609,2026-03-29T18:22:26.609,-33254.865,-45884.97,-85210.29,-50304.825,-13573.17,-17245.845,6862.32,-63492.93,0.4547782613113822,4.493776073628598,3.069729245796168,-2.334557681575272,-1.8132759268291248,0.19032912254299125,11.568940690462163,0.6875203118436263,-0.104552955,-0.59216157,0.7817362800000001,-21.11984,-5.1121,-0.16785999999999998,69.0
1774822946.6131084,0.003864765167236328,2026-03-29T22:22:26.613,2026-03-29T18:22:26.613,-33256.665,-45893.43,-85223.43,-50321.34,-13589.189999999999,-17253.945,6879.509999999999,-63485.28,5.400750281342236,8.90015708851903,8.073903611161285,0.017153468323168677,-1.505038770956829,0.955524468531491,8.983486837836251,3.6259528081000747,-0.104552955,-0.59216157,0.7817362800000001,-21.11984,-5.1121,-0.16785999999999998,69.0
1774822946.6131265,1.811981201171875e-05,2026-03-29T22:22:26.613,2026-03-29T18:22:26.613,-33256.665,-45896.715,-85230.855,-50323.59,-13592.744999999999,-17251.065,6879.33,-63478.215,7.79322565885979,9.622680969054647,9.936938096424884,2.5524377592737357,-0.22113086028630444,1.6204510616917263,2.1828688257297326,4.566032982498538,-0.104552955,-0.59216157,0.7817362800000001,-21.11984,-5.1121,-0.16785999999999998,69.0
1774822946.622338,0.009211540222167969,2026-03-29T22:22:26.622,2026-03-29T18:22:26.622,-33254.955,-45887.174999999996,-85218.165,-50306.58,-13580.01,-17241.93,6867.36,-63475.695,6.867166679173453,6.463707834234913,7.97109230040703,4.144459005458313,1.399364146778235,1.7717582370024139,-5.61652562871552,3.396396512002381,-0.098693595,-0.571958985,0.782407665,-25.80466,-2.60946,1.03768,69.0
1774822946.6223586,2.0503997802734375e-05,2026-03-29T22:22:26.622,2026-03-29T18:22:26.622,-33254.01,-45890.46,-85222.8,-50314.455,-13588.515,-17252.145,6833.295,-63474.57,3.2787193644128023,0.7934374372813013,2.940386935474531,4.008925743858718,2.4665641519261814,1.1353787061727716,-10.748824031722723,0.9823188089979047,-0.098693595,-0.571958985,0.782407665,-25.80466,-2.60946,1.03768,69.0
1774822946.622378,1.9550323486328125e-05,2026-03-29T22:22:26.622,2026-03-29T18:22:26.622,-33240.96,-45898.65,-85243.41,-50339.07,-13613.13,-17276.985,6826.59,-63457.829999999994,-1.3042271205942715,-5.058069081720902,-3.251000925815013,2.082115603351731,2.316159723999254,-0.20055984974884364,-10.83942122452281,-1.3773963062368808,-0.098693595,-0.571958985,0.782407665,-25.80466,-2.60946,1.03768,69.0
1774822946.622385,6.9141387939453125e-06,2026-03-29T22:22:26.622,2026-03-29T18:22:26.622,-33268.545,-45918.99,-85254.48,-50345.729999999996,-13614.975,-17280.54,6840.585,-63457.38,-4.983497741505038,-8.766138129994506,-8.271192513848913,-0.9020610825975499,0.8893766882087616,-1.7349364397675915,-5.908224916229492,-2.6307443663930634,-0.098693595,-0.571958985,0.782407665,-25.80466,-2.60946,1.03768,69.0
1774822946.6250315,0.0026464462280273438,2026-03-29T22:22:26.625,2026-03-29T18:22:26.625,-33284.835,-45924.615,-85265.28,-50361.39,-13627.305,-17287.155,6847.5599999999995,-63459.72,-6.415720573541542,-8.931164223408722,-10.211871801454016,-3.6887695765030792,-1.1909198755525967,-2.7402324819280754,1.679219531889205,-2.4406391777331713,-0.098693595,-0.571958985,0.782407665,-25.80466,-2.60946,1.03768,69.0
1774822946.6250603,2.8848648071289062e-05,2026-03-29T22:22:26.625,2026-03-29T18:22:26.625,-33267.78,-45923.445,-85263.885,-50361.705,-13630.41,-17281.079999999998,6855.4349999999995,-63437.22,-5.277911049808032,-5.5918496137205596,-8.283818541950648,-5.029271070599166,-2.90140828338224,-2.6177282977153524,8.365657731971325,-1.233624550307795,-0.098693595,-0.571958985,0.782407665,-25.80466,-2.60946,1.03768,69.0
1774822946.6392071,0.014146804809570312,2026-03-29T22:22:26.639,2026-03-29T18:22:26.639,-33278.085,-45919.71,-85251.15,-50339.655,-13615.965,-17271.405,6861.78,-63443.34,-2.2673075777492975,-0.1526411656713943,-3.121644525628047,-4.237137505618154,-3.324934484853913,-1.2434503337048646,11.0887388456804,0.14497907135719296,-0.098693595,-0.571958985,0.782407665,-25.80466,-2.60946,1.03768,69.0
1774822946.6392343,2.7179718017578125e-05,2026-03-29T22:22:26.639,2026-03-29T18:22:26.639,-33286.365,-45905.265,-85227.39,-50314.32,-13594.185,-17254.98,6861.915,-63457.604999999996,1.297605116869138,5.215112929469961,3.410171470169172,-1.5276661509447131,-2.1297649100831624,0.8911305181246946,8.691088729132417,0.9448843877171543,-0.098693595,-0.571958985,0.782407665,-25.80466,-2.60946,1.03768,69.0
1774822946.6392581,2.384185791015625e-05,2026-03-29T22:22:26.639,2026-03-29T18:22:26.639,-33263.909999999996,-45896.354999999996,-85225.23,-50314.185,-13597.83,-17259.704999999998,6865.92,-63428.625,4.056052500342941,8.439705487170746,8.85874990425803,2.0224579551017348,0.22500548867163553,2.8482222040932714,2.4008065433383945,0.9031994700182755,-0.098693595,-0.571958985,0.782407665,-25.80466,-2.60946,1.03768,69.0
1774822946.6392684,1.0251998901367188e-05,2026-03-29T22:22:26.639,2026-03-29T18:22:26.639,-33256.845,-45896.534999999996,-85229.685,-50317.02,-13606.38,-17268.66,6855.884999999999,-63406.53,5.109745367442648,8.338486511060568,11.070319075734853,4.899024122349393,2.672452894867105,3.6682492839638243,-4.810101488309099,0.31615569991675413,-0.098693595,-0.571958985,0.782407665,-25.80466,-2.60946,1.03768,69.0
1774822946.6392813,1.2874603271484375e-05,2026-03-29T22:22:26.639,2026-03-29T18:22:26.639,-33256.395,-45896.265,-85238.86499999999,-50321.655,-13614.119999999999,-17280.765,6820.875,-63398.024999999994,4.275092608949063,5.035335340643686,9.023250700157284,5.792537586580935,4.0317193249751275,2.8516615461348302,-9.648463050113648,-0.21908607325371846,-0.09191871,-0.55151226,0.781919385,-35.05222,0.25942,6.62284,69.0
1774822946.639291,9.775161743164062e-06,2026-03-29T22:22:26.639,2026-03-29T18:22:26.639,-33242.22,-45884.88,-85235.94,-50299.47,-13589.73,-17262.27,6820.425,-63382.005,2.037797388105086,-0.13202527750929605,3.2958519409294285,4.188474482910727,3.5788158681355067,0.6513466438161343,-10.01317825925508,-0.21940891395113316,-0.09191871,-0.55151226,0.781919385,-35.05222,0.25942,6.62284,69.0
