unix_time_s,dt_s,UTC,LOCAL,EMG1_Raw,EMG2_Raw,EMG3_Raw,EMG4_Raw,EMG5_Raw,EMG6_Raw,EMG7_Raw,EMG8_Raw,EMG1_Filtered,EMG2_Filtered,EMG3_Filtered,EMG4_Filtered,EMG5_Filtered,EMG6_Filtered,EMG7_Filtered,EMG8_Filtered,Accel1_Raw,Accel2_Raw,Accel3_Raw,Gyro1_Raw,Gyro2_Raw,Gyro3_Raw,Battery
1774822205.651114,,2026-03-29T22:10:05.651,2026-03-29T18:10:05.651,-33023.655,-48491.865,-84703.905,-49804.38,-14093.144999999999,-19405.844999999998,5467.005,-63325.89,-0.8904633880618961,-0.9942390514360425,-0.8155857165912755,-0.7518574213407726,-0.4295702072764055,0.08168169254798804,4.6674077546540635,1.4390566855802231,-0.1513668,-0.941342805,0.288756585,-16.160339999999998,-26.613439999999997,-3.5860999999999996,71.0
1774822205.651148,3.409385681152344e-05,2026-03-29T22:10:05.651,2026-03-29T18:10:05.651,-33021.9,-48495.6,-84712.095,-49817.07,-14093.189999999999,-19438.605,5480.55,-63314.729999999996,-8.078042951914815,-7.22074802775314,-7.130720149597713,-7.192849220871309,-5.229317670297149,-10.185424676196261,-3.2372250050346305,-4.611215921248175,-0.1513668,-0.941342805,0.288756585,-16.160339999999998,-26.613439999999997,-3.5860999999999996,71.0
1774822205.6556344,0.0044863224029541016,2026-03-29T22:10:05.655,2026-03-29T18:10:05.655,-33028.604999999996,-48492.36,-84705.56999999999,-49808.07,-14079.195,-19461.69,5478.66,-63345.24,-11.76775613415985,-10.271167140226845,-10.272536087018263,-10.3986461627279,-7.713082898909304,-15.865030751546183,-9.555910242839149,-8.721944154847423,-0.1513668,-0.941342805,0.288756585,-16.160339999999998,-26.613439999999997,-3.5860999999999996,71.0
1774822205.6557312,9.679794311523438e-05,2026-03-29T22:10:05.655,2026-03-29T18:10:05.655,-33034.365,-48487.59,-84696.12,-49796.865,-14081.805,-19448.864999999998,5482.44,-63363.42,-10.24163947147196,-8.707053966482697,-8.745898317094877,-8.914946248488013,-6.8164471706609735,-14.404241849727198,-11.756041689275982,-9.148939470991944,-0.1513668,-0.941342805,0.288756585,-16.160339999999998,-26.613439999999997,-3.5860999999999996,71.0
1774822205.65925,0.003518819808959961,2026-03-29T22:10:05.659,2026-03-29T18:10:05.659,-33046.56,-48503.61,-84710.87999999999,-49809.735,-14052.689999999999,-19398.465,5490.54,-63374.399999999994,-4.111412971894353,-3.181533161635137,-3.1983278159135393,-3.427848132631924,-2.976158840817942,-6.501105149797424,-9.111356543715642,-5.71665936602404,-0.1513668,-0.941342805,0.288756585,-16.160339999999998,-26.613439999999997,-3.5860999999999996,71.0
1774822205.6592677,1.7642974853515625e-05,2026-03-29T22:10:05.659,2026-03-29T18:10:05.659,-33028.065,-48494.61,-84705.93,-49809.195,-14038.47,-19374.03,5502.78,-63358.244999999995,3.919861553251521,3.8294296682582605,3.855136713125597,3.5570493173620052,2.086496336036394,4.232438160422351,-2.9029698929480405,0.111069075399816,-0.1513668,-0.941342805,0.288756585,-16.160339999999998,-26.613439999999997,-3.5860999999999996,71.0
1774822205.6632464,0.003978729248046875,2026-03-29T22:10:05.663,2026-03-29T18:10:05.663,-33032.744999999995,-48501.045,-84712.185,-49814.909999999996,-14067.045,-19410.614999999998,5480.01,-63365.49,10.255955457944554,9.144070323505929,9.18347349407062,8.872991027433436,6.149650082814567,12.940756924235082,4.216356100149496,5.861913278351122,-0.1513668,-0.941342805,0.288756585,-16.160339999999998,-26.613439999999997,-3.5860999999999996,71.0
1774822205.6632776,3.123283386230469e-05,2026-03-29T22:10:05.663,2026-03-29T18:10:05.663,-33032.835,-48500.28,-84713.535,-49817.564999999995,-14074.92,-19426.95,5476.7699999999995,-63362.744999999995,12.032078775722088,10.33321817903387,10.335362870230211,10.146050886196583,7.479311441896278,15.746476954611337,9.373175582448033,9.112774180298892,-0.1513668,-0.941342805,0.288756585,-16.160339999999998,-26.613439999999997,-3.5860999999999996,71.0
1774822205.6676204,0.004342794418334961,2026-03-29T22:10:05.667,2026-03-29T18:10:05.667,-33026.13,-48492.45,-84702.915,-49807.53,-14063.265,-19411.38,5508.2699999999995,-63351.54,8.425688586177538,6.8450992785091405,6.779406302307692,6.8686505004722305,5.576054607297379,11.495544747502477,10.63181251962241,8.517873254190922,-0.147399525,-0.943417995,0.29223558,-21.39452,-26.613439999999997,-3.815,71.0
1774822205.6676433,2.288818359375e-05,2026-03-29T22:10:05.667,2026-03-29T18:10:05.667,-33035.04,-48504.104999999996,-84714.84,-49822.74,-14083.65,-19426.77,5487.344999999999,-63374.939999999995,1.046461665972186,0.2688610717466634,0.15246559657735925,0.6005296019744416,1.3548650303680139,2.2313232715011226,7.694340531584347,4.367672890164415,-0.147399525,-0.943417995,0.29223558,-21.39452,-26.613439999999997,-3.815,71.0
1774822205.6749885,0.0073451995849609375,2026-03-29T22:10:05.674,2026-03-29T18:10:05.674,-33045.299999999996,-48514.275,-84728.34,-49835.655,-14096.789999999999,-19444.68,5412.735,-63403.47,-6.78391776130645,-6.392845636306168,-6.501832032141401,-5.782080036950916,-3.302334414246608,-7.796415550248497,1.9046109226888346,-1.5544220619296818,-0.147399525,-0.943417995,0.29223558,-21.39452,-26.613439999999997,-3.815,71.0
1774822205.6750083,1.9788742065429688e-05,2026-03-29T22:10:05.675,2026-03-29T18:10:05.675,-33059.655,-48518.415,-84727.44,-49833.27,-14092.244999999999,-19443.329999999998,5403.195,-63412.47,-11.53972359076089,-10.108206241497971,-10.14682417141058,-9.42417256598808,-6.399483888866927,-14.102772923807445,-4.381615511821715,-6.746494420248947,-0.147399525,-0.943417995,0.29223558,-21.39452,-26.613439999999997,-3.815,71.0
1774822205.675027,1.8596649169921875e-05,2026-03-29T22:10:05.675,2026-03-29T18:10:05.675,-33066.405,-48518.505,-84719.97,-49822.02,-14080.23,-19435.95,5453.865,-63398.25,-11.09678369704403,-9.213374348705072,-9.154906157502992,-8.786243100577318,-6.691458068189234,-13.994692517610302,-8.75855441559592,-9.05376811054629,-0.147399525,-0.943417995,0.29223558,-21.39452,-26.613439999999997,-3.815,71.0
1774822205.6750338,6.9141387939453125e-06,2026-03-29T22:10:05.675,2026-03-29T18:10:05.675,-33045.84,-48503.7,-84703.00499999999,-49811.354999999996,-14073.39,-19425.6,5464.304999999999,-63378.99,-5.696087797581542,-4.170427853496983,-4.042834630584578,-4.3000557960260215,-4.1815730271916545,-7.7277070377817365,-9.670188614364529,-7.567553706087086,-0.147399525,-0.943417995,0.29223558,-21.39452,-26.613439999999997,-3.815,71.0
1774822205.6855009,0.010467052459716797,2026-03-29T22:10:05.685,2026-03-29T18:10:05.685,-33028.38,-48482.82,-84677.31,-49789.53,-14062.859999999999,-19406.745,5469.885,-63377.685,2.1790910403948476,2.6656303492797684,2.7963860250547343,1.8963027878342888,-0.054213666266296284,1.707250496863116,-6.92366739150135,-2.9802032032752175,-0.147399525,-0.943417995,0.29223558,-21.39452,-26.613439999999997,-3.815,71.0
1774822205.6855204,1.9550323486328125e-05,2026-03-29T22:10:05.685,2026-03-29T18:10:05.685,-33028.56,-48483.765,-84684.33,-49788.45,-14064.029999999999,-19413.405,5471.73,-63390.465,8.953271758957055,8.15590758479196,8.226742333653325,6.9903547870315235,3.8946356066049517,10.02340677351239,-1.6714622849568446,2.741099283493088,-0.147399525,-0.943417995,0.29223558,-21.39452,-26.613439999999997,-3.815,71.0
1774822205.6855612,4.076957702636719e-05,2026-03-29T22:10:05.685,2026-03-29T18:10:05.685,-33010.515,-48468.15,-84672.54,-49775.939999999995,-14049.63,-19404.765,5474.655,-63373.005,11.59996554905822,9.83649149347621,9.825198091158937,8.790498744835766,6.050424238476749,13.605398513603419,4.078549723251435,7.206489189941381,-0.147399525,-0.943417995,0.29223558,-21.39452,-26.613439999999997,-3.815,71.0
1774822205.6855695,8.344650268554688e-06,2026-03-29T22:10:05.685,2026-03-29T18:10:05.685,-33018.39,-48483.9,-84695.355,-49801.409999999996,-14070.375,-19419.48,5475.96,-63355.994999999995,9.012398235210036,7.040956831969951,6.976026846090635,6.67925253992349,5.640648019613327,11.092289319049652,8.213886129054735,8.608374544247813,-0.147399525,-0.943417995,0.29223558,-21.39452,-26.613439999999997,-3.815,71.0
1774822205.690122,0.004552364349365234,2026-03-29T22:10:05.690,2026-03-29T18:10:05.690,-33005.7,-48468.96,-84679.29,-49781.61,-14043.96,-19394.64,5480.054999999999,-63353.295,2.4738390193060544,1.1668209142943342,1.1026730984973803,1.8044545753021917,2.9923000822395527,3.878169775421254,9.25834531056773,6.453393198361064,-0.14379846,-0.958188465,0.29284593000000003,-24.3397,-23.74456,1.64808,71.0
1774822205.6901495,2.765655517578125e-05,2026-03-29T22:10:05.690,2026-03-29T18:10:05.690,-33030.405,-48497.895,-84710.87999999999,-49811.939999999995,-14067.045,-19413.765,5474.745,-63371.52,-4.976782978487894,-5.022562319321989,-5.047635791757204,-3.5383739262057756,-0.6880207198540841,-4.643914391231003,6.864304086270839,1.7249039984818861,-0.14379846,-0.958188465,0.29284593000000003,-24.3397,-23.74456,1.64808,71.0
1774822205.6936312,0.003481626510620117,2026-03-29T22:10:05.693,2026-03-29T18:10:05.693,-33031.71,-48499.424999999996,-84711.015,-49819.229999999996,-14070.195,-19416.149999999998,5497.29,-63369.09,-9.971368161519822,-8.712332720914075,-8.705456586494138,-7.002877010935661,-3.8750592801392134,-10.69045433521354,1.9134967141879407,-3.5709897123080743,-0.14379846,-0.958188465,0.29284593000000003,-24.3397,-23.74456,1.64808,71.0
1774822205.693646,1.4781951904296875e-05,2026-03-29T22:10:05.693,2026-03-29T18:10:05.693,-33052.049999999996,-48521.79,-84731.84999999999,-49844.115,-14100.66,-19444.68,5481.945,-63380.564999999995,-10.35522073688301,-8.335038201360879,-8.34272988938867,-7.236630785399106,-5.360730076857325,-11.779821452344803,-3.793322425295532,-7.263865931482228,-0.14379846,-0.958188465,0.29284593000000003,-24.3397,-23.74456,1.64808,71.0
1774822205.6936617,1.5735626220703125e-05,2026-03-29T22:10:05.693,2026-03-29T18:10:05.693,-33055.74,-48522.06,-84724.92,-49834.034999999996,-14101.335,-19448.64,5461.2,-63392.805,-6.129536400496885,-4.245659033709216,-4.31385227348205,-4.401447394262444,-4.697585875208521,-7.745695872815232,-8.15742344766302,-7.910958213067625,-0.14379846,-0.958188465,0.29284593000000003,-24.3397,-23.74456,1.64808,71.0
1774822205.6936712,9.5367431640625e-06,2026-03-29T22:10:05.693,2026-03-29T18:10:05.693,-33049.17,-48508.29,-84709.70999999999,-49815.405,-14084.55,-19434.87,5466.735,-63402.119999999995,0.6253705228914579,1.5231600113977808,1.3964653545639194,0.02710409846812498,-2.2952340444630988,-0.6610663837174063,-9.520341112283697,-5.354918227730139,-0.14379846,-0.958188465,0.29284593000000003,-24.3397,-23.74456,1.64808,71.0
1774822205.70014,0.006468772888183594,2026-03-29T22:10:05.700,2026-03-29T18:10:05.700,-33044.31,-48510.134999999995,-84717.27,-49824.09,-14087.744999999999,-19429.649999999998,5512.32,-63387.81,6.77818008452375,6.276384993504616,6.159994149658497,4.029072408581447,0.8231368817807896,6.221253612754369,-7.279794770176509,-0.7349986035058482,-0.14379846,-0.958188465,0.29284593000000003,-24.3397,-23.74456,1.64808,71.0
1774822205.7001612,2.1219253540039062e-05,2026-03-29T22:10:05.700,2026-03-29T18:10:05.700,-33031.845,-48499.244999999995,-84711.23999999999,-49815.9,-14075.775,-19415.43,5532.929999999999,-63378.81,9.616087408561064,7.933097703485347,7.932005610127053,5.976710420358484,3.462988536271759,9.97164579823896,-2.162893777210209,4.026224460515455,-0.14379846,-0.958188465,0.29284593000000003,-24.3397,-23.74456,1.64808,71.0
1774822205.7049165,0.004755258560180664,2026-03-29T22:10:05.704,2026-03-29T18:10:05.704,-33026.445,-48490.695,-84700.75499999999,-49807.125,-14068.89,-19412.684999999998,5503.86,-63381.015,8.05752837133926,5.951358954867588,6.137521278400989,5.296711088712168,4.70470442487678,9.23115806051012,3.9707163955180182,7.02655537924451,-0.14379846,-0.958188465,0.29284593000000003,-24.3397,-23.74456,1.64808,71.0
1774822205.704929,1.2636184692382812e-05,2026-03-29T22:10:05.704,2026-03-29T18:10:05.704,-33026.94,-48487.725,-84693.69,-49798.439999999995,-14059.484999999999,-19404.719999999998,5493.554999999999,-63386.82,3.0574174353858767,1.4830826654138005,1.8281331500994225,2.5882923217232565,4.193282221236474,4.672556488501746,8.769117572497954,7.14047677593229,-0.14379846,-0.958188465,0.29284593000000003,-24.3397,-23.74456,1.64808,71.0
1774822205.7076747,0.0027456283569335938,2026-03-29T22:10:05.707,2026-03-29T18:10:05.707,-33034.905,-48494.79,-84701.7,-49804.695,-14067.269999999999,-19412.594999999998,5491.755,-63393.345,-2.9438506815825844,-3.2718786125637087,-2.9140986946353338,-0.790611989318332,2.1993902921919872,-1.4621891303347898,10.273065767923452,4.42941325960946,-0.13952601,-0.97997796,0.288878655,-23.02734,-23.714039999999997,8.57612,71.0
1774822205.7077053,3.0517578125e-05,2026-03-29T22:10:05.707,2026-03-29T18:10:05.707,-33037.02,-48500.009999999995,-84710.025,-49811.939999999995,-14073.345,-19417.86,5498.37,-63394.335,-7.2211114759837765,-6.158758336211779,-5.995324933778254,-3.411184325225446,-0.527041908233477,-6.463213713728539,7.722614806393903,0.06334694303239544,-0.13952601,-0.97997796,0.288878655,-23.02734,-23.714039999999997,8.57612,71.0
1774822205.7129512,0.00524592399597168,2026-03-29T22:10:05.712,2026-03-29T18:10:05.712,-33037.92,-48503.205,-84716.055,-49818.24,-14078.519999999999,-19422.765,5501.16,-63397.665,-8.019503183528041,-6.060336201196138,-6.247122140204654,-4.384098654131302,-3.0301641125560086,-8.35170591558588,1.950119980766769,-4.187330766379474,-0.13952601,-0.97997796,0.288878655,-23.02734,-23.714039999999997,8.57612,71.0
1774822205.7129896,3.838539123535156e-05,2026-03-29T22:10:05.712,2026-03-29T18:10:05.712,-33033.825,-48494.97,-84706.605,-49808.79,-14071.275,-19418.489999999998,5456.429999999999,-63417.24,-5.2770824154224485,-3.323689058386222,-3.8563915238680337,-3.6283099375577574,-4.453399630473738,-6.6452404646585945,-4.847033510936683,-6.667181220739768,-0.13952601,-0.97997796,0.288878655,-23.02734,-23.714039999999997,8.57612,71.0
1774822205.715074,0.002084493637084961,2026-03-29T22:10:05.715,2026-03-29T18:10:05.715,-33026.715,-48485.564999999995,-84696.66,-49800.509999999995,-14065.154999999999,-19414.62,5424.12,-63419.759999999995,-0.5154266567494008,0.5393981796148476,-0.1369293240694829,-1.7376301735519863,-4.297529701766558,-2.403842403095464,-9.922112491499128,-6.470612158648278,-0.13952601,-0.97997796,0.288878655,-23.02734,-23.714039999999997,8.57612,71.0
1774822205.7150877,1.3589859008789062e-05,2026-03-29T22:10:05.715,2026-03-29T18:10:05.715,-33024.78,-48481.56,-84688.37999999999,-49798.89,-14066.595,-19416.87,5435.775,-63403.515,3.9884976805868777,3.6749234160485518,3.184443734709064,0.4127858801553258,-2.5767379496084954,2.3828086158170443,-11.09274093759065,-3.7584861289732157,-0.13952601,-0.97997796,0.288878655,-23.02734,-23.714039999999997,8.57612,71.0
1774822205.7247355,0.009647846221923828,2026-03-29T22:10:05.724,2026-03-29T18:10:05.724,-33023.34,-48480.165,-84685.23,-49795.965,-14064.39,-19416.96,5454.585,-63396.27,6.30423157383085,4.789241076130978,4.7825687169722615,2.079313084953447,0.16345114334932226,5.726914405546212,-7.699632881970489,0.3456904003416669,-0.13952601,-0.97997796,0.288878655,-23.02734,-23.714039999999997,8.57612,71.0
1774822205.7247567,2.1219253540039062e-05,2026-03-29T22:10:05.724,2026-03-29T18:10:05.724,-33022.665,-48486.509999999995,-84696.435,-49805.549999999996,-14070.644999999999,-19419.524999999998,5495.355,-63388.89,5.683842646526867,3.686207628348997,4.259009703057042,2.8835057283046632,2.984675976112551,6.457101062244045,-0.9795405256193634,4.218887770612332,-0.13952601,-0.97997796,0.288878655,-23.02734,-23.714039999999997,8.57612,71.0
1774822205.7247775,2.0742416381835938e-05,2026-03-29T22:10:05.724,2026-03-29T18:10:05.724,-33035.04,-48492.0,-84697.73999999999,-49804.11,-14068.17,-19415.295,5501.565,-63401.265,2.7651403568465507,1.2135016479087228,2.171187282069457,2.807447991132544,4.838896015155995,4.588422814854177,6.358131268437017,6.371106039947368,-0.13952601,-0.97997796,0.288878655,-23.02734,-23.714039999999997,8.57612,71.0
1774822205.7247853,7.867813110351562e-06,2026-03-29T22:10:05.724,2026-03-29T18:10:05.724,-33040.979999999996,-48494.79,-84700.215,-49804.965,-14068.755,-19416.239999999998,5503.86,-63406.755,-0.888353569798383,-1.291037917639827,-0.3763234726695368,2.0365651796191453,4.935497815092347,1.1565977867110508,11.223090554032433,6.006152375626267,-0.13952601,-0.97997796,0.288878655,-23.02734,-23.714039999999997,8.57612,71.0
1774822205.727179,0.0023937225341796875,2026-03-29T22:10:05.727,2026-03-29T18:10:05.727,-33058.71,-48514.905,-84721.00499999999,-49824.99,-14089.005,-19437.84,5489.82,-63423.494999999995,-3.619076135470968,-2.718484967376565,-2.3161546967659805,0.801307362305355,3.077570682744105,-2.3340069977314344,11.46541101543703,3.3070553358303267,-0.128234535,-1.003110225,0.28576587,-10.97194,-21.54712,13.45932,71.0
1774822205.727196,1.6927719116210938e-05,2026-03-29T22:10:05.727,2026-03-29T18:10:05.727,-33037.695,-48491.549999999996,-84699.405,-49802.939999999995,-14069.744999999999,-19421.1,5491.44,-63418.049999999996,-4.43817143550515,-2.6884015334410694,-3.0690656219377734,-0.6733467533506675,-0.17467612139937178,-4.5615743090430625,6.852049136855059,-0.6504577159000021,-0.128234535,-1.003110225,0.28576587,-10.97194,-21.54712,13.45932,71.0
1774822205.7316337,0.004437685012817383,2026-03-29T22:10:05.731,2026-03-29T18:10:05.731,-33022.979999999996,-48477.195,-84689.415,-49796.009999999995,-14063.85,-19419.165,5468.535,-63413.954999999994,-3.3626865315595706,-1.599221010686885,-2.6688864747170764,-2.112391003916864,-3.6234534315352542,-4.859506663793531,-0.7569950068819202,-4.316990611789886,-0.128234535,-1.003110225,0.28576587,-10.97194,-21.54712,13.45932,71.0
1774822205.7316504,1.6689300537109375e-05,2026-03-29T22:10:05.731,2026-03-29T18:10:05.731,-33031.935,-48485.205,-84698.685,-49807.845,-14080.455,-19436.13,5399.37,-63443.52,-1.2241901508790738,-0.26302434869293884,-1.568854358882271,-3.1296602538936833,-5.846606698410988,-3.3584418246557672,-8.151969751844264,-6.263205802780677,-0.128234535,-1.003110225,0.28576587,-10.97194,-21.54712,13.45932,71.0
1774822205.7355952,0.003944873809814453,2026-03-29T22:10:05.735,2026-03-29T18:10:05.735,-33035.805,-48498.39,-84716.50499999999,-49825.89,-14111.82,-19437.434999999998,5397.705,-63449.46,0.8763761526539295,0.6199678253033254,-0.30309510469790807,-3.278025208179688,-5.779254633068571,-0.809190743259689,-12.14329080399659,-5.7284265518159465,-0.128234535,-1.003110225,0.28576587,-10.97194,-21.54712,13.45932,71.0
1774822205.7356095,1.430511474609375e-05,2026-03-29T22:10:05.735,2026-03-29T18:10:05.735,-33034.5,-48505.77,-84726.315,-49835.655,-14118.93,-19439.73,5466.33,-63419.22,2.136990178807815,0.8300655604060919,0.7773694432381787,-2.247870884017523,-3.2291815177990317,1.7799431798564902,-10.966158596549757,-2.919037632818616,-0.128234535,-1.003110225,0.28576587,-10.97194,-21.54712,13.45932,71.0
1774822205.7396011,0.003991603851318359,2026-03-29T22:10:05.739,2026-03-29T18:10:05.739,-33016.77,-48475.89,-84679.69499999999,-49779.765,-14031.765,-19393.92,5524.65,-63378.854999999996,2.3514639326747377,0.6448397275950076,1.5615717132297364,-0.12495529252420769,0.9254868910417877,3.5210636304061493,-5.087912735547014,1.0604430660584836,-0.128234535,-1.003110225,0.28576587,-10.97194,-21.54712,13.45932,71.0
1774822205.7396305,2.9325485229492188e-05,2026-03-29T22:10:05.739,2026-03-29T18:10:05.739,-33016.455,-48478.545,-84676.185,-49771.979999999996,-14012.369999999999,-19371.015,5545.3949999999995,-63365.579999999994,1.8299471752871828,0.5346233974675386,2.050269731572767,2.466997034348695,5.001151762177526,3.9105869563717763,2.9634483018925835,4.62708320257152,-0.128234535,-1.003110225,0.28576587,-10.97194,-21.54712,13.45932,71.0
1774822205.7453525,0.0057220458984375,2026-03-29T22:10:05.745,2026-03-29T18:10:05.745,-33049.305,-48510.09,-84706.83,-49806.405,-14059.439999999999,-19401.344999999998,5511.51,-63397.935,1.062008318380942,0.761573881192154,2.1860325781588292,4.49145018804787,7.180932274857252,2.927461542304989,9.695166077896639,6.339145937543474,-0.128234535,-1.003110225,0.28576587,-10.97194,-21.54712,13.45932,71.0
1774822205.7453766,2.4080276489257812e-05,2026-03-29T22:10:05.745,2026-03-29T18:10:05.745,-33055.56,-48513.42,-84718.89,-49823.64,-14083.289999999999,-19431.18,5479.11,-63412.244999999995,0.3710904016154373,1.156613756235412,1.8006820344014494,4.90995678445127,6.33190875557423,0.9813073809965195,12.191281891077828,5.479345088890228,-0.128234535,-1.003110225,0.28576587,-10.97194,-21.54712,13.45932,71.0
1774822205.7510896,0.005712985992431641,2026-03-29T22:10:05.751,2026-03-29T18:10:05.751,-33045.03,-48495.645,-84711.69,-49818.555,-14082.615,-19436.445,5482.3949999999995,-63414.63,-0.2215241413861601,1.2274693267054824,0.7420868770033547,3.2180415056266076,2.5967119259398976,-1.241931112230529,9.407468041191013,2.3663159595916623,-0.11328096,-1.00695543,0.28967211,1.78542,-16.29768,16.46554,71.0
1774822205.7511086,1.9073486328125e-05,2026-03-29T22:10:05.751,2026-03-29T18:10:05.751,-33026.805,-48479.49,-84689.73,-49795.11,-14063.984999999999,-19421.954999999998,5486.76,-63403.47,-0.8657688103572748,0.5339922990896159,-0.9015483344657939,-0.17182516700185355,-2.5502414406093643,-2.9881693494793002,2.629482508193528,-1.7459587440928404,-0.11328096,-1.00695543,0.28967211,1.78542,-16.29768,16.46554,71.0
1774822205.7511256,1.6927719116210938e-05,2026-03-29T22:10:05.751,2026-03-29T18:10:05.751,-33004.35,-48456.45,-84665.565,-49767.479999999996,-14032.664999999999,-19391.94,5496.3,-63388.755,-1.612668216690982,-0.9141776172663107,-2.6565747994841438,-3.950515746403963,-6.868252443232474,-3.6564390866239935,-5.116556754207755,-5.1605576842098815,-0.11328096,-1.00695543,0.28967211,1.78542,-16.29768,16.46554,71.0
1774822205.7511308,5.245208740234375e-06,2026-03-29T22:10:05.751,2026-03-29T18:10:05.751,-33005.79,-48462.03,-84673.665,-49786.784999999996,-14043.824999999999,-19391.04,5502.014999999999,-63388.439999999995,-2.226507734086247,-2.5154663136660895,-3.7526145989566673,-6.406435864215696,-8.330555654778113,-2.990879821661996,-10.43340534611414,-6.436177196600867,-0.11328096,-1.00695543,0.28967211,1.78542,-16.29768,16.46554,71.0
1774822205.7553506,0.004219770431518555,2026-03-29T22:10:05.755,2026-03-29T18:10:05.755,-33045.299999999996,-48500.369999999995,-84708.045,-49834.305,-14100.75,-19434.51,5455.844999999999,-63428.939999999995,-2.244887013037792,-3.325835532652571,-3.464283502728888,-6.2135778900300025,-6.088531836817883,-1.1905482354203145,-11.073842785270953,-5.00596635141753,-0.11328096,-1.00695543,0.28967211,1.78542,-16.29768,16.46554,71.0
1774822205.7553797,2.9087066650390625e-05,2026-03-29T22:10:05.755,2026-03-29T18:10:05.755,-33068.655,-48524.939999999995,-84736.75499999999,-49854.015,-14128.965,-19481.805,5387.985,-63470.655,-1.2813535535756924,-2.5968853313659563,-1.5524936815170443,-3.1444705561333004,-0.9554881819007792,1.1170361370573683,-6.918403142527535,-1.4462545872659465,-0.11328096,-1.00695543,0.28967211,1.78542,-16.29768,16.46554,71.0
1774822205.7593255,0.003945827484130859,2026-03-29T22:10:05.759,2026-03-29T18:10:05.759,-33054.93,-48509.189999999995,-84723.12,-49836.24,-14108.039999999999,-19469.565,5367.735,-63471.915,0.6137580199080108,-0.3026471936471209,1.4508821387641098,1.6742291517213876,4.861935120986516,3.063996167411235,0.029199440054035984,2.7395629144270743,-0.11328096,-1.00695543,0.28967211,1.78542,-16.29768,16.46554,71.0
1774822205.759344,1.8596649169921875e-05,2026-03-29T22:10:05.759,2026-03-29T18:10:05.759,-33036.84,-48489.165,-84699.405,-49809.015,-14076.225,-19425.825,5424.48,-63437.625,2.7901026730730707,2.677197259993583,4.329432531964778,6.154452084610929,8.713003030502305,3.8558423167224216,6.608079136683296,5.750639255525914,-0.11328096,-1.00695543,0.28967211,1.78542,-16.29768,16.46554,71.0
1774822205.7632632,0.003919124603271484,2026-03-29T22:10:05.763,2026-03-29T18:10:05.763,-33019.244999999995,-48472.424999999996,-84678.66,-49789.665,-14063.265,-19416.915,5520.0599999999995,-63394.695,4.196660376715304,4.884512384144373,5.673157540703239,8.163250260924166,8.724531249339451,3.1045051119161777,9.961586742623393,6.271502790145806,-0.11328096,-1.00695543,0.28967211,1.78542,-16.29768,16.46554,71.0
1774822205.7632823,1.9073486328125e-05,2026-03-29T22:10:05.763,2026-03-29T18:10:05.763,-33022.89,-48476.79,-84679.29,-49779.945,-14048.82,-19406.79,5558.264999999999,-63385.784999999996,3.897797965410749,5.004537469341966,4.576574813462103,6.554896055546005,4.725477393551944,1.0358620817528008,8.808006249941204,4.064332477175865,-0.11328096,-1.00695543,0.28967211,1.78542,-16.29768,16.46554,71.0
1774822205.7673364,0.004054069519042969,2026-03-29T22:10:05.767,2026-03-29T18:10:05.767,-33041.295,-48504.689999999995,-84718.17,-49816.665,-14075.55,-19417.95,5533.965,-63401.265,1.6490370427567522,2.6213389850492996,1.1947935277538992,1.811362258612781,-1.5877827090464873,-1.5456734495188844,3.9410869207666828,0.09585461242899837,-0.10339329,-0.99340566,0.292540755,3.93708,-14.619079999999999,20.57048,71.0
1774822205.7673693,3.2901763916015625e-05,2026-03-29T22:10:05.767,2026-03-29T18:10:05.767,-33062.13,-48520.755,-84732.61499999999,-49839.345,-14094.494999999999,-19415.204999999998,5494.365,-63430.92,-1.806138586325203,-1.4171707846541444,-3.1671065477026943,-4.062107404760652,-7.366873141215098,-3.55722904797718,-2.241600784305526,-3.8758295836505416,-0.10339329,-0.99340566,0.292540755,3.93708,-14.619079999999999,20.57048,71.0
1774822205.771214,0.003844738006591797,2026-03-29T22:10:05.771,2026-03-29T18:10:05.771,-33049.979999999996,-48507.165,-84716.86499999999,-49824.494999999995,-14083.695,-19411.739999999998,5472.135,-63437.265,-4.945192751280182,-5.277449724030792,-6.547691519689388,-8.39258668884874,-9.908345983869498,-4.097487612354569,-6.92172133189839,-6.083297801042245,-0.10339329,-0.99340566,0.292540755,3.93708,-14.619079999999999,20.57048,71.0
1774822205.771232,1.7881393432617188e-05,2026-03-29T22:10:05.771,2026-03-29T18:10:05.771,-33051.195,-48508.83,-84717.98999999999,-49824.314999999995,-14084.324999999999,-19420.11,5449.139999999999,-63450.674999999996,-6.146949313469577,-6.98495079631495,-7.224464875539141,-9.07693909510704,-7.935944576504299,-2.8676823304316676,-8.169357147721357,-5.5515610974286345,-0.10339329,-0.99340566,0.292540755,3.93708,-14.619079999999999,20.57048,71.0
1774822205.7792888,0.008056879043579102,2026-03-29T22:10:05.779,2026-03-29T18:10:05.779,-33045.165,-48503.88,-84715.965,-49824.405,-14089.769999999999,-19429.38,5420.61,-63442.17,-4.534800305045427,-5.440250122094941,-4.59555847649845,-5.617975926153413,-2.2517743329614297,-0.34847045306668906,-5.759008297533998,-2.548758713905255,-0.10339329,-0.99340566,0.292540755,3.93708,-14.619079999999999,20.57048,71.0
1774822205.779314,2.5272369384765625e-05,2026-03-29T22:10:05.779,2026-03-29T18:10:05.779,-33029.595,-48489.39,-84697.965,-49803.705,-14075.1,-19416.69,5448.15,-63418.14,-0.5418149932256857,-1.0810987408413644,0.40552196581457517,0.5580097874684323,4.580124738689953,2.3747251424932663,-1.1370997866717862,1.5318537281712148,-0.10339329,-0.99340566,0.292540755,3.93708,-14.619079999999999,20.57048,71.0
1774822205.785974,0.006659984588623047,2026-03-29T22:10:05.785,2026-03-29T18:10:05.785,-33039.99,-48499.695,-84705.84,-49807.215,-14078.789999999999,-19422.27,5472.2699999999995,-63427.409999999996,4.143880046010844,4.192831073079593,5.619395455244616,6.6923446612204565,9.398727948534232,4.082303774729588,3.390459978135522,4.813973328556937,-0.10339329,-0.99340566,0.292540755,3.93708,-14.619079999999999,20.57048,71.0
1774822205.7859926,1.8596649169921875e-05,2026-03-29T22:10:05.785,2026-03-29T18:10:05.785,-33048.945,-48505.814999999995,-84708.495,-49811.759999999995,-14087.519999999999,-19433.969999999998,5456.655,-63443.43,7.2970906046001245,7.857098489876851,8.604861474703233,9.946952270867447,9.926124366576435,3.9809471786929174,5.8110232009523015,5.810222543156118,-0.10339329,-0.99340566,0.292540755,3.93708,-14.619079999999999,20.57048,71.0
1774822205.7860096,1.6927719116210938e-05,2026-03-29T22:10:05.786,2026-03-29T18:10:05.786,-33042.24,-48502.395,-84706.69499999999,-49811.22,-14088.33,-19436.625,5455.26,-63436.814999999995,7.229312576719199,7.98795988623128,7.798694240171027,8.739733162522278,5.86128244841358,2.088924469236042,5.320145435829181,4.114400663177616,-0.10339329,-0.99340566,0.292540755,3.93708,-14.619079999999999,20.57048,71.0
1774822205.7860184,8.821487426757812e-06,2026-03-29T22:10:05.786,2026-03-29T18:10:05.786,-33043.68,-48507.795,-84716.73,-49820.939999999995,-14098.994999999999,-19440.855,5503.995,-63427.95,3.6923567507261814,4.273430007711681,3.332172984315039,3.523267984315518,-0.9456001357108126,-0.7486903517557499,2.5732729927805402,0.5834425514797712,-0.10339329,-0.99340566,0.292540755,3.93708,-14.619079999999999,20.57048,71.0
1774822205.7885184,0.0025000572204589844,2026-03-29T22:10:05.788,2026-03-29T18:10:05.788,-33053.22,-48511.979999999996,-84713.44499999999,-49822.29,-14114.835,-19449.945,5474.61,-63447.435,-1.8712837847361299,-1.7219247963595192,-2.9216429969496356,-3.3808819574706455,-7.339375718479514,-3.237720590416151,-0.7963549000287456,-3.0808014319895483,-0.099914295,-0.96642819,0.29394456,-2.12114,-14.86324,22.02018,71.0
1774822205.788534,1.5497207641601562e-05,2026-03-29T22:10:05.788,2026-03-29T18:10:05.788,-33032.205,-48488.174999999996,-84685.72499999999,-49802.445,-14094.539999999999,-19429.739999999998,5477.94,-63438.93,-6.913637581060083,-7.219459047854885,-8.1407041036717,-8.833542777621346,-10.337661345612469,-4.236048167193517,-3.093975521657357,-5.151120290576741,-0.099914295,-0.96642819,0.29394456,-2.12114,-14.86324,22.02018,71.0
1774822205.7986095,0.010075569152832031,2026-03-29T22:10:05.798,2026-03-29T18:10:05.798,-33043.725,-48501.99,-84703.31999999999,-49819.994999999995,-14082.705,-19417.32,5511.33,-63436.59,-8.966222242892501,-9.53381546663616,-9.847210822833143,-10.329643233404742,-8.540433047399752,-3.2930474956597906,-3.416324909342084,-4.700797765018826,-0.099914295,-0.96642819,0.29394456,-2.12114,-14.86324,22.02018,71.0
1774822205.798627,1.7404556274414062e-05,2026-03-29T22:10:05.798,2026-03-29T18:10:05.798,-33051.69,-48507.435,-84705.03,-49820.67,-14063.67,-19412.954999999998,5485.59,-63442.034999999996,-6.865040264397772,-7.400812217135746,-7.098980433999245,-7.166963321528626,-2.7963902762909383,-0.8647568923878245,-2.0110435650891474,-2.0354126033835236,-0.099914295,-0.96642819,0.29394456,-2.12114,-14.86324,22.02018,71.0
1774822205.7986434,1.6450881958007812e-05,2026-03-29T22:10:05.798,2026-03-29T18:10:05.798,-33044.76,-48505.68,-84710.25,-49821.75,-14085.99,-19437.21,5461.785,-63438.119999999995,-1.4004359758608822,-1.6619950465822426,-0.9991184801455679,-0.7780282349192423,4.197000184474082,1.9035908127641177,0.0029314674683609786,1.478458800671217,-0.099914295,-0.96642819,0.29394456,-2.12114,-14.86324,22.02018,71.0
1774822205.798652,8.58306884765625e-06,2026-03-29T22:10:05.798,2026-03-29T18:10:05.798,-33011.19,-48465.314999999995,-84669.25499999999,-49777.74,-14045.22,-19396.62,5458.635,-63436.5,4.966703703034968,5.062388443426167,5.747901717919148,5.932717800570546,9.171467393395494,3.7248541730587137,1.3542882750142504,4.100730435226228,-0.099914295,-0.96642819,0.29394456,-2.12114,-14.86324,22.02018,71.0
1774822205.7986639,1.1920928955078125e-05,2026-03-29T22:10:05.798,2026-03-29T18:10:05.798,-32967.854999999996,-48414.195,-84610.98,-49721.58,-13993.515,-19346.13,5469.344999999999,-63425.564999999995,9.22829497097663,9.587527533842344,10.05407636169742,9.932777759367747,9.832861051996177,3.7814730827124277,1.3560185716333106,4.579794301498466,-0.099914295,-0.96642819,0.29394456,-2.12114,-14.86324,22.02018,71.0
1774822205.7986732,9.298324584960938e-06,2026-03-29T22:10:05.798,2026-03-29T18:10:05.798,-32986.845,-48443.354999999996,-84649.77,-49760.189999999995,-14026.904999999999,-19371.42,5459.175,-63442.034999999996,9.271704603868043,9.694119984468518,9.88187743609062,9.453152490261632,5.934197971232288,2.1038548054512822,0.25206246537860166,2.761111499957721,-0.099914295,-0.96642819,0.29394456,-2.12114,-14.86324,22.02018,71.0
1774822205.807892,0.009218931198120117,2026-03-29T22:10:05.807,2026-03-29T18:10:05.807,-33005.744999999995,-48469.14,-84683.16,-49795.424999999996,-14059.755,-19405.079999999998,5448.87,-63437.31,4.939907264245133,5.229300840945314,5.218654524205954,4.778643574084371,-0.6323268317373227,-0.46539542174555637,-1.0002551982747525,-0.35855659492215997,-0.099914295,-0.96642819,0.29394456,-2.12114,-14.86324,22.02018,71.0
1774822205.80792,2.7894973754882812e-05,2026-03-29T22:10:05.807,2026-03-29T18:10:05.807,-33046.784999999996,-48500.729999999996,-84702.825,-49806.27,-14066.64,-19413.18,5457.105,-63451.215,-1.8282674262660552,-1.773159620088942,-1.8792616139287337,-1.919957882547926,-6.7587724823264255,-2.696642176330612,-1.3651940401985052,-3.15424985246865,-0.099914295,-0.96642819,0.29394456,-2.12114,-14.86324,22.02018,71.0
1774822205.8079453,2.5272369384765625e-05,2026-03-29T22:10:05.807,2026-03-29T18:10:05.807,-33053.58,-48502.395,-84698.37,-49797.18,-14054.939999999999,-19400.219999999998,5446.844999999999,-63466.92,-7.876154093571632,-8.032768504951749,-8.208865477858346,-7.613659944667255,-9.606934538444982,-3.571730970129265,-0.40214868181656793,-4.206035180926619,-0.098693595,-0.94494387,0.297667695,-10.804079999999999,-15.27526,20.09742,71.0
1774822205.8079565,1.1205673217773438e-05,2026-03-29T22:10:05.807,2026-03-29T18:10:05.807,-33050.744999999995,-48506.31,-84706.515,-49809.825,-14071.994999999999,-19413.18,5489.415,-63457.829999999994,-10.322708089362331,-10.581309950730171,-10.887682916925202,-9.806898089096233,-7.938747355059502,-2.75923369099928,1.4188823009407083,-3.019126027645218,-0.098693595,-0.94494387,0.297667695,-10.804079999999999,-15.27526,20.09742,71.0
1774822205.8142972,0.006340742111206055,2026-03-29T22:10:05.814,2026-03-29T18:10:05.814,-33041.79,-48505.049999999996,-84706.605,-49813.695,-14080.365,-19422.09,5540.3099999999995,-63430.74,-7.954842857092848,-8.189684898394269,-8.683293560838743,-7.642889366543124,-2.6604279384279894,-0.7389385195503178,2.9525234451466646,-0.26551262673422127,-0.098693595,-0.94494387,0.297667695,-10.804079999999999,-15.27526,20.09742,71.0
1774822205.8143384,4.124641418457031e-05,2026-03-29T22:10:05.814,2026-03-29T18:10:05.814,-33035.67,-48504.284999999996,-84709.035,-49814.549999999996,-14078.34,-19419.93,5551.335,-63418.14,-1.8368302942221455,-1.9679338531506958,-2.5840727205018643,-2.227524628507962,3.6617736484293264,1.4710234162358808,3.0434742907549723,2.574707242285218,-0.098693595,-0.94494387,0.297667695,-10.804079999999999,-15.27526,20.09742,71.0
1774822205.8143585,2.002716064453125e-05,2026-03-29T22:10:05.814,2026-03-29T18:10:05.814,-33043.545,-48509.1,-84718.89,-49826.52,-14089.005,-19429.785,5507.6849999999995,-63444.329999999994,5.172466823206788,5.157497719767876,4.654679010391799,3.9439404595869316,8.058104225608531,2.8325881825401207,1.2516148397761595,3.987613165650885,-0.098693595,-0.94494387,0.297667695,-10.804079999999999,-15.27526,20.09742,71.0
1774822205.8143656,7.152557373046875e-06,2026-03-29T22:10:05.814,2026-03-29T18:10:05.814,-33038.595,-48498.119999999995,-84703.23,-49815.585,-14085.63,-19426.23,5488.335,-63449.909999999996,9.773094352256956,9.839286144268737,9.775400760754062,8.156614720089804,8.564394024627008,2.784853824347496,-1.7824245312625757,3.217123829027953,-0.098693595,-0.94494387,0.297667695,-10.804079999999999,-15.27526,20.09742,71.0
1774822205.8265693,0.012203693389892578,2026-03-29T22:10:05.826,2026-03-29T18:10:05.826,-33044.4,-48501.674999999996,-84702.465,-49813.83,-14088.33,-19437.39,5471.505,-63453.6,9.799051347218622,9.903116006803975,10.503659373213651,8.684177853800861,5.108277447448307,1.4768428382450358,-4.567167567365431,0.6649441621505194,-0.098693595,-0.94494387,0.297667695,-10.804079999999999,-15.27526,20.09742,71.0
1774822205.8265908,2.1457672119140625e-05,2026-03-29T22:10:05.826,2026-03-29T18:10:05.826,-33049.395,-48508.11,-84715.92,-49826.744999999995,-14101.199999999999,-19452.015,5454.585,-63463.095,5.253284302146526,5.371144480232127,6.567821768514574,5.491136320290783,-0.5315141905681527,-0.3619469642855076,-5.501158626077961,-2.311253916876647,-0.098693595,-0.94494387,0.297667695,-10.804079999999999,-15.27526,20.09742,71.0
1774822205.826613,2.2172927856445312e-05,2026-03-29T22:10:05.826,2026-03-29T18:10:05.826,-33034.815,-48496.14,-84707.145,-49820.354999999996,-14094.269999999999,-19439.954999999998,5456.79,-63456.84,-1.6986478558175504,-1.5728121066507526,-0.20832668280679348,0.14677138015168703,-5.6392493084692275,-1.823957702634448,-3.7528002273038044,-4.102616495989394,-0.098693595,-0.94494387,0.297667695,-10.804079999999999,-15.27526,20.09742,71.0
1774822205.8266208,7.867813110351562e-06,2026-03-29T22:10:05.826,2026-03-29T18:10:05.826,-33024.915,-48485.384999999995,-84697.29,-49806.18,-14088.375,-19415.07,5448.42,-63457.38,-7.771508042157921,-7.648067617207485,-6.76570813913574,-4.958082438751037,-7.879915638789983,-2.278406210479622,0.19143452731923757,-3.6967011350864034,-0.098693595,-0.94494387,0.297667695,-10.804079999999999,-15.27526,20.09742,71.0
1774822205.82663,9.298324584960938e-06,2026-03-29T22:10:05.826,2026-03-29T18:10:05.826,-33031.575,-48483.09,-84688.47,-49790.97,-14077.935,-19391.355,5450.58,-63470.924999999996,-10.132168755036586,-10.04676932006116,-10.210092911121388,-7.6951387548105785,-6.376284397150282,-1.647147798225011,4.631849550674381,-1.2286045154137624,-0.09899877,-0.938413125,0.297667695,-15.702539999999999,-14.680119999999999,16.34346,71.0
1774822205.8266373,7.152557373046875e-06,2026-03-29T22:10:05.826,2026-03-29T18:10:05.826,-33034.77,-48494.34,-84700.89,-49795.244999999995,-14053.68,-19399.05,5487.75,-63463.95,-7.739317302562496,-7.7483751244247285,-9.102457106171906,-7.085119870076656,-2.0439391384090033,-0.3787199372902658,7.408378576237361,2.0574805548063217,-0.09899877,-0.938413125,0.297667695,-15.702539999999999,-14.680119999999999,16.34346,71.0
1774822205.8313117,0.004674434661865234,2026-03-29T22:10:05.831,2026-03-29T18:10:05.831,-33021.72,-48481.29,-84682.8,-49771.619999999995,-14012.505,-19388.565,5528.025,-63456.119999999995,-1.8094300621790098,-1.9559432078333086,-4.058410630374396,-3.6183435171045097,2.9386620588401815,0.8378133641767374,6.957393773149311,4.429677061820139,-0.09899877,-0.938413125,0.297667695,-15.702539999999999,-14.680119999999999,16.34346,71.0
1774822205.831329,1.7404556274414062e-05,2026-03-29T22:10:05.831,2026-03-29T18:10:05.831,-33029.235,-48479.4,-84677.895,-49780.799999999996,-14040.585,-19393.649999999998,5510.5199999999995,-63465.21,4.802399372086194,4.5329045380185775,2.5914554078174143,1.076368059491191,6.22755742682741,1.4467549638597978,3.1520483487327935,4.564320236511114,-0.09899877,-0.938413125,0.297667695,-15.702539999999999,-14.680119999999999,16.34346,71.0
1774822205.8381345,0.006805419921875,2026-03-29T22:10:05.838,2026-03-29T18:10:05.838,-33046.065,-48498.705,-84696.12,-49801.634999999995,-14069.88,-19416.735,5451.03,-63480.555,8.990825103587957,8.69130711325552,7.893869068633843,5.008325453793688,6.423979476752203,1.2846081692031701,-2.512440700640472,2.258593653213967,-0.09899877,-0.938413125,0.297667695,-15.702539999999999,-14.680119999999999,16.34346,71.0
1774822205.8381577,2.3126602172851562e-05,2026-03-29T22:10:05.838,2026-03-29T18:10:05.838,-33041.565,-48503.97,-84709.75499999999,-49817.97,-14089.725,-19442.925,5422.95,-63494.145,8.876273636883136,8.691923373610608,9.598779319447193,6.67169673114007,3.6683071468855974,0.6007380196312638,-7.520750372061904,-1.4151139512348663,-0.09899877,-0.938413125,0.297667695,-15.702539999999999,-14.680119999999999,16.34346,71.0
1774822205.8427217,0.004564046859741211,2026-03-29T22:10:05.842,2026-03-29T18:10:05.842,-33036.345,-48498.21,-84706.83,-49819.14,-14095.305,-19448.37,5443.155,-63508.905,4.659041447042143,4.717056356751772,7.117085318323714,5.601356137631206,-0.5340319712391574,-0.1437593655244199,-9.475027339891556,-4.611050832660211,-0.09899877,-0.938413125,0.297667695,-15.702539999999999,-14.680119999999999,16.34346,71.0
1774822205.8427372,1.5497207641601562e-05,2026-03-29T22:10:05.842,2026-03-29T18:10:05.842,-33020.369999999995,-48476.88,-84676.59,-49786.155,-14065.019999999999,-19417.094999999998,5485.41,-63478.935,-1.541432978381439,-1.2120699181834433,1.7017250000125814,2.445405263144534,-4.121620233235599,-0.5631522654702882,-7.24342334589418,-5.631902411837151,-0.09899877,-0.938413125,0.297667695,-15.702539999999999,-14.680119999999999,16.34346,71.0
1774822205.842752,1.4781951904296875e-05,2026-03-29T22:10:05.842,2026-03-29T18:10:05.842,-33038.235,-48504.465,-84705.56999999999,-49811.805,-14089.455,-19434.555,5494.365,-63442.799999999996,-6.755474692916403,-6.266011843390336,-4.188761936032333,-1.4109961736595753,-5.490966011962,-0.5493587464663595,-1.568918970132766,-3.8120527262399553,-0.09899877,-0.938413125,0.297667695,-15.702539999999999,-14.680119999999999,16.34346,71.0
1774822205.842758,5.9604644775390625e-06,2026-03-29T22:10:05.842,2026-03-29T18:10:05.842,-33042.555,-48505.545,-84703.545,-49807.305,-14080.005,-19419.57,5502.285,-63435.555,-8.599110076269778,-8.170525814420682,-8.019188901653223,-4.458023559730087,-4.215188632284223,-0.28241935376085153,5.173785891798498,0.09095758080076853,-0.09899877,-0.938413125,0.297667695,-15.702539999999999,-14.680119999999999,16.34346,71.0
1774822205.8489,0.006142139434814453,2026-03-29T22:10:05.848,2026-03-29T18:10:05.848,-33036.075,-48496.455,-84693.78,-49795.064999999995,-14061.24,-19397.61,5508.36,-63438.435,-6.376437418202951,-6.239680064254501,-8.275044230952446,-5.6373124385673945,-1.1447645127920814,-0.06286162392274124,9.992508813450364,4.214479261241206,-0.10119603,-0.94592043,0.29772873,-11.38396,-14.954799999999999,12.803139999999999,71.0
1774822205.848948,4.792213439941406e-05,2026-03-29T22:10:05.848,2026-03-29T18:10:05.848,-33042.195,-48506.759999999995,-84716.145,-49813.47,-14078.07,-19419.344999999998,5485.365,-63457.11,-1.3330731180888133,-1.6050540615725613,-5.050790593547398,-4.671175477218739,2.1100049806699555,-0.08511236974211035,10.618746076714784,6.4834998137933155,-0.10119603,-0.94592043,0.29772873,-11.38396,-14.954799999999999,12.803139999999999,71.0
1774822205.855762,0.006814002990722656,2026-03-29T22:10:05.855,2026-03-29T18:10:05.855,-33032.52,-48495.6,-84708.94499999999,-49808.79,-14076.494999999999,-19426.32,5436.045,-63466.965,4.025986778986226,3.4241564537394704,0.09291324890338991,-2.067378451712729,4.015231769156444,-0.3005818748629399,6.568552938468711,5.648560507526042,-0.10119603,-0.94592043,0.29772873,-11.38396,-14.954799999999999,12.803139999999999,71.0
1774822205.8557794,1.7404556274414062e-05,2026-03-29T22:10:05.855,2026-03-29T18:10:05.855,-33010.83,-48466.215,-84677.31,-49795.604999999996,-14067.494999999999,-19418.489999999998,5407.695,-63468.63,7.185975970210915,6.5161674824561455,4.889955666810795,1.14467630603356,3.8371217074045654,-0.4575855746024714,-0.5693545748567528,1.9519999384735558,-0.10119603,-0.94592043,0.29772873,-11.38396,-14.954799999999999,12.803139999999999,71.0
1774822205.8585591,0.002779722213745117,2026-03-29T22:10:05.858,2026-03-29T18:10:05.858,-33003.72,-48448.259999999995,-84652.605,-49774.95,-14048.595,-19393.515,5438.474999999999,-63481.365,6.8133272772895985,6.406711223931293,7.374311017523079,3.810664276537466,1.911485502009802,-0.29135599778343035,-7.769364361189732,-2.9251301593475616,-0.10119603,-0.94592043,0.29772873,-11.38396,-14.954799999999999,12.803139999999999,71.0
1774822205.8585725,1.33514404296875e-05,2026-03-29T22:10:05.858,2026-03-29T18:10:05.858,-33028.38,-48483.585,-84675.825,-49772.924999999996,-14039.234999999999,-19385.145,5491.26,-63475.515,3.318979851905656,3.410563645778858,6.68123758065281,5.034569937296618,-0.6316462958221788,0.26003510380233313,-11.865867763197857,-6.63529793456927,-0.10119603,-0.94592043,0.29772873,-11.38396,-14.954799999999999,12.803139999999999,71.0
1774822205.8585875,1.5020370483398438e-05,2026-03-29T22:10:05.858,2026-03-29T18:10:05.858,-33049.215,-48515.715,-84708.09,-49794.75,-14059.574999999999,-19402.829999999998,5517.405,-63466.47,-1.4437567635254325,-0.8489032336021572,3.320826892804269,4.44120892156058,-2.5030407501910923,0.9597988026917132,-10.948424964829858,-7.297829099124103,-0.10119603,-0.94592043,0.29772873,-11.38396,-14.954799999999999,12.803139999999999,71.0
1774822205.858596,8.58306884765625e-06,2026-03-29T22:10:05.858,2026-03-29T18:10:05.858,-33049.44,-48518.145,-84720.375,-49820.67,-14093.369999999999,-19426.995,5504.625,-63459.27,-5.153234671682688,-4.306676287789562,-1.1451966238280893,2.2662908308524363,-2.9017334196620315,1.3737891857700324,-5.239844058276876,-4.444853767996569,-0.10119603,-0.94592043,0.29772873,-11.38396,-14.954799999999999,12.803139999999999,71.0
1774822205.863641,0.0050449371337890625,2026-03-29T22:10:05.863,2026-03-29T18:10:05.863,-33038.055,-48487.185,-84694.86,-49800.555,-14071.23,-19403.19,5484.105,-63474.299999999996,-6.156389809531169,-5.4608200116351435,-4.833021960425569,-0.7308484961505132,-1.8522124046296682,1.1256482413647393,2.9396180087484294,0.6931056137809175,-0.10119603,-0.94592043,0.29772873,-11.38396,-14.954799999999999,12.803139999999999,71.0
1774822205.8636591,1.811981201171875e-05,2026-03-29T22:10:05.863,2026-03-29T18:10:05.863,-33029.595,-48476.564999999995,-84688.2,-49788.63,-14054.13,-19395.045,5475.6449999999995,-63484.47,-4.209194093899972,-4.0242915360920355,-6.330319483176669,-3.503917297124679,-0.09288611618259093,0.1604248152219246,10.124621407923918,5.723975774716415,-0.10119603,-0.94592043,0.29772873,-11.38396,-14.954799999999999,12.803139999999999,71.0
1774822205.8675544,0.003895282745361328,2026-03-29T22:10:05.867,2026-03-29T18:10:05.867,-33025.77,-48473.28,-84681.765,-49785.119999999995,-14058.449999999999,-19418.895,5459.67,-63489.6,-0.48742575457943976,-0.9418182853085485,-5.220832219998145,-5.0507670196488395,1.3836532066578178,-1.1493180409664407,13.177693548492552,8.216487270969067,-0.102843975,-0.9472632,0.300475305,-6.37868,-14.78694,7.00434,71.0
1774822205.8675797,2.5272369384765625e-05,2026-03-29T22:10:05.867,2026-03-29T18:10:05.867,-33013.71,-48468.869999999995,-84679.2,-49794.615,-14064.66,-19420.38,5498.639999999999,-63461.88,3.0887334121855927,2.1802127900600548,-2.155024136218753,-4.755802672862875,1.869884668940453,-2.1428121417916475,10.655456132795278,6.877873248484853,-0.102843975,-0.9472632,0.300475305,-6.37868,-14.78694,7.00434,71.0
1774822205.8716288,0.004049062728881836,2026-03-29T22:10:05.871,2026-03-29T18:10:05.871,-33017.715,-48482.865,-84694.455,-49813.244999999995,-14073.345,-19412.28,5525.955,-63450.45,4.839693859965924,3.9025236777142034,1.5110533828344155,-2.6381862783402226,1.2764830292566016,-2.206089152482449,3.4766394771357,2.2153587090303515,-0.102843975,-0.9472632,0.300475305,-6.37868,-14.78694,7.00434,71.0
1774822205.8716497,2.09808349609375e-05,2026-03-29T22:10:05.871,2026-03-29T18:10:05.871,-33026.67,-48493.034999999996,-84699.98999999999,-49810.634999999995,-14076.135,-19414.89,5517.9,-63461.924999999996,4.117446221835866,3.6155159625688387,4.314815388890182,0.5965989680083853,0.10530694130379095,-1.1318158154919384,-5.410253623751222,-3.6537017663863147,-0.102843975,-0.9472632,0.300475305,-6.37868,-14.78694,7.00434,71.0
1774822205.8756433,0.003993511199951172,2026-03-29T22:10:05.875,2026-03-29T18:10:05.875,-33035.13,-48498.03,-84700.08,-49806.9,-14086.845,-19431.719999999998,5473.349999999999,-63484.649999999994,1.5290019804149018,1.7312327862039125,5.260327117194725,3.757332112208739,-0.8903763526902144,0.7003201814537279,-12.239423377106299,-7.973204438731362,-0.102843975,-0.9472632,0.300475305,-6.37868,-14.78694,7.00434,71.0
1774822205.8756611,1.7881393432617188e-05,2026-03-29T22:10:05.875,2026-03-29T18:10:05.875,-33050.205,-48509.415,-84711.915,-49810.5,-14087.43,-19428.48,5415.705,-63509.22,-1.4742840515115205,-0.6397622431957924,4.147407875856677,5.585902380491418,-1.149592618904227,2.4467532016674967,-14.02189040484516,-8.65137549435157,-0.102843975,-0.9472632,0.300475305,-6.37868,-14.78694,7.00434,71.0
1774822205.8800828,0.004421710968017578,2026-03-29T22:10:05.880,2026-03-29T18:10:05.880,-33041.205,-48499.29,-84704.31,-49799.7,-14073.3,-19414.575,5403.0599999999995,-63501.615,-3.3884138745799097,-2.3128127483610013,1.5631331346690212,5.258685881474328,-0.6027024849331871,3.193419517459638,-9.848868955138519,-5.275761830668426,-0.102843975,-0.9472632,0.300475305,-6.37868,-14.78694,7.00434,71.0
1774822205.8801036,2.0742416381835938e-05,2026-03-29T22:10:05.880,2026-03-29T18:10:05.880,-33035.76,-48486.104999999996,-84686.48999999999,-49779.0,-14048.234999999999,-19398.465,5468.175,-63488.79,-3.4050338999750354,-2.6135940025204842,-1.416588279989591,2.769857341768294,0.3276783516058644,2.433393359935067,-1.3396378248191687,0.6533032342581578,-0.102843975,-0.9472632,0.300475305,-6.37868,-14.78694,7.00434,71.0
1774822205.8907664,0.01066279411315918,2026-03-29T22:10:05.890,2026-03-29T18:10:05.890,-33042.6,-48504.42,-84714.75,-49815.765,-14075.189999999999,-19425.015,5512.5,-63472.725,-1.7455588069631942,-1.6369516711491976,-3.667767549730361,-0.9878649599004348,1.0057553230662062,0.3793313229132155,7.980909205443854,6.397511594275186,-0.102843975,-0.9472632,0.300475305,-6.37868,-14.78694,7.00434,71.0
1774822205.8907883,2.193450927734375e-05,2026-03-29T22:10:05.890,2026-03-29T18:10:05.890,-33049.755,-48519.0,-84737.025,-49861.53,-14115.869999999999,-19454.579999999998,5488.245,-63477.72,0.5526730465710087,-0.08883431951958276,-4.42530504881896,-4.521742009022071,0.9709917472831943,-2.071896323034984,14.139237600103371,9.25666624016193,-0.102843975,-0.9472632,0.300475305,-6.37868,-14.78694,7.00434,71.0
1774822205.9191592,0.02837085723876953,2026-03-29T22:10:05.919,2026-03-29T18:10:05.919,-33043.815,-48507.299999999996,-84722.04,-49847.354999999996,-14114.564999999999,-19446.344999999998,5475.78,-63487.665,2.244070041710724,1.1587414939508414,-3.5191898763423675,-6.330145910208445,0.21248851014565828,-3.734916595517427,14.405421538475126,7.846411129515477,-0.105651585,-0.941831085,0.29919357,-13.093079999999999,-17.487959999999998,4.62378,71.0
1774822205.9191792,2.002716064453125e-05,2026-03-29T22:10:05.919,2026-03-29T18:10:05.919,-33034.049999999996,-48491.595,-84693.19499999999,-49801.545,-14071.005,-19402.469999999998,5481.8099999999995,-63485.82,2.5332995664013835,1.537324849119185,-1.3816777008216545,-5.552918474120217,-0.8231219708837734,-3.7152070642094746,8.502144085421923,2.7692288893501065,-0.105651585,-0.941831085,0.29919357,-13.093079999999999,-17.487959999999998,4.62378,71.0
1774822205.9192247,4.553794860839844e-05,2026-03-29T22:10:05.919,2026-03-29T18:10:05.919,-33005.205,-48461.67,-84657.285,-49762.125,-14027.445,-19364.265,5505.12,-63465.03,1.4420076935825203,1.030325955153103,1.149602168816756,-2.392815220315457,-1.4907295045674036,-1.8861828329741155,-1.2040296701060589,-3.647060040105151,-0.105651585,-0.941831085,0.29919357,-13.093079999999999,-17.487959999999998,4.62378,71.0
1774822205.9192343,9.5367431640625e-06,2026-03-29T22:10:05.919,2026-03-29T18:10:05.919,-33014.115,-48471.479999999996,-84668.44499999999,-49778.055,-14045.49,-19385.954999999998,5519.205,-63470.25,-0.2820833856305149,0.09689577898751198,3.147125885630629,1.9038541154564785,-1.3246961829527655,0.9887698903853822,-10.643872774070307,-8.427915004360457,-0.105651585,-0.941831085,0.29919357,-13.093079999999999,-17.487959999999998,4.62378,71.0
1774822205.919245,1.0728836059570312e-05,2026-03-29T22:10:05.919,2026-03-29T18:10:05.919,-33035.895,-48492.99,-84689.415,-49801.365,-14071.32,-19409.489999999998,5501.07,-63489.104999999996,-1.6292914166651735,-0.6490029669544196,3.9165171024100527,5.534236971784359,-0.3226224000133788,3.5757559674834534,-15.749801898987974,-9.34296720643271,-0.105651585,-0.941831085,0.29919357,-13.093079999999999,-17.487959999999998,4.62378,71.0
1774822205.919254,9.059906005859375e-06,2026-03-29T22:10:05.919,2026-03-29T18:10:05.919,-33065.145,-48520.215,-84721.36499999999,-49829.67,-14095.89,-19433.295,5470.11,-63525.555,-1.8919784266603952,-0.802414898961791,3.2247714518028756,6.905600492179989,1.0261904437096945,4.597197824108893,-14.211426642122856,-5.953367246594137,-0.105651585,-0.941831085,0.29919357,-13.093079999999999,-17.487959999999998,4.62378,71.0
1774822205.919264,1.0013580322265625e-05,2026-03-29T22:10:05.919,2026-03-29T18:10:05.919,-33057.9,-48505.365,-84710.06999999999,-49817.025,-14084.82,-19433.295,5416.425,-63542.204999999994,-1.0221650094800143,-0.37001839421281096,1.366028136132437,5.350252999347449,1.9892268450589101,3.467934800402173,-6.523767515702417,0.1795077489026895,-0.105651585,-0.941831085,0.29919357,-13.093079999999999,-17.487959999999998,4.62378,71.0
1774822205.919272,7.867813110351562e-06,2026-03-29T22:10:05.919,2026-03-29T18:10:05.919,-33031.08,-48483.45,-84690.045,-49801.005,-14071.769999999999,-19421.19,5436.2699999999995,-63508.5,0.39307265617053777,0.28388179636409305,-0.9522964356624192,1.4600100784163534,1.9863896742630152,0.6218846445853631,4.149170621074531,6.222710540021142,-0.105651585,-0.941831085,0.29919357,-13.093079999999999,-17.487959999999998,4.62378,71.0
1774822205.919282,1.0013580322265625e-05,2026-03-29T22:10:05.919,2026-03-29T18:10:05.919,-33022.44,-48486.509999999995,-84693.42,-49806.314999999995,-14076.81,-19418.985,5489.505,-63472.545,1.4991543203710218,0.6922519719716268,-2.8652755896077333,-3.131008367300036,0.9205712186336668,-2.6496363628137423,13.273055718813165,9.393464518890669,-0.105651585,-0.941831085,0.29919357,-13.093079999999999,-17.487959999999998,4.62378,71.0
1774822205.9192903,8.344650268554688e-06,2026-03-29T22:10:05.919,2026-03-29T18:10:05.919,-33027.57,-48494.34,-84701.745,-49808.384999999995,-14072.265,-19413.405,5504.58,-63466.38,1.6642958780864703,0.5777364416828308,-3.663863629357184,-6.439995846303346,-0.7384804667693272,-4.790525633896818,16.87374626246286,8.251202065632064,-0.105651585,-0.941831085,0.29919357,-13.093079999999999,-17.487959999999998,4.62378,71.0
1774822205.9193003,1.0013580322265625e-05,2026-03-29T22:10:05.919,2026-03-29T18:10:05.919,-33042.375,-48507.57,-84718.215,-49823.909999999996,-14085.539999999999,-19428.03,5483.205,-63492.21,0.8196340937293773,0.011071447794989774,-3.0576765081365336,-7.007315113643886,-2.170864887139639,-4.728527257795497,13.276065587574298,3.3548792705105566,-0.11108370000000001,-0.94653078,0.29467698,-18.8461,-18.75454,4.45592,71.0
1774822205.919309,8.58306884765625e-06,2026-03-29T22:10:05.919,2026-03-29T18:10:05.919,-33029.1,-48484.935,-84690.315,-49801.814999999995,-14069.025,-19407.239999999998,5468.264999999999,-63502.74,-0.5274098519935844,-0.647270386180378,-1.2892797469448085,-4.555675253509494,-2.6193915242749406,-2.4163217087343436,3.8860186780663435,-3.0158743841797766,-0.11108370000000001,-0.94653078,0.29467698,-18.8461,-18.75454,4.45592,71.0
1774822205.9193187,9.775161743164062e-06,2026-03-29T22:10:05.919,2026-03-29T18:10:05.919,-33015.104999999996,-48471.255,-84676.815,-49790.384999999995,-14059.08,-19393.875,5487.255,-63494.505,-1.5972729822383016,-0.9754605076291254,0.9505457870403777,-0.1318884206346329,-1.788135405501552,1.10924562667445,-7.350953734297471,-7.934531623243902,-0.11108370000000001,-0.94653078,0.29467698,-18.8461,-18.75454,4.45592,71.0
1774822205.9193268,8.106231689453125e-06,2026-03-29T22:10:05.919,2026-03-29T18:10:05.919,-33022.71,-48472.155,-84671.86499999999,-49783.005,-14061.689999999999,-19395.045,5473.53,-63506.43,-1.7794726067822828,-0.7468997345282693,2.7844699323221964,4.343324309171132,-0.018213994909875332,4.195483634925324,-15.611623423270741,-9.184757197176094,-0.11108370000000001,-0.94653078,0.29467698,-18.8461,-18.75454,4.45592,71.0
1774822205.9193368,1.0013580322265625e-05,2026-03-29T22:10:05.919,2026-03-29T18:10:05.919,-33011.64,-48460.049999999996,-84660.12,-49777.29,-14074.47,-19395.18,5413.32,-63520.29,-0.9649843353502524,-0.06415830001420253,3.4928434922050107,6.9220842338089055,1.8574572504693823,5.3567517386290735,-17.274933386043053,-6.265291675299153,-0.11108370000000001,-0.94653078,0.29467698,-18.8461,-18.75454,4.45592,71.0
1774822205.9193451,8.344650268554688e-06,2026-03-29T22:10:05.919,2026-03-29T18:10:05.919,-32979.015,-48423.104999999996,-84627.405,-49748.265,-14029.064999999999,-19367.415,5411.5199999999995,-63506.79,0.4060801185904731,0.7030506964644908,2.8050997067325185,6.493174725798491,2.9157594885098512,3.9978053154559396,-11.518173732035596,-0.5838459274992471,-0.11108370000000001,-0.94653078,0.29467698,-18.8461,-18.75454,4.45592,71.0
1774822205.9193556,1.049041748046875e-05,2026-03-29T22:10:05.919,2026-03-29T18:10:05.919,-32973.885,-48428.369999999995,-84638.295,-49751.595,-14002.83,-19371.239999999998,5465.745,-63472.32,1.5959514667711723,1.1333485783851356,1.0154052909854885,3.2724212173634473,2.6039711561194623,0.7223851657514927,-0.7207982047216627,5.230926603366333,-0.11108370000000001,-0.94653078,0.29467698,-18.8461,-18.75454,4.45592,71.0
1774822205.9193637,8.106231689453125e-06,2026-03-29T22:10:05.919,2026-03-29T18:10:05.919,-33035.085,-48498.479999999996,-84708.72,-49817.115,-14075.055,-19428.57,5513.804999999999,-63486.585,1.9726389378849678,0.9935721078863484,-1.1334776116013703,-1.3019574167248034,1.027688303136529,-2.9337560728730927,10.52179505070708,8.558909423583009,-0.11108370000000001,-0.94653078,0.29467698,-18.8461,-18.75454,4.45592,71.0
1774822205.9296873,0.010323524475097656,2026-03-29T22:10:05.929,2026-03-29T18:10:05.929,-33066.63,-48526.784999999996,-84728.34,-49829.534999999996,-14093.369999999999,-19441.844999999998,5516.594999999999,-63512.325,1.3430416885319036,0.3648390934313361,-2.7572910831258035,-5.219337149333038,-1.0830012530723288,-5.227949006591344,17.364331674992382,7.97793017147974,-0.11108370000000001,-0.94653078,0.29467698,-18.8461,-18.75454,4.45592,71.0
1774822205.9297028,1.5497207641601562e-05,2026-03-29T22:10:05.929,2026-03-29T18:10:05.929,-33052.905,-48507.705,-84701.97,-49803.21,-14069.564999999999,-19422.045,5482.71,-63520.965,0.04109467829092572,-0.41307594272827086,-3.2020639828463415,-6.794468231404034,-2.7190021204384505,-5.049521084712943,16.81086123823598,3.8687152388529094,-0.11108370000000001,-0.94653078,0.29467698,-18.8461,-18.75454,4.45592,71.0
1774822205.9297175,1.4781951904296875e-05,2026-03-29T22:10:05.929,2026-03-29T18:10:05.929,-33030.54,-48484.89,-84686.04,-49793.939999999995,-14061.375,-19411.11,5463.405,-63515.295,-1.26485686739646,-0.9402858687880918,-2.3204421743955095,-5.405732257072324,-3.0829169724230647,-2.4656164758669186,9.031538045070459,-1.8204186255960126,-0.11560029000000001,-0.95849364,0.293883525,-16.84704,-20.601,5.43256,71.0
1774822205.9297228,5.245208740234375e-06,2026-03-29T22:10:05.929,2026-03-29T18:10:05.929,-33019.335,-48476.97,-84675.42,-49780.034999999996,-14046.074999999999,-19394.64,5473.755,-63499.095,-1.9302286010038372,-0.9789918986032159,-0.5293897485797949,-1.744533132912766,-1.9835187938598595,1.2971404438230705,-2.684699504485235,-6.5090155365747435,-0.11560029000000001,-0.95849364,0.293883525,-16.84704,-20.601,5.43256,71.0
1774822205.9368837,0.00716090202331543,2026-03-29T22:10:05.936,2026-03-29T18:10:05.936,-33045.39,-48503.25,-84693.465,-49795.695,-14067.135,-19410.165,5486.58,-63505.71,-1.6610669355640437,-0.5712126336459649,1.379125683895133,2.5260432057175786,0.06280319186961594,4.434841213047717,-13.330688503327035,-8.165363622852952,-0.11560029000000001,-0.95849364,0.293883525,-16.84704,-20.601,5.43256,71.0
1774822205.937062,0.00017833709716796875,2026-03-29T22:10:05.937,2026-03-29T18:10:05.937,-33053.715,-48514.634999999995,-84702.19499999999,-49798.979999999996,-14070.779999999999,-19413.225,5515.0199999999995,-63505.439999999995,-0.6406354697644172,0.010370897356614863,2.591584551657451,5.5353676388096105,2.077261983133634,5.436111880762611,-18.33282771493155,-6.187184929358324,-0.11560029000000001,-0.95849364,0.293883525,-16.84704,-20.601,5.43256,71.0
1774822205.9370863,2.4318695068359375e-05,2026-03-29T22:10:05.937,2026-03-29T18:10:05.937,-33044.534999999996,-48516.84,-84709.215,-49803.03,-14073.525,-19413.225,5516.865,-63484.335,0.5969482746949184,0.4408040602708076,2.631391887843754,6.0371484446275065,3.0929879162562233,3.818392737817406,-15.522798306959885,-1.600317286556281,-0.11560029000000001,-0.95849364,0.293883525,-16.84704,-20.601,5.43256,71.0
1774822205.9370973,1.0967254638671875e-05,2026-03-29T22:10:05.937,2026-03-29T18:10:05.937,-33035.22,-48515.625,-84719.25,-49822.83,-14093.865,-19427.219999999998,5481.9,-63489.329999999994,1.4615828579753447,0.5377971624330932,1.5592814014475915,3.933665426699549,2.626499338769041,0.3690896367796142,-6.075366919280018,3.4770822501991514,-0.11560029000000001,-0.95849364,0.293883525,-16.84704,-20.601,5.43256,71.0
1774822205.944949,0.007851600646972656,2026-03-29T22:10:05.944,2026-03-29T18:10:05.944,-33031.35,-48507.255,-84712.68,-49826.025,-14094.449999999999,-19425.69,5448.24,-63501.21,1.6033627275213422,0.3543549238956069,-0.07508811984724527,0.26835837213723646,0.9140661493582686,-3.231902353407438,5.992231470936439,6.823358124780959,-0.11560029000000001,-0.95849364,0.293883525,-16.84704,-20.601,5.43256,71.0
1774822205.9449773,2.8371810913085938e-05,2026-03-29T22:10:05.944,2026-03-29T18:10:05.944,-33014.25,-48467.88,-84670.245,-49789.034999999996,-14052.914999999999,-19394.73,5455.3949999999995,-63501.57,1.0557722099217823,0.11583157848554937,-1.5048551856608574,-3.2887126707873886,-1.2045726540963104,-5.229565369949987,15.540587015934282,7.088369811613825,-0.11560029000000001,-0.95849364,0.293883525,-16.84704,-20.601,5.43256,71.0
1774822205.9486856,0.003708362579345703,2026-03-29T22:10:05.948,2026-03-29T18:10:05.948,-33020.505,-48464.055,-84678.48,-49800.645,-14057.414999999999,-19398.87,5499.855,-63500.85,0.16678186341728762,0.04588985485459479,-2.110120762782896,-5.209602941834771,-2.6989840389478146,-4.653788077042532,18.50466120484159,4.325445811487097,-0.11560029000000001,-0.95849364,0.293883525,-16.84704,-20.601,5.43256,71.0
1774822205.9487143,2.86102294921875e-05,2026-03-29T22:10:05.948,2026-03-29T18:10:05.948,-33039.63,-48496.994999999995,-84708.0,-49838.174999999996,-14093.82,-19430.19,5497.155,-63504.18,-0.6215992074594883,0.19667468731463794,-1.7001279290350717,-4.77427704784976,-2.8542270479873992,-1.7991088164786595,13.623505445258159,-0.12177649447379005,-0.11560029000000001,-0.95849364,0.293883525,-16.84704,-20.601,5.43256,71.0
1774822205.9512513,0.0025370121002197266,2026-03-29T22:10:05.951,2026-03-29T18:10:05.951,-33054.075,-48506.13,-84706.73999999999,-49842.045,-14110.695,-19452.195,5420.5199999999995,-63559.979999999996,-1.008492747015575,0.3985614373836366,-0.5795062751852454,-2.3393991774787803,-1.620300900796977,1.9160905594094448,2.9677207377720167,-4.28027667642384,-0.12231414,-0.96752682,0.298522185,-6.07348,-19.42598,5.1884,71.0
1774822205.9512687,1.7404556274414062e-05,2026-03-29T22:10:05.951,2026-03-29T18:10:05.951,-33008.49,-48451.725,-84652.2,-49785.21,-14063.355,-19414.215,5400.45,-63558.27,-0.953892893889463,0.37176486780959794,0.6292830139549986,0.8894187731380407,0.36840974692981515,4.647222169687444,-8.950789916923389,-6.427765768092151,-0.12231414,-0.96752682,0.298522185,-6.07348,-19.42598,5.1884,71.0
1774822205.954404,0.0031354427337646484,2026-03-29T22:10:05.954,2026-03-29T18:10:05.954,-32978.565,-48426.39,-84628.845,-49753.935,-14029.47,-19377.63,5451.525,-63493.515,-0.6327892594896308,-0.0622252796154376,1.3146726122668215,3.4506456149240683,2.1134445503845685,5.0375779136709635,-17.097325385070985,-5.79717067467325,-0.12231414,-0.96752682,0.298522185,-6.07348,-19.42598,5.1884,71.0
1774822205.9544244,2.0265579223632812e-05,2026-03-29T22:10:05.954,2026-03-29T18:10:05.954,-33004.755,-48449.159999999996,-84625.37999999999,-49745.025,-14018.85,-19359.18,5526.179999999999,-63452.79,-0.2756517496287276,-0.8040478021303322,1.1879591292555298,4.294762542237952,2.7527379750899303,2.8967650352703305,-18.040878184624003,-2.8225972967894286,-0.12231414,-0.96752682,0.298522185,-6.07348,-19.42598,5.1884,71.0
1774822205.95445,2.5510787963867188e-05,2026-03-29T22:10:05.954,2026-03-29T18:10:05.954,-33051.869999999995,-48505.68,-84688.245,-49802.985,-14072.58,-19415.52,5516.054999999999,-63489.104999999996,-0.010255647705726604,-1.462779230457892,0.4190672257773991,3.219338041200487,1.9909819495814471,-0.697181219417614,-11.39077674962936,1.133756082542094,-0.12231414,-0.96752682,0.298522185,-6.07348,-19.42598,5.1884,71.0
1774822205.9544556,5.7220458984375e-06,2026-03-29T22:10:05.954,2026-03-29T18:10:05.954,-33034.32,-48494.655,-84690.54,-49796.685,-14067.314999999999,-19427.67,5494.995,-63518.399999999994,0.1919787733265567,-1.5444486830301936,-0.4735601700830316,0.8888427014943302,0.24370471765357343,-3.9298006774833505,0.05307733382799623,4.410394164282945,-0.12231414,-0.96752682,0.298522185,-6.07348,-19.42598,5.1884,71.0
1774822205.9600499,0.0055942535400390625,2026-03-29T22:10:05.960,2026-03-29T18:10:05.960,-33004.125,-48459.689999999995,-84656.79,-49769.009999999995,-14042.88,-19398.105,5496.255,-63511.064999999995,0.43822542038159107,-0.7575573863302028,-0.9212328844800329,-1.5406025946977282,-1.578116236003836,-5.157832847810829,11.486918312969975,5.738532560468803,-0.12231414,-0.96752682,0.298522185,-6.07348,-19.42598,5.1884,71.0
1774822205.960082,3.218650817871094e-05,2026-03-29T22:10:05.960,2026-03-29T18:10:05.960,-33019.695,-48472.784999999996,-84677.08499999999,-49791.509999999995,-14064.525,-19413.09,5478.66,-63509.22,0.7696302732850421,0.7377467965532318,-0.6331397840253961,-2.9899728001266985,-2.5349448909584242,-3.741674383614595,18.11930022060214,4.712763446877768,-0.12231414,-0.96752682,0.298522185,-6.07348,-19.42598,5.1884,71.0
1774822205.963451,0.003368854522705078,2026-03-29T22:10:05.963,2026-03-29T18:10:05.963,-33042.555,-48502.935,-84709.08,-49817.61,-14083.605,-19422.54,5486.76,-63502.829999999994,1.0627934820944662,2.3044900942965465,0.22464587458369875,-2.941575830308504,-2.140758073126505,-0.3821874665103065,17.170857698459287,1.8784902766602833,-0.12231414,-0.96752682,0.298522185,-6.07348,-19.42598,5.1884,71.0
1774822205.9634678,1.6927719116210938e-05,2026-03-29T22:10:05.963,2026-03-29T18:10:05.963,-33047.729999999996,-48517.29,-84727.89,-49833.27,-14092.244999999999,-19418.805,5492.34,-63502.604999999996,1.0636716808096378,3.0877079270817522,1.1048211197928308,-1.6195176638336113,-0.6140616862060394,3.216479754473402,9.028006067741412,-1.5555756992109566,-0.12231414,-0.96752682,0.298522185,-6.07348,-19.42598,5.1884,71.0
1774822205.967872,0.0044040679931640625,2026-03-29T22:10:05.967,2026-03-29T18:10:05.967,-33046.695,-48516.479999999996,-84725.415,-49829.895,-14083.47,-19407.915,5479.695,-63512.325,0.55272525962203,2.4583215822023647,1.3811639008963668,0.19413907908003786,1.2330509609335532,5.199646622323321,-2.9216053847887693,-4.229361149583275,-0.127502115,-0.968808555,0.30053634,-2.09062,-16.83178,8.1641,71.0
1774822205.9678953,2.3365020751953125e-05,2026-03-29T22:10:05.967,2026-03-29T18:10:05.967,-33044.94,-48513.42,-84724.92,-49834.17,-14094.045,-19429.559999999998,5412.96,-63529.604999999996,-0.45508506826155193,0.4185775359024269,0.7231109884981953,1.5903373099967237,2.4147649732591496,4.508050031595721,-13.697452742687087,-5.153480086491468,-0.127502115,-0.968808555,0.30053634,-2.09062,-16.83178,8.1641,71.0
1774822205.9786146,0.01071929931640625,2026-03-29T22:10:05.978,2026-03-29T18:10:05.978,-33035.265,-48501.585,-84719.565,-49836.015,-14102.189999999999,-19446.075,5369.94,-63540.134999999995,-1.6136271002644125,-2.2686406149493106,-0.663362635532097,1.9833990854706849,2.2874241386992145,1.4381634864587016,-18.79338913324728,-4.051298460749341,-0.127502115,-0.968808555,0.30053634,-2.09062,-16.83178,8.1641,71.0
1774822205.9786348,2.0265579223632812e-05,2026-03-29T22:10:05.978,2026-03-29T18:10:05.978,-33024.869999999995,-48480.525,-84690.045,-49804.83,-14070.644999999999,-19416.78,5390.37,-63543.329999999994,-2.3464561840644436,-4.346146393707984,-2.078426832158275,1.359600115665781,0.8950546807873423,-2.4774044014402015,-16.051023283891464,-1.4178504986761924,-0.127502115,-0.968808555,0.30053634,-2.09062,-16.83178,8.1641,71.0
1774822205.9786763,4.1484832763671875e-05,2026-03-29T22:10:05.978,2026-03-29T18:10:05.978,-33018.705,-48466.53,-84659.22,-49766.31,-14031.269999999999,-19376.864999999998,5460.705,-63532.259999999995,-2.127772773902537,-4.642774628325022,-2.662225878255199,0.2171340753354306,-1.0390870656063944,-5.225450401035443,-6.567232818654838,1.6996750184350207,-0.127502115,-0.968808555,0.30053634,-2.09062,-16.83178,8.1641,71.0
1774822205.9786887,1.239776611328125e-05,2026-03-29T22:10:05.978,2026-03-29T18:10:05.978,-33012.72,-48461.759999999995,-84647.47499999999,-49757.805,-14026.859999999999,-19367.28,5553.945,-63506.564999999995,-0.8080465631387278,-2.7026512421661906,-1.8677233037235812,-0.74846915081702,-2.4789309547450853,-5.334891554395122,5.741469830925043,4.104464075949289,-0.127502115,-0.968808555,0.30053634,-2.09062,-16.83178,8.1641,71.0
1774822205.9786997,1.0967254638671875e-05,2026-03-29T22:10:05.978,2026-03-29T18:10:05.978,-33020.055,-48472.515,-84664.215,-49784.354999999996,-14062.32,-19404.405,5516.639999999999,-63506.07,1.204105891728186,0.8650374231197948,0.17291965443254806,-1.033949018901631,-2.6176265648138872,-2.6515695543174993,15.746161475202163,4.889745552479952,-0.127502115,-0.968808555,0.30053634,-2.09062,-16.83178,8.1641,71.0
1774822205.9787085,8.821487426757812e-06,2026-03-29T22:10:05.978,2026-03-29T18:10:05.978,-33021.09,-48470.22,-84663.54,-49788.72,-14073.84,-19421.46,5443.38,-63522.72,3.040043733561459,4.5393392348814,2.60465540713664,-0.5847958580962452,-1.315971416041908,1.538514279073626,19.23085837700798,3.766366331897261,-0.127502115,-0.968808555,0.30053634,-2.09062,-16.83178,8.1641,71.0
1774822205.985768,0.007059574127197266,2026-03-29T22:10:05.985,2026-03-29T18:10:05.985,-33010.29,-48462.705,-84659.48999999999,-49777.695,-14059.484999999999,-19408.454999999998,5429.5199999999995,-63527.174999999996,3.7455381956095044,6.5311634067971855,4.1961235715096175,0.21028193829341899,0.7965679940858352,5.1210474469588725,14.66273562927146,1.1683990394542367,-0.127502115,-0.968808555,0.30053634,-2.09062,-16.83178,8.1641,71.0
1774822205.9857953,2.7179718017578125e-05,2026-03-29T22:10:05.985,2026-03-29T18:10:05.985,-33024.69,-48490.11,-84695.67,-49801.725,-14066.1,-19401.84,5487.57,-63510.165,2.77011864271668,5.647368219826714,3.9424817569312864,0.7723419480663705,2.623419138313729,6.21135571166843,3.8683918727754127,-1.9021028124331156,-0.127502115,-0.968808555,0.30053634,-2.09062,-16.83178,8.1641,71.0
1774822205.987434,0.001638650894165039,2026-03-29T22:10:05.987,2026-03-29T18:10:05.987,-33035.49,-48502.259999999995,-84704.535,-49803.479999999996,-14059.71,-19392.704999999998,5518.98,-63494.145,0.3219113580529424,1.9601142251600139,1.636945543274221,0.6859074561858124,3.1619112522950577,4.13238122368749,-8.68281008923612,-4.244180658463073,-0.13110318,-0.9688695900000001,0.301451865,-1.89224,-17.8542,15.67202,71.0
1774822205.987447,1.3113021850585938e-05,2026-03-29T22:10:05.987,2026-03-29T18:10:05.987,-33025.5,-48490.38,-84693.23999999999,-49795.244999999995,-14057.55,-19396.89,5508.179999999999,-63487.395,-2.6225040966641946,-3.080149708745719,-1.8959338227448432,-0.045605925716745585,2.039498686418143,-0.19016631967333497,-17.715206482240454,-4.916014810336531,-0.13110318,-0.9688695900000001,0.301451865,-1.89224,-17.8542,15.67202,71.0
1774822205.9965756,0.009128570556640625,2026-03-29T22:10:05.996,2026-03-29T18:10:05.996,-33042.015,-48505.68,-84708.27,-49808.52,-14072.49,-19420.155,5461.245,-63512.415,-4.70528621410952,-7.205289187413007,-5.072658667686101,-0.9872185999784944,-0.25712966942492166,-4.638181857988586,-19.357216729125437,-3.614168695752899,-0.13110318,-0.9688695900000001,0.301451865,-1.89224,-17.8542,15.67202,71.0
1774822205.996598,2.2411346435546875e-05,2026-03-29T22:10:05.996,2026-03-29T18:10:05.996,-33055.515,-48521.88,-84728.295,-49830.21,-14096.789999999999,-19448.594999999998,5423.76,-63536.22,-4.819346783842624,-8.352852604624546,-6.25308360322503,-1.5143794861935311,-2.5932616915093694,-6.9367340840883225,-12.804640011183489,-0.8206156770049168,-0.13110318,-0.9688695900000001,0.301451865,-1.89224,-17.8542,15.67202,71.0
1774822205.996662,6.389617919921875e-05,2026-03-29T22:10:05.996,2026-03-29T18:10:05.996,-33046.38,-48511.53,-84717.09,-49819.59,-14086.08,-19437.21,5438.745,-63538.56,-2.687843546838627,-5.6891684713319455,-4.565094880264104,-1.1806061759013742,-3.7466278684451066,-5.80957380358668,-0.721122893275652,2.3588491659490205,-0.13110318,-0.9688695900000001,0.301451865,-1.89224,-17.8542,15.67202,71.0
1774822205.996668,6.198883056640625e-06,2026-03-29T22:10:05.996,2026-03-29T18:10:05.996,-33021.135,-48487.994999999995,-84689.595,-49795.244999999995,-14060.519999999999,-19408.77,5502.825,-63504.54,0.9097546877463316,-0.12701615621712192,-0.4448312045886885,-0.007526238602775294,-3.040387695016717,-1.6703895322273472,11.826488132338996,4.622146961624918,-0.13110318,-0.9688695900000001,0.301451865,-1.89224,-17.8542,15.67202,71.0
1774822205.9999995,0.003331422805786133,2026-03-29T22:10:05.999,2026-03-29T18:10:05.999,-32993.325,-48460.59,-84664.44,-49776.525,-14043.914999999999,-19388.25,5526.2699999999995,-63479.204999999994,4.4137892265207945,5.960623446447507,4.415952082122238,1.4720439051651872,-0.7227585475162928,3.518903948416213,19.483352613987314,5.005326546322954,-0.13110318,-0.9688695900000001,0.301451865,-1.89224,-17.8542,15.67202,71.0
1774822206.0000207,2.1219253540039062e-05,2026-03-29T22:10:06.000,2026-03-29T18:10:06.000,-33009.479999999996,-48466.89,-84668.175,-49777.604999999996,-14041.574999999999,-19384.875,5513.264999999999,-63499.5,6.170008240707153,9.757471753012997,7.757205382271326,2.4599468866981185,2.1145361594373164,7.181300679434972,18.8957564439017,3.3037077416613982,-0.13110318,-0.9688695900000001,0.301451865,-1.89224,-17.8542,15.67202,71.0
1774822206.0039127,0.0038919448852539062,2026-03-29T22:10:06.003,2026-03-29T18:10:06.003,-33024.51,-48474.494999999995,-84670.155,-49774.095,-14040.0,-19391.895,5495.264999999999,-63524.07,5.2186107488761415,9.314072309696337,7.798381418672217,2.313043502381418,4.056507182527968,7.404583537936608,10.19466892419367,0.18978016973786632,-0.13110318,-0.9688695900000001,0.301451865,-1.89224,-17.8542,15.67202,71.0
1774822206.0039313,1.8596649169921875e-05,2026-03-29T22:10:06.003,2026-03-29T18:10:06.003,-32997.015,-48449.97,-84650.805,-49756.409999999996,-14027.939999999999,-19388.07,5483.745,-63528.704999999994,1.8062848410204722,4.5382345445475645,4.162556775579418,0.920608634491967,4.0738969826591935,3.932155521047789,-2.9895144755700414,-3.04300852675509,-0.13110318,-0.9688695900000001,0.301451865,-1.89224,-17.8542,15.67202,71.0
1774822206.0077333,0.003802061080932617,2026-03-29T22:10:06.007,2026-03-29T18:10:06.007,-32995.395,-48454.875,-84660.345,-49767.299999999996,-14049.675,-19383.975,5477.8949999999995,-63524.34,-2.6481686549415198,-2.6342504022933086,-1.7944619722852868,-1.1708526635530483,2.064207231156609,-1.6461801861663576,-15.028228830984004,-5.019003679233439,-0.14184534000000001,-0.9677709600000001,0.299254605,1.7549,-20.158459999999998,21.4403,71.0
1774822206.007752,1.8596649169921875e-05,2026-03-29T22:10:06.007,2026-03-29T18:10:06.007,-33018.03,-48479.895,-84679.02,-49791.015,-14084.01,-19395.405,5445.99,-63517.545,-6.1523456356454025,-9.024276518824184,-7.471080862292308,-2.974496345777851,-1.0586885656336305,-6.626901658607999,-20.699624350430017,-4.87645575517549,-0.14184534000000001,-0.9677709600000001,0.299254605,1.7549,-20.158459999999998,21.4403,71.0
1774822206.011688,0.003936052322387695,2026-03-29T22:10:06.011,2026-03-29T18:10:06.011,-33024.284999999996,-48487.14,-84677.895,-49783.725,-14054.265,-19394.864999999998,5488.245,-63497.115,-7.046206630139475,-11.632217020237546,-10.15998403881521,-3.5352461776687667,-3.7881131298340582,-8.509976585376684,-17.469772346500804,-2.6567787649610417,-0.14184534000000001,-0.9677709600000001,0.299254605,1.7549,-20.158459999999998,21.4403,71.0
1774822206.011753,6.508827209472656e-05,2026-03-29T22:10:06.011,2026-03-29T18:10:06.011,-33038.1,-48508.83,-84702.555,-49796.415,-14043.24,-19409.355,5501.16,-63514.395,-4.796576396930717,-9.056151489388595,-8.341138490061127,-2.4292682690175518,-4.762445537227943,-6.256269739046594,-6.646119908731737,0.6959887831703696,-0.14184534000000001,-0.9677709600000001,0.299254605,1.7549,-20.158459999999998,21.4403,71.0
1774822206.0187695,0.007016420364379883,2026-03-29T22:10:06.018,2026-03-29T18:10:06.018,-33052.994999999995,-48523.77,-84725.415,-49820.715,-14073.525,-19417.905,5475.87,-63537.03,-0.2959677021609231,-2.2302286821669832,-2.5093746868505695,-0.032041502621672616,-3.4517689560113114,-0.8515206397030349,7.132209320819304,3.737626693735786,-0.14184534000000001,-0.9677709600000001,0.299254605,1.7549,-20.158459999999998,21.4403,71.0
1774822206.018794,2.4557113647460938e-05,2026-03-29T22:10:06.018,2026-03-29T18:10:06.018,-33040.08,-48499.56,-84715.37999999999,-49823.369999999995,-14078.519999999999,-19415.79,5460.885,-63542.07,4.49607733386616,5.901015231911309,4.903987954306885,2.6016110060031252,-0.44372066899926715,5.1261842073333925,17.880537514282583,5.156090653098579,-0.14184534000000001,-0.9677709600000001,0.299254605,1.7549,-20.158459999999998,21.4403,71.0
1774822206.0188153,2.1219253540039062e-05,2026-03-29T22:10:06.018,2026-03-29T18:10:06.018,-33032.43,-48488.445,-84712.00499999999,-49835.295,-14088.96,-19427.219999999998,5468.67,-63540.945,7.422701665729685,11.666993631028582,10.546975843686331,4.212318338622397,2.825729011749834,8.746066159663343,20.883140948604083,4.351443675802302,-0.14184534000000001,-0.9677709600000001,0.299254605,1.7549,-20.158459999999998,21.4403,71.0
1774822206.0188253,1.0013580322265625e-05,2026-03-29T22:10:06.018,2026-03-29T18:10:06.018,-33041.07,-48489.03,-84699.495,-49821.345,-14079.375,-19418.489999999998,5474.5199999999995,-63548.729999999996,7.116808657173286,12.34799723594509,11.676571436668285,3.9482634960743677,4.771903690703172,8.171833493990036,14.787205854992441,1.6996396520602566,-0.14184534000000001,-0.9677709600000001,0.299254605,1.7549,-20.158459999999998,21.4403,71.0
1774822206.0250378,0.006212472915649414,2026-03-29T22:10:06.025,2026-03-29T18:10:06.025,-33035.94,-48486.78,-84691.485,-49807.215,-14071.095,-19413.045,5463.224999999999,-63538.02,3.646293037021667,7.469839257028134,7.498648122487535,1.8135982526454675,4.445564714975456,3.59778072031979,2.234335917793433,-1.6211920863790648,-0.14184534000000001,-0.9677709600000001,0.299254605,1.7549,-20.158459999999998,21.4403,71.0
1774822206.0250573,1.9550323486328125e-05,2026-03-29T22:10:06.025,2026-03-29T18:10:06.025,-33047.549999999996,-48510.494999999995,-84726.405,-49840.56,-14104.125,-19446.84,5440.95,-63538.02,-1.4902738255882515,-0.9056290709549072,-0.339498272133995,-1.2821647434567267,2.0070872657388255,-2.8054121203950526,-11.275703171170425,-4.162405201113418,-0.14184534000000001,-0.9677709600000001,0.299254605,1.7549,-20.158459999999998,21.4403,71.0
1774822206.0346825,0.00962519645690918,2026-03-29T22:10:06.034,2026-03-29T18:10:06.034,-33048.674999999996,-48508.695,-84722.94,-49837.68,-14103.045,-19448.055,5405.355,-63558.99,-6.025503670701214,-9.061719574461192,-8.391721478161104,-3.920236687969304,-1.351471415648087,-7.928813014241515,-19.805315289069082,-4.850175371545812,-0.15612753000000001,-0.980649345,0.295836645,13.90186,-21.80654,25.484199999999998,71.0
1774822206.0347004,1.7881393432617188e-05,2026-03-29T22:10:06.034,2026-03-29T18:10:06.034,-33030.09,-48486.42,-84691.665,-49795.604999999996,-14055.57,-19413.809999999998,5396.8949999999995,-63558.045,-7.943538610277189,-13.29957849722309,-12.945779899515564,-4.838756172989919,-4.000210632877764,-9.248193945617404,-19.613688751112836,-3.4500760368101013,-0.15612753000000001,-0.980649345,0.295836645,13.90186,-21.80654,25.484199999999998,71.0
1774822206.0347211,2.0742416381835938e-05,2026-03-29T22:10:06.034,2026-03-29T18:10:06.034,-32976.72,-48425.58,-84621.735,-49723.47,-13986.045,-19356.704999999998,5461.0199999999995,-63520.695,-6.390952270594454,-11.639592156906009,-11.757948098224169,-3.5503253776402772,-4.682084534345009,-6.08070170113739,-10.824683072820799,-0.6442045993453851,-0.15612753000000001,-0.980649345,0.295836645,13.90186,-21.80654,25.484199999999998,71.0
1774822206.034727,5.9604644775390625e-06,2026-03-29T22:10:06.034,2026-03-29T18:10:06.034,-32951.43,-48399.075,-84595.95,-49704.615,-13979.564999999999,-19338.39,5521.275,-63496.395,-2.0598855940587155,-4.758275324970802,-5.1691281131178926,-0.6032645648149898,-3.1298552541052045,0.05553368378930643,2.6290635844951837,2.3031683800938967,-0.15612753000000001,-0.980649345,0.295836645,13.90186,-21.80654,25.484199999999998,71.0
1774822206.0347357,8.58306884765625e-06,2026-03-29T22:10:06.034,2026-03-29T18:10:06.034,-32995.619999999995,-48446.595,-84650.12999999999,-49771.755,-14075.865,-19410.795,5472.495,-63527.579999999994,3.1302185540278153,4.288654672367416,3.9579008425952056,2.6546487873724676,-0.17768180109773365,6.170658026415119,14.76873707560599,4.126000396620711,-0.15612753000000001,-0.980649345,0.295836645,13.90186,-21.80654,25.484199999999998,71.0
1774822206.0347402,4.5299530029296875e-06,2026-03-29T22:10:06.034,2026-03-29T18:10:06.034,-33011.1,-48469.095,-84669.84,-49788.045,-14084.46,-19413.495,5499.179999999999,-63521.82,6.901827431564528,11.44414410202013,11.496740910232381,4.707977552573722,2.6842736324536562,9.270859263636401,20.247448384768333,4.110902600602534,-0.15612753000000001,-0.980649345,0.295836645,13.90186,-21.80654,25.484199999999998,71.0
1774822206.04887,0.014129877090454102,2026-03-29T22:10:06.048,2026-03-29T18:10:06.048,-33047.46,-48498.345,-84689.055,-49805.28,-14062.365,-19394.73,5493.87,-63555.255,7.637781855090484,13.49881906817165,13.953358366240638,4.599274657553722,4.076952052583796,7.84018946846203,16.734148173644527,2.3773654230566548,-0.15612753000000001,-0.980649345,0.295836645,13.90186,-21.80654,25.484199999999998,71.0
1774822206.0488908,2.0742416381835938e-05,2026-03-29T22:10:06.048,2026-03-29T18:10:06.048,-33045.435,-48485.97,-84671.955,-49782.825,-14024.295,-19381.905,5461.74,-63589.095,5.085176851173132,9.555648105810008,10.116074595298779,2.3930203935623555,3.421757891718901,2.5968387900539818,5.926467362158898,-0.22670614172810757,-0.15612753000000001,-0.980649345,0.295836645,13.90186,-21.80654,25.484199999999998,71.0
1774822206.0489352,4.4345855712890625e-05,2026-03-29T22:10:06.048,2026-03-29T18:10:06.048,-33032.655,-48475.799999999996,-84665.385,-49765.005,-14027.445,-19411.38,5465.205,-63597.869999999995,0.4335506159097433,1.430268863088392,1.6668293717855627,-0.8544053061660936,1.1977004105072349,-3.85940467340559,-7.258321933506639,-2.5431737227605087,-0.15612753000000001,-0.980649345,0.295836645,13.90186,-21.80654,25.484199999999998,71.0
1774822206.0489466,1.1444091796875e-05,2026-03-29T22:10:06.048,2026-03-29T18:10:06.048,-33036.479999999996,-48497.13,-84698.09999999999,-49791.645,-14055.345,-19441.755,5451.3,-63573.615,-4.251430168944584,-7.1966228202774,-7.561317667293184,-3.6084042161031897,-1.3572159731066828,-8.338877024799794,-16.932927720703482,-3.6269722798398356,-0.15612753000000001,-0.980649345,0.295836645,13.90186,-21.80654,25.484199999999998,71.0
1774822206.0510292,0.0020825862884521484,2026-03-29T22:10:06.051,2026-03-29T18:10:06.051,-33073.515,-48540.689999999995,-84743.73,-49849.65,-14117.355,-19478.43,5404.23,-63575.415,-6.9644966245476265,-12.47521440715966,-13.352361064095222,-4.601657660820748,-2.9290432255528835,-8.650481179508315,-18.894868592920528,-3.133841613625163,-0.161803785,-1.000302615,0.30334395000000003,36.48666,-19.059739999999998,29.34498,71.0
1774822206.0510435,1.430511474609375e-05,2026-03-29T22:10:06.051,2026-03-29T18:10:06.051,-33074.145,-48540.78,-84742.47,-49860.09,-14127.435,-19454.399999999998,5382.36,-63577.619999999995,-6.634771799320144,-12.137603742471983,-13.074053384373075,-3.441815658682445,-2.8224174473116057,-4.691216656943347,-12.476710103029246,-1.4126206795344942,-0.161803785,-1.000302615,0.30334395000000003,36.48666,-19.059739999999998,29.34498,71.0
1774822206.053278,0.0022344589233398438,2026-03-29T22:10:06.053,2026-03-29T18:10:06.053,-33045.03,-48509.64,-84722.895,-49839.93,-14115.689999999999,-19429.515,5435.37,-63564.165,-3.5493620240952284,-6.492796169288323,-6.908177100509105,-0.7797678930096835,-1.293484619183007,1.5117980216447016,-0.7649569813254962,0.7107152853900076,-0.161803785,-1.000302615,0.30334395000000003,36.48666,-19.059739999999998,29.34498,71.0
1774822206.053291,1.3113021850585938e-05,2026-03-29T22:10:06.053,2026-03-29T18:10:06.053,-33014.385,-48473.865,-84691.845,-49810.77,-14092.38,-19382.085,5486.8949999999995,-63546.119999999995,0.8413392122122166,1.781198025663499,2.246538686717408,2.041400110885315,0.6499104807871425,6.829544062829049,10.88070161176171,2.3311279256373396,-0.161803785,-1.000302615,0.30334395000000003,36.48666,-19.059739999999998,29.34498,71.0
1774822206.058499,0.005208015441894531,2026-03-29T22:10:06.058,2026-03-29T18:10:06.058,-32988.104999999996,-48441.555,-84645.81,-49764.33,-14028.705,-19346.625,5504.3099999999995,-63534.869999999995,4.617926045769546,8.925054502938732,10.154678831197193,3.6731554211672415,1.8571787633613301,8.611705706868218,17.297734167897048,2.8513152136650803,-0.161803785,-1.000302615,0.30334395000000003,36.48666,-19.059739999999998,29.34498,71.0
1774822206.0585153,1.621246337890625e-05,2026-03-29T22:10:06.058,2026-03-29T18:10:06.058,-32983.65,-48439.979999999996,-84637.485,-49756.77,-13993.199999999999,-19356.03,5511.87,-63530.774999999994,6.2488244210965,11.840271662090965,13.244570115367928,3.4304441118279922,1.7033005521936777,6.020614408653489,15.833163062887948,2.1916669070402612,-0.161803785,-1.000302615,0.30334395000000003,36.48666,-19.059739999999998,29.34498,71.0
1774822206.0596323,0.0011169910430908203,2026-03-29T22:10:06.059,2026-03-29T18:10:06.059,-32997.24,-48454.244999999995,-84654.0,-49779.99,-14024.519999999999,-19380.105,5499.135,-63546.075,5.21968265419722,9.463964196181532,10.267181975405979,1.60173800044884,0.4349443234815902,0.44244356522026607,7.450626512708708,0.7565641456094696,-0.161803785,-1.000302615,0.30334395000000003,36.48666,-19.059739999999998,29.34498,71.0
1774822206.0596452,1.2874603271484375e-05,2026-03-29T22:10:06.059,2026-03-29T18:10:06.059,-33019.515,-48474.72,-84670.02,-49793.354999999996,-14048.055,-19385.19,5494.679999999999,-63568.034999999996,2.172890077548207,3.151715416131374,2.822218543587863,-0.7512207656412134,-1.004240020092119,-5.23310401772036,-3.834999182883114,-0.7946282194578951,-0.161803785,-1.000302615,0.30334395000000003,36.48666,-19.059739999999998,29.34498,71.0
1774822206.0638912,0.0042459964752197266,2026-03-29T22:10:06.063,2026-03-29T18:10:06.063,-33037.515,-48490.29,-84683.7,-49801.005,-14052.644999999999,-19382.715,5505.075,-63568.215,-1.4665092976581182,-4.068406095954681,-5.482879335536546,-2.386929440463298,-1.569273452860635,-8.097489397652412,-12.88252973800031,-1.846864188581115,-0.161803785,-1.000302615,0.30334395000000003,36.48666,-19.059739999999998,29.34498,71.0
1774822206.0639155,2.4318695068359375e-05,2026-03-29T22:10:06.063,2026-03-29T18:10:06.063,-33037.83,-48495.645,-84687.795,-49799.97,-14051.295,-19382.175,5519.115,-63551.88,-4.1697417597845625,-8.970628323923206,-10.807009322229298,-2.547809508638592,-0.7829698902944711,-6.714028819872787,-15.783535633714239,-2.0645709223191013,-0.161803785,-1.000302615,0.30334395000000003,36.48666,-19.059739999999998,29.34498,71.0
1774822206.0679412,0.004025697708129883,2026-03-29T22:10:06.067,2026-03-29T18:10:06.067,-33034.545,-48495.33,-84691.125,-49804.65,-14061.555,-19398.69,5498.91,-63559.799999999996,-4.960046427697934,-9.608445328386605,-10.900590295956837,-1.337398689928798,0.9228788591348629,-1.8507807646357104,-11.564369425432714,-1.478666862151997,-0.15893514,-1.00927476,0.31359783,52.570699999999995,-14.00868,30.687859999999997,71.0
1774822206.0679617,2.0503997802734375e-05,2026-03-29T22:10:06.067,2026-03-29T18:10:06.067,-33024.78,-48480.884999999995,-84675.555,-49791.24,-14054.894999999999,-19403.325,5472.179999999999,-63568.665,-3.7580493832835566,-6.101621683703748,-6.093716725764071,0.3874065584263601,2.417999554677981,3.922343106439587,-2.483445839930594,-0.4179200731584204,-0.15893514,-1.00927476,0.31359783,52.570699999999995,-14.00868,30.687859999999997,71.0
1774822206.0718343,0.0038726329803466797,2026-03-29T22:10:06.071,2026-03-29T18:10:06.071,-33033.104999999996,-48487.229999999996,-84683.295,-49798.395,-14065.019999999999,-19418.265,5479.785,-63562.59,-1.2986869339193479,-0.40678917390237684,1.006175064270044,1.5411020078779558,2.5426668848063176,7.568123348039715,7.148807412666476,0.6595186705355721,-0.15893514,-1.00927476,0.31359783,52.570699999999995,-14.00868,30.687859999999997,71.0
1774822206.0718565,2.2172927856445312e-05,2026-03-29T22:10:06.071,2026-03-29T18:10:06.071,-33053.94,-48506.805,-84696.56999999999,-49807.53,-14070.42,-19422.09,5496.705,-63564.119999999995,1.2911536818207405,4.749066063914916,6.908348102723022,1.4525076004149091,0.8620565450681325,7.1630846872680785,13.019365614382727,1.352601699024867,-0.15893514,-1.00927476,0.31359783,52.570699999999995,-14.00868,30.687859999999997,71.0
1774822206.076118,0.004261493682861328,2026-03-29T22:10:06.076,2026-03-29T18:10:06.076,-33059.159999999996,-48516.615,-84706.425,-49816.395,-14077.215,-19427.625,5466.96,-63584.235,3.020875903427197,7.200925575110338,8.987949840888675,0.2591453471679437,-1.9464799098733208,2.9080259564528665,12.75372419354328,1.4525116055493767,-0.15893514,-1.00927476,0.31359783,52.570699999999995,-14.00868,30.687859999999997,71.0
1774822206.0761375,1.9550323486328125e-05,2026-03-29T22:10:06.076,2026-03-29T18:10:06.076,-33039.854999999996,-48499.2,-84698.81999999999,-49815.765,-14083.154999999999,-19432.934999999998,5437.08,-63590.939999999995,3.4182280142850585,6.282529011278505,6.7013948843855795,-1.1776109454959722,-4.3455038695138954,-2.9607405161482987,6.870033374748426,0.9912270377247364,-0.15893514,-1.00927476,0.31359783,52.570699999999995,-14.00868,30.687859999999997,71.0
1774822206.0800383,0.003900766372680664,2026-03-29T22:10:06.080,2026-03-29T18:10:06.080,-33016.455,-48477.735,-84688.37999999999,-49811.895,-14086.17,-19443.285,5421.195,-63574.11,2.6162920544469253,2.948512318455972,1.6829440615615612,-1.7976599504865831,-4.747920989742044,-7.324200072293234,-1.6330319172650818,0.2035876292676043,-0.15893514,-1.00927476,0.31359783,52.570699999999995,-14.00868,30.687859999999997,71.0
1774822206.0800557,1.7404556274414062e-05,2026-03-29T22:10:06.080,2026-03-29T18:10:06.080,-32997.284999999996,-48459.104999999996,-84669.03,-49791.15,-14064.795,-19431.225,5443.92,-63550.619999999995,1.1584501274598384,-0.9008612163102503,-3.2671930890084826,-1.0123096299373708,-2.468729562321835,-7.810323437458726,-8.786291050381914,-0.5733195647810065,-0.15893514,-1.00927476,0.31359783,52.570699999999995,-14.00868,30.687859999999997,71.0
1774822206.0840008,0.003945112228393555,2026-03-29T22:10:06.084,2026-03-29T18:10:06.084,-33034.59,-48495.78,-84694.545,-49804.83,-14062.949999999999,-19408.68,5487.48,-63566.28,-0.3315993445161226,-3.4757385441513855,-5.7203869877301345,0.8737741192273235,1.7238455845427931,-4.058427290848799,-11.502301030488098,-1.0284141265735192,-0.15893514,-1.00927476,0.31359783,52.570699999999995,-14.00868,30.687859999999997,71.0
1774822206.084028,2.7179718017578125e-05,2026-03-29T22:10:06.084,2026-03-29T18:10:06.084,-33071.4,-48526.29,-84718.08,-49832.009999999995,-14089.095,-19423.71,5485.679999999999,-63594.72,-1.426198620657509,-3.957218736858849,-4.848922841817299,2.7588852208253787,5.8253785138615894,2.046808605401792,-8.904264005935511,-0.9936884725964027,-0.15893514,-1.00927476,0.31359783,52.570699999999995,-14.00868,30.687859999999997,71.0
1774822206.088188,0.0041599273681640625,2026-03-29T22:10:06.088,2026-03-29T18:10:06.088,-33092.82,-48557.655,-84754.665,-49858.965,-14109.705,-19443.105,5454.675,-63614.744999999995,-1.990079286451696,-2.7367398766776074,-1.7102036869469444,3.343044238297492,7.54825589542392,7.312856846630324,-2.561875792554651,-0.5119776855189978,-0.166686585,-1.005063345,0.311705745,59.48348,-14.4207,37.70746,71.0
1774822206.088206,1.811981201171875e-05,2026-03-29T22:10:06.088,2026-03-29T18:10:06.088,-33083.28,-48548.384999999995,-84750.48,-49849.515,-14089.5,-19425.6,5467.7699999999995,-63613.259999999995,-2.091857064268791,-0.9746473327907872,1.5187884649159749,1.917599272918583,5.55936226147532,8.884308548965596,4.396803869367507,0.1741537732339381,-0.166686585,-1.005063345,0.311705745,59.48348,-14.4207,37.70746,71.0
1774822206.091708,0.00350189208984375,2026-03-29T22:10:06.091,2026-03-29T18:10:06.091,-33048.0,-48496.14,-84688.515,-49806.134999999995,-14051.789999999999,-19386.045,5485.05,-63596.34,-1.8339028807260043,0.20607220757789044,2.884628499456438,-1.104258140688509,0.3450160998751855,5.755301765746125,8.812300343337816,0.7199758863426798,-0.166686585,-1.005063345,0.311705745,59.48348,-14.4207,37.70746,71.0
1774822206.091744,3.600120544433594e-05,2026-03-29T22:10:06.091,2026-03-29T18:10:06.091,-33001.604999999996,-48436.2,-84612.42,-49763.97,-14038.74,-19363.32,5507.6849999999995,-63553.95,-1.2381206690638364,0.39400885731867497,1.798554356596958,-4.257275935982939,-5.8151040812285215,-0.6397441335896157,8.918181254285454,0.8351160867806104,-0.166686585,-1.005063345,0.311705745,59.48348,-14.4207,37.70746,71.0
1774822206.09619,0.0044460296630859375,2026-03-29T22:10:06.096,2026-03-29T18:10:06.096,-33007.185,-48442.994999999995,-84611.295,-49769.235,-14045.49,-19369.89,5505.344999999999,-63550.395,-0.27050717155407816,0.04144895049727603,-0.6752280659909242,-5.7226673538159405,-9.846730786064974,-7.087562033402046,5.024870911061239,0.4359459562579906,-0.166686585,-1.005063345,0.311705745,59.48348,-14.4207,37.70746,71.0
1774822206.0962155,2.5510787963867188e-05,2026-03-29T22:10:06.096,2026-03-29T18:10:06.096,-33021.45,-48468.869999999995,-84650.58,-49789.575,-14051.205,-19375.965,5490.36,-63568.079999999994,1.0192180624639835,0.03135460793638346,-2.541077789858959,-4.327050799321932,-9.414389146033422,-10.202030144610989,-0.7878962317228977,-0.28406675963908473,-0.166686585,-1.005063345,0.311705745,59.48348,-14.4207,37.70746,71.0
1774822206.1033292,0.00711369514465332,2026-03-29T22:10:06.103,2026-03-29T18:10:06.103,-33029.369999999995,-48497.985,-84711.33,-49801.59,-14053.949999999999,-19401.075,5457.6449999999995,-63581.13,2.3578752514331924,0.9535888463614367,-2.1752629000562886,-0.30900943441181766,-4.223605195230112,-8.173607392967698,-5.750050740768662,-0.9202253730392805,-0.166686585,-1.005063345,0.311705745,59.48348,-14.4207,37.70746,71.0
1774822206.1033666,3.743171691894531e-05,2026-03-29T22:10:06.103,2026-03-29T18:10:06.103,-32997.69,-48464.595,-84681.675,-49769.505,-14034.779999999999,-19405.665,5424.12,-63571.994999999995,3.241184550958209,2.566002275785377,0.5650254604337915,4.6050550248572035,3.6181639143506437,-1.767381812375258,-7.700807696546142,-1.0512399978667342,-0.166686585,-1.005063345,0.311705745,59.48348,-14.4207,37.70746,71.0
1774822206.1034021,3.552436828613281e-05,2026-03-29T22:10:06.103,2026-03-29T18:10:06.103,-32983.65,-48439.305,-84642.165,-49744.215,-14010.84,-19372.68,5442.075,-63561.465,3.117979000487979,3.8131105883855496,4.11172941934144,7.9383241419403525,10.454164907139075,5.963728157239237,-6.006262240702989,-0.48090979305883935,-0.166686585,-1.005063345,0.311705745,59.48348,-14.4207,37.70746,71.0
1774822206.1034224,2.0265579223632812e-05,2026-03-29T22:10:06.103,2026-03-29T18:10:06.103,-33009.84,-48466.755,-84660.66,-49761.0,-14022.045,-19364.489999999998,5488.155,-63564.524999999994,1.7019704974989047,3.441327364469523,6.0276953704936265,7.702152739454528,12.802183830117,11.143160814785624,-1.717542724627866,0.6006834522159051,-0.166686585,-1.005063345,0.311705745,59.48348,-14.4207,37.70746,71.0
1774822206.1084993,0.005076885223388672,2026-03-29T22:10:06.108,2026-03-29T18:10:06.108,-33040.845,-48500.28,-84691.845,-49805.28,-14069.699999999999,-19402.29,5486.76,-63578.159999999996,-0.7565148512077436,0.8733644496724462,4.4859363063939375,3.519326826897786,9.128108629830306,11.004570892714947,3.034097567433291,1.646472355033607,-0.178039095,-0.9838842,0.310729185,62.062419999999996,-17.0149,42.1939,71.0
1774822206.108518,1.8596649169921875e-05,2026-03-29T22:10:06.108,2026-03-29T18:10:06.108,-33045.345,-48499.92,-84701.11499999999,-49821.39,-14086.71,-19417.905,5438.61,-63614.655,-3.4222455024194764,-3.193687405728521,-0.4568832870155112,-2.982865458634979,0.7642404825562739,5.332475498059879,6.069767559947546,1.9962850998799408,-0.178039095,-0.9838842,0.310729185,62.062419999999996,-17.0149,42.1939,71.0
1774822206.112034,0.0035161972045898438,2026-03-29T22:10:06.112,2026-03-29T18:10:06.112,-33000.795,-48441.869999999995,-84643.515,-49765.365,-14029.064999999999,-19359.63,5483.34,-63616.86,-5.14014701847199,-6.892920411379401,-6.581552113618891,-8.79270121580763,-8.55289502177813,-3.328699309558942,6.131099951846739,1.2402608773749875,-0.178039095,-0.9838842,0.310729185,62.062419999999996,-17.0149,42.1939,71.0
1774822206.1120481,1.4066696166992188e-05,2026-03-29T22:10:06.112,2026-03-29T18:10:06.112,-33030.945,-48481.2,-84686.08499999999,-49799.384999999995,-14053.814999999999,-19382.489999999998,5509.485,-63615.645,-4.940152656781711,-8.045476119486187,-10.496188536001561,-10.919234893218908,-14.37795476152398,-10.836313752068639,3.367747538690014,-0.48274068473257514,-0.178039095,-0.9838842,0.310729185,62.062419999999996,-17.0149,42.1939,71.0
1774822206.1157887,0.003740549087524414,2026-03-29T22:10:06.115,2026-03-29T18:10:06.115,-33048.72,-48506.354999999996,-84714.25499999999,-49828.59,-14084.189999999999,-19419.39,5484.96,-63594.945,-2.5587714620094832,-5.377103859272932,-9.456906671469579,-7.922252145997628,-13.70402860020449,-13.441176568151278,-0.8241687630180942,-2.4374896051498354,-0.178039095,-0.9838842,0.310729185,62.062419999999996,-17.0149,42.1939,71.0
1774822206.1158109,2.2172927856445312e-05,2026-03-29T22:10:06.115,2026-03-29T18:10:06.115,-33037.74,-48501.99,-84710.06999999999,-49832.729999999996,-14095.664999999999,-19437.614999999998,5447.88,-63564.39,1.2953975057136031,0.5648855026649793,-3.060811887400976,-0.7866899063317233,-6.511925758629883,-9.64539614602244,-4.488268077413564,-3.5755882306908764,-0.178039095,-0.9838842,0.310729185,62.062419999999996,-17.0149,42.1939,71.0
1774822206.1208143,0.005003452301025391,2026-03-29T22:10:06.120,2026-03-29T18:10:06.120,-33027.03,-48490.74,-84692.79,-49811.04,-14070.42,-19411.829999999998,5430.96,-63577.034999999996,5.114284428490284,7.366937722249581,6.169293973317306,7.3609621744514655,4.077484452184839,-1.0095724256030432,-5.9864622455510075,-3.0571511922017636,-0.178039095,-0.9838842,0.310729185,62.062419999999996,-17.0149,42.1939,71.0
1774822206.1208348,2.0503997802734375e-05,2026-03-29T22:10:06.120,2026-03-29T18:10:06.120,-33027.659999999996,-48475.215,-84672.18,-49784.805,-14042.609999999999,-19386.899999999998,5410.71,-63643.454999999994,7.183118375495904,11.729874760872837,13.76333023544288,12.639024697790008,13.182843216615948,8.508712176327773,-4.689702585264583,-0.7654547561252584,-0.178039095,-0.9838842,0.310729185,62.062419999999996,-17.0149,42.1939,71.0
1774822206.1242719,0.003437042236328125,2026-03-29T22:10:06.124,2026-03-29T18:10:06.124,-33011.055,-48441.78,-84634.245,-49749.615,-14011.875,-19361.969999999998,5402.5199999999995,-63668.835,6.3585738905689,11.076979131187198,15.476507375731334,12.277675792890385,16.452154646893444,14.393452170840376,-1.2109155064292951,2.47415807348341,-0.178039095,-0.9838842,0.310729185,62.062419999999996,-17.0149,42.1939,71.0
1774822206.1243021,3.0279159545898438e-05,2026-03-29T22:10:06.124,2026-03-29T18:10:06.124,-32992.29,-48429.854999999996,-84624.75,-49742.415,-14010.75,-19366.245,5417.28,-63601.38,2.67475720840643,5.001494750602095,9.595762728306623,6.060122449496834,12.170204530648734,13.719072245094763,2.8863335188895776,5.149192029891783,-0.178039095,-0.9838842,0.310729185,62.062419999999996,-17.0149,42.1939,71.0
1774822206.1362352,0.011933088302612305,2026-03-29T22:10:06.136,2026-03-29T18:10:06.136,-32999.31,-48464.1,-84661.245,-49774.455,-14042.34,-19406.114999999998,5471.6849999999995,-63535.454999999994,-2.5367031303997356,-4.236396071479552,-1.8518123840109362,-3.408890948654126,2.1497798887489186,6.582668739428323,5.762132559180358,5.737690669390736,-0.18444777,-0.974789985,0.311949885,69.99762,-19.3039,44.39134,71.0
1774822206.1362636,2.8371810913085938e-05,2026-03-29T22:10:06.136,2026-03-29T18:10:06.136,-33034.994999999995,-48512.564999999995,-84716.145,-49835.07,-14112.404999999999,-19482.344999999998,5465.25,-63555.93,-7.122026061195821,-12.531344580125003,-13.740933152640983,-11.80771879529065,-9.054618093410703,-3.8738981233200707,6.079173911983999,3.517396279263263,-0.18444777,-0.974789985,0.311949885,69.99762,-19.3039,44.39134,71.0
1774822206.136292,2.8371810913085938e-05,2026-03-29T22:10:06.136,2026-03-29T18:10:06.136,-33038.415,-48490.92,-84690.675,-49822.02,-14134.365,-19467.045,5413.455,-63594.09,-9.008823884443734,-15.785721740923584,-20.17290086909831,-15.101206927606901,-16.260602135312297,-12.878973204976717,3.5800121976700017,-0.905910849224908,-0.18444777,-0.974789985,0.311949885,69.99762,-19.3039,44.39134,71.0
1774822206.1363037,1.1682510375976562e-05,2026-03-29T22:10:06.136,2026-03-29T18:10:06.136,-33011.28,-48459.015,-84659.76,-49788.9,-14129.775,-19473.93,5413.365,-63591.84,-7.151587790414716,-11.944069668450584,-17.414919986788888,-11.499867531684867,-16.09790373496708,-16.22974567465475,-0.7643271986994352,-5.680157059919453,-0.18444777,-0.974789985,0.311949885,69.99762,-19.3039,44.39134,71.0
1774822206.1363175,1.3828277587890625e-05,2026-03-29T22:10:06.136,2026-03-29T18:10:06.136,-33039.315,-48493.034999999996,-84691.8,-49799.025,-14127.39,-19501.695,5447.79,-63609.659999999996,-2.082758568260548,-2.193251777246233,-5.982070159666685,-2.413636298353815,-8.605484473385049,-12.25063419587469,-5.105575866352563,-8.455112718479386,-0.18444777,-0.974789985,0.311949885,69.99762,-19.3039,44.39134,71.0
1774822206.136328,1.049041748046875e-05,2026-03-29T22:10:06.136,2026-03-29T18:10:06.136,-33055.02,-48478.5,-84651.03,-49749.615,-14045.85,-19418.85,5410.08,-63649.755,4.212997968913162,9.343577433208846,9.272648659019652,8.102829503340956,2.781396513042879,-2.599387535737374,-7.456542615154951,-7.5092485858197335,-0.18444777,-0.974789985,0.311949885,69.99762,-19.3039,44.39134,71.0
1774822206.139816,0.0034880638122558594,2026-03-29T22:10:06.139,2026-03-29T18:10:06.139,-32995.17,-48418.695,-84582.135,-49720.32,-13996.08,-19343.204999999998,5504.3099999999995,-63571.77,9.087251358634266,17.379959077071774,21.247710149821728,15.194195613634934,12.845813262237757,8.454321960412416,-6.547573070942081,-2.7260670623545216,-0.18444777,-0.974789985,0.311949885,69.99762,-19.3039,44.39134,71.0
1774822206.1398377,2.1696090698242188e-05,2026-03-29T22:10:06.139,2026-03-29T18:10:06.139,-32981.85,-48418.38,-84587.805,-49740.299999999996,-13968.225,-19314.899999999998,5527.755,-63548.28,10.359025998334952,17.929561589143304,23.94873938823647,15.483295769846249,17.028557341941678,15.947077127858257,-2.4584124292506933,4.106575819549774,-0.18444777,-0.974789985,0.311949885,69.99762,-19.3039,44.39134,71.0
1774822206.1439564,0.004118680953979492,2026-03-29T22:10:06.143,2026-03-29T18:10:06.143,-32991.075,-48440.25,-84623.58,-49775.265,-14007.779999999999,-19334.295,5515.469999999999,-63545.174999999996,7.2965326149444225,10.292954185693533,15.501906694103159,8.697994741673831,13.52868680173102,16.460186365000123,3.268759911350044,9.92274703883718,-0.18444777,-0.974789985,0.311949885,69.99762,-19.3039,44.39134,71.0
1774822206.143978,2.1696090698242188e-05,2026-03-29T22:10:06.143,2026-03-29T18:10:06.143,-33028.29,-48498.119999999995,-84701.205,-49826.115,-14077.98,-19407.69,5501.5199999999995,-63553.905,1.0038127989556687,-2.428213930654602,-0.697428921595165,-2.1467673721363703,4.080654823198878,9.664108240923586,8.15291220920477,11.735925247134448,-0.18444777,-0.974789985,0.311949885,69.99762,-19.3039,44.39134,71.0
1774822206.1484096,0.004431486129760742,2026-03-29T22:10:06.148,2026-03-29T18:10:06.148,-33047.505,-48514.455,-84718.845,-49820.985,-14070.465,-19400.76,5497.0199999999995,-63582.57,-5.982227945490302,-14.611967699854715,-17.363819762347454,-12.11982189352408,-6.928074663873762,-1.5213239476492844,9.792974496579927,8.13477439774809,-0.19518993,-0.951230475,0.31347576,70.13495999999999,-27.94106,44.29978,71.0
1774822206.1484401,3.0517578125e-05,2026-03-29T22:10:06.148,2026-03-29T18:10:06.148,-33047.505,-48518.28,-84722.715,-49823.909999999996,-14074.83,-19401.3,5482.889999999999,-63589.365,-10.732930973252639,-20.652478957462783,-26.66188746545622,-16.66014071660885,-14.54084754873818,-12.212352747797619,6.993978714804179,0.18094347921643703,-0.19518993,-0.951230475,0.31347576,70.13495999999999,-27.94106,44.29978,71.0
1774822206.154905,0.006464958190917969,2026-03-29T22:10:06.154,2026-03-29T18:10:06.154,-33054.255,-48523.86,-84725.595,-49820.67,-14064.705,-19389.105,5502.0599999999995,-63594.899999999994,-11.169691969417272,-17.583475351994046,-23.946916116978823,-13.69848850522786,-15.5062376630024,-17.71048739817937,0.4955843523378322,-8.812751821724499,-0.19518993,-0.951230475,0.31347576,70.13495999999999,-27.94106,44.29978,71.0
1774822206.154922,1.6927719116210938e-05,2026-03-29T22:10:06.154,2026-03-29T18:10:06.154,-33047.145,-48510.494999999995,-84713.12999999999,-49810.994999999995,-14056.74,-19387.89,5499.495,-63593.1,-6.972322654193444,-6.5400391114268555,-10.09371499153634,-4.610705245603862,-9.679324221001972,-15.561653851033737,-7.103865612709717,-14.642594958161578,-0.19518993,-0.951230475,0.31347576,70.13495999999999,-27.94106,44.29978,71.0
1774822206.1576047,0.0026826858520507812,2026-03-29T22:10:06.157,2026-03-29T18:10:06.157,-33041.61,-48501.945,-84702.06,-49804.29,-14055.93,-19395.855,5480.46,-63589.994999999995,0.24307075186906513,7.665603785131385,8.759951877635215,6.44194173816533,0.059928659400257996,-6.626784134216807,-12.321284253625027,-14.16457766488903,-0.19518993,-0.951230475,0.31347576,70.13495999999999,-27.94106,44.29978,71.0
1774822206.1576223,1.7642974853515625e-05,2026-03-29T22:10:06.157,2026-03-29T18:10:06.157,-33036.255,-48491.82,-84685.59,-49798.755,-14051.34,-19393.245,5470.92,-63587.97,7.562776037548605,18.69309052094957,23.99555984004927,14.460737375991968,9.258935169132956,5.289887622303043,-12.335120597751503,-6.93549960111043,-0.19518993,-0.951230475,0.31347576,70.13495999999999,-27.94106,44.29978,71.0
1774822206.1600697,0.002447366714477539,2026-03-29T22:10:06.160,2026-03-29T18:10:06.160,-33036.93,-48486.96,-84674.025,-49797.72,-14063.4,-19405.665,5459.355,-63592.56,11.968358648356366,21.56363372964619,28.531803217729628,15.915059066471066,13.970993375462617,15.079076594808349,-6.442258101173196,4.293897602180449,-0.19518993,-0.951230475,0.31347576,70.13495999999999,-27.94106,44.29978,71.0
1774822206.160091,2.1219253540039062e-05,2026-03-29T22:10:06.160,2026-03-29T18:10:06.160,-33037.244999999995,-48492.494999999995,-84681.045,-49801.68,-14098.32,-19440.719999999998,5440.679999999999,-63591.884999999995,11.586317918541571,14.945248121734474,20.169258817758568,10.32149171516018,12.47005996071839,18.51674212403631,3.3023830930630864,14.588654412537315,-0.19518993,-0.951230475,0.31347576,70.13495999999999,-27.94106,44.29978,71.0
1774822206.164393,0.004302024841308594,2026-03-29T22:10:06.164,2026-03-29T18:10:06.164,-33053.715,-48506.085,-84693.78,-49808.52,-14119.019999999999,-19465.155,5390.054999999999,-63614.115,6.4743813711185165,1.7663857876578732,2.6566348795228394,0.378284888408968,5.846697003431478,14.069178779709885,12.703344872610996,18.992729652509027,-0.19518993,-0.951230475,0.31347576,70.13495999999999,-27.94106,44.29978,71.0
1774822206.164425,3.1948089599609375e-05,2026-03-29T22:10:06.164,2026-03-29T18:10:06.164,-33065.055,-48517.695,-84708.54,-49822.695,-14094.72,-19440.45,5383.3949999999995,-63625.229999999996,-1.3803846090188465,-12.124029910786959,-16.040382580326337,-9.364946915617526,-2.697872865538977,3.552309582048223,17.18068938723188,14.900145739231643,-0.19518993,-0.951230475,0.31347576,70.13495999999999,-27.94106,44.29978,71.0
1774822206.1694846,0.005059719085693359,2026-03-29T22:10:06.169,2026-03-29T18:10:06.169,-33038.369999999995,-48485.295,-84674.83499999999,-49785.57,-14035.455,-19374.885,5414.58,-63615.24,-8.849676804264297,-20.617243119362957,-27.446128089344256,-14.634935162075704,-9.429427273093475,-8.624912819178913,13.957917942415795,3.5045697348358873,-0.203185515,-0.919614345,0.32055582,49.25928,-39.721779999999995,43.88776,71.0
1774822206.1695108,2.6226043701171875e-05,2026-03-29T22:10:06.169,2026-03-29T18:10:06.169,-33005.565,-48451.229999999996,-84639.19499999999,-49755.33,-14049.045,-19349.145,5460.84,-63599.399999999994,-12.916311725799876,-20.085559703246055,-26.494846173337272,-13.344330187641269,-11.73954072714881,-17.309671759368715,3.654544729629408,-10.449850321808187,-0.203185515,-0.919614345,0.32055582,49.25928,-39.721779999999995,43.88776,71.0
1774822206.1717663,0.0022554397583007812,2026-03-29T22:10:06.171,2026-03-29T18:10:06.171,-32971.815,-48416.985,-84610.75499999999,-49748.22,-14037.84,-19340.235,5460.03,-63580.814999999995,-11.885715914297855,-10.94749775574017,-13.814196965173045,-6.413018634760573,-9.136208114073188,-18.772633612045993,-9.590206422423229,-20.634253861330606,-0.203185515,-0.919614345,0.32055582,49.25928,-39.721779999999995,43.88776,71.0
1774822206.1717825,1.621246337890625e-05,2026-03-29T22:10:06.171,2026-03-29T18:10:06.171,-32982.525,-48424.409999999996,-84622.905,-49765.095,-14023.664999999999,-19329.84,5473.035,-63591.345,-6.074136863626914,2.6264626878517663,4.674115641180277,2.8192135317557923,-3.2023975269321965,-12.290889260715817,-19.71669843303829,-22.008377739823526,-0.203185515,-0.919614345,0.32055582,49.25928,-39.721779999999995,43.88776,71.0
1774822206.1773021,0.0055196285247802734,2026-03-29T22:10:06.177,2026-03-29T18:10:06.177,-32997.015,-48445.875,-84640.31999999999,-49757.265,-14035.275,-19394.46,5529.51,-63578.475,2.2963037845408087,14.675814878762724,20.59212384075609,10.235801638003649,3.3299196697367606,-0.4856416840960319,-21.48816941633602,-13.295256860072163,-0.203185515,-0.919614345,0.32055582,49.25928,-39.721779999999995,43.88776,71.0
1774822206.177326,2.384185791015625e-05,2026-03-29T22:10:06.177,2026-03-29T18:10:06.177,-33014.159999999996,-48462.165,-84654.94499999999,-49773.015,-14061.33,-19413.63,5523.929999999999,-63557.189999999995,9.952671100665434,20.131009391215784,26.991031720063315,12.82021912050876,7.862103228903463,11.73523913896827,-13.150779452741896,2.151307457254276,-0.203185515,-0.919614345,0.32055582,49.25928,-39.721779999999995,43.88776,71.0
1774822206.181531,0.004204988479614258,2026-03-29T22:10:06.181,2026-03-29T18:10:06.181,-33046.92,-48491.325,-84668.985,-49780.08,-14026.904999999999,-19380.51,5478.4349999999995,-63558.765,13.843566417821505,16.977428927406326,21.441541326877992,9.891853978512653,8.954830583652189,19.205781992053804,2.3238598122763725,17.609323773554973,-0.203185515,-0.919614345,0.32055582,49.25928,-39.721779999999995,43.88776,71.0
1774822206.181542,1.0967254638671875e-05,2026-03-29T22:10:06.181,2026-03-29T18:10:06.181,-33040.53,-48491.909999999996,-84670.065,-49776.255,-14020.425,-19384.785,5471.55,-63561.915,12.338109950506768,6.962669848077509,6.926521347286324,3.1898265454128576,6.69785142611682,18.671646657014783,18.191798394929258,25.92205053710301,-0.203185515,-0.919614345,0.32055582,49.25928,-39.721779999999995,43.88776,71.0
1774822206.1839006,0.002358675003051758,2026-03-29T22:10:06.183,2026-03-29T18:10:06.183,-33045.84,-48508.47,-84689.775,-49792.77,-14059.845,-19421.28,5462.955,-63572.31,5.890111766635537,-5.380046301754859,-9.77606518643911,-4.128975421042768,2.388920211920145,10.198942007219902,26.849689384667695,22.818786878537434,-0.203185515,-0.919614345,0.32055582,49.25928,-39.721779999999995,43.88776,71.0
1774822206.183925,2.4318695068359375e-05,2026-03-29T22:10:06.183,2026-03-29T18:10:06.183,-33030.72,-48494.25,-84681.94499999999,-49800.689999999995,-14077.529999999999,-19447.29,5450.849999999999,-63572.174999999996,-3.0927531612707804,-14.84681694853269,-21.341304742585933,-9.01304973243186,-2.195760265933763,-2.7828790198284525,23.46512534416876,9.07812011114704,-0.203185515,-0.919614345,0.32055582,49.25928,-39.721779999999995,43.88776,71.0
1774822206.1880324,0.004107475280761719,2026-03-29T22:10:06.188,2026-03-29T18:10:06.188,-33018.93,-48479.49,-84667.36499999999,-49789.17,-14072.039999999999,-19458.719999999998,5454.179999999999,-63575.369999999995,-11.137525093097926,-17.801408082273166,-23.183917622753892,-9.810534325139717,-5.53608710894346,-14.854845654260481,8.595757819779765,-9.551833750309983,-0.208190385,-0.894101715,0.33019935,26.0946,-54.75288,48.526799999999994,71.0
1774822206.188074,4.172325134277344e-05,2026-03-29T22:10:06.188,2026-03-29T18:10:06.188,-33038.955,-48480.84,-84652.425,-49760.415,-14041.394999999999,-19424.024999999998,5449.679999999999,-63618.795,-15.029485431540124,-13.55185897065555,-15.27270571681646,-6.774500519289004,-6.803324015352729,-20.858339158265856,-11.596298859653801,-24.760931631270385,-0.208190385,-0.894101715,0.33019935,26.0946,-54.75288,48.526799999999994,71.0
1774822206.1936052,0.0055310726165771484,2026-03-29T22:10:06.193,2026-03-29T18:10:06.193,-33040.799999999996,-48483.945,-84667.59,-49794.119999999995,-14080.904999999999,-19435.725,5454.855,-63615.645,-13.07692524077822,-4.3546110975722305,-1.7555989494127429,-1.6570880491756026,-5.916890853601349,-18.09525937389328,-27.860510021945643,-29.40336079804282,-0.208190385,-0.894101715,0.33019935,26.0946,-54.75288,48.526799999999994,71.0
1774822206.1936326,2.7418136596679688e-05,2026-03-29T22:10:06.193,2026-03-29T18:10:06.193,-33033.96,-48485.25,-84689.595,-49842.9,-14140.305,-19494.27,5423.625,-63579.735,-5.830689344850254,5.8060984692756215,11.244843354287745,3.2839751301806763,-3.3481917742934018,-7.543151494703985,-32.10066818636129,-20.862981695701247,-0.208190385,-0.894101715,0.33019935,26.0946,-54.75288,48.526799999999994,71.0
1774822206.1959937,0.0023610591888427734,2026-03-29T22:10:06.195,2026-03-29T18:10:06.195,-33031.034999999996,-48482.369999999995,-84682.98,-49845.465,-14137.605,-19480.41,5420.61,-63553.32,4.0399333418406895,12.99734345137594,18.48495483702997,6.311427406713072,0.12822148106170048,6.463925628581942,-21.396926592235413,-2.4681970386704335,-0.208190385,-0.894101715,0.33019935,26.0946,-54.75288,48.526799999999994,71.0
1774822206.1960127,1.9073486328125e-05,2026-03-29T22:10:06.196,2026-03-29T18:10:06.196,-33013.395,-48466.619999999995,-84663.765,-49794.615,-14058.314999999999,-19366.695,5479.695,-63546.659999999996,12.705446758034045,14.855021997613852,17.73565565572188,6.786807967852727,3.605844785053734,18.002222727048665,0.189795200452291,17.789525931432813,-0.208190385,-0.894101715,0.33019935,26.0946,-54.75288,48.526799999999994,71.0
1774822206.2062669,0.010254144668579102,2026-03-29T22:10:06.206,2026-03-29T18:10:06.206,-32980.409999999996,-48420.405,-84596.715,-49727.564999999995,-14013.494999999999,-19327.5,5535.135,-63531.045,16.638151597067342,11.255769357581094,10.318268856828958,5.126595023628266,6.147038671615081,22.061317114781637,23.085399563408775,30.749013751992003,-0.208190385,-0.894101715,0.33019935,26.0946,-54.75288,48.526799999999994,71.0
1774822206.2062948,2.7894973754882812e-05,2026-03-29T22:10:06.206,2026-03-29T18:10:06.206,-33010.424999999996,-48449.97,-84626.73,-49744.215,-14056.65,-19394.55,5504.3099999999995,-63553.95,14.032985767901184,4.019879145343912,0.014581718158362657,2.309567108403527,6.914067285514259,16.72782229087957,36.457709612618686,30.247880464479376,-0.208190385,-0.894101715,0.33019935,26.0946,-54.75288,48.526799999999994,71.0
1774822206.2063243,2.956390380859375e-05,2026-03-29T22:10:06.206,2026-03-29T18:10:06.206,-33042.015,-48481.965,-84654.09,-49759.47,-14062.23,-19423.71,5468.76,-63581.625,5.62338975297362,-4.044950496505242,-8.907324651820645,-0.6935581901430663,5.408498321104623,4.0938984206936855,33.36568207001037,16.057515073977527,-0.208190385,-0.894101715,0.33019935,26.0946,-54.75288,48.526799999999994,71.0
1774822206.206336,1.1682510375976562e-05,2026-03-29T22:10:06.206,2026-03-29T18:10:06.206,-33060.104999999996,-48519.945,-84698.45999999999,-49785.884999999995,-14062.05,-19411.605,5466.735,-63577.53,-5.471419505663204,-10.24410314734389,-13.504164737872134,-3.2401986311698763,1.7739660599803062,-10.54494877480117,14.343136907672617,-5.816474193853834,-0.208190385,-0.894101715,0.33019935,26.0946,-54.75288,48.526799999999994,71.0
1774822206.20635,1.4066696166992188e-05,2026-03-29T22:10:06.206,2026-03-29T18:10:06.206,-33077.565,-48537.54,-84719.11499999999,-49832.595,-14120.505,-19454.85,5433.705,-63592.02,-14.871291646541774,-12.801914757423937,-13.01364645547352,-4.986940981907327,-3.014441959561209,-20.906594639167178,-12.42806732059267,-25.691078688366126,-0.212951115,-0.87829365,0.348815025,17.74738,-68.95994,46.420919999999995,71.0
1774822206.2063608,1.0728836059570312e-05,2026-03-29T22:10:06.206,2026-03-29T18:10:06.206,-33080.13,-48505.095,-84665.43,-49802.085,-14137.875,-19562.985,5344.335,-63631.395,-18.64421338217545,-11.189960957497197,-8.577879562267459,-5.669332769260207,-7.282006632077777,-22.427867757227872,-34.63696771787945,-34.524630856827116,-0.212951115,-0.87829365,0.348815025,17.74738,-68.95994,46.420919999999995,71.0
1774822206.2135983,0.007237434387207031,2026-03-29T22:10:06.213,2026-03-29T18:10:06.213,-33087.645,-48467.025,-84587.48999999999,-49741.47,-14177.43,-19636.965,5223.195,-63687.689999999995,-14.944035776417397,-6.052491605924699,-2.257111806518411,-4.967100282713641,-9.19285965917639,-14.288897979198984,-41.54364127985061,-28.056383306038857,-0.212951115,-0.87829365,0.348815025,17.74738,-68.95994,46.420919999999995,71.0
1774822206.2136292,3.0994415283203125e-05,2026-03-29T22:10:06.213,2026-03-29T18:10:06.213,-33024.555,-48366.9,-84459.015,-49681.979999999996,-14102.865,-19415.655,5218.875,-63678.465,-4.898818517801253,1.0789842439603874,3.9784167358780107,-2.640628569150661,-7.550608765146094,0.14958123837472787,-29.203533584791614,-8.859417303555752,-0.212951115,-0.87829365,0.348815025,17.74738,-68.95994,46.420919999999995,71.0
1774822206.2166371,0.0030078887939453125,2026-03-29T22:10:06.216,2026-03-29T18:10:06.216,-32917.365,-48298.545,-84413.34,-49687.02,-14044.859999999999,-19220.355,5403.599999999999,-63539.46,7.6722839833766345,8.14020515632872,8.762353942095542,1.1123660649386817,-2.506675202481619,14.727999827340394,-2.6596606434978325,14.6822702605513,-0.212951115,-0.87829365,0.348815025,17.74738,-68.95994,46.420919999999995,71.0
1774822206.2166677,3.0517578125e-05,2026-03-29T22:10:06.216,2026-03-29T18:10:06.216,-32915.205,-48349.619999999995,-84498.61499999999,-49672.89,-13984.83,-19253.655,5574.24,-63475.92,17.681152805934552,12.94364013295643,11.281059953545759,5.353233769629651,4.228467931837066,23.124083150696986,26.09462532974718,32.06622995579765,-0.212951115,-0.87829365,0.348815025,17.74738,-68.95994,46.420919999999995,71.0
