unix_time_s,dt_s,UTC,LOCAL,EMG1_Raw,EMG2_Raw,EMG3_Raw,EMG4_Raw,EMG5_Raw,EMG6_Raw,EMG7_Raw,EMG8_Raw,EMG1_Filtered,EMG2_Filtered,EMG3_Filtered,EMG4_Filtered,EMG5_Filtered,EMG6_Filtered,EMG7_Filtered,EMG8_Filtered,Accel1_Raw,Accel2_Raw,Accel3_Raw,Gyro1_Raw,Gyro2_Raw,Gyro3_Raw,Battery
1774822468.7497156,,2026-03-29T22:14:28.749,2026-03-29T18:14:28.749,-34407.045,-47097.674999999996,-84692.52,-49332.465,-13741.965,-18364.274999999998,6303.96,-62639.909999999996,-0.48870634508278593,-0.030060443601941888,-0.36770022428173493,-0.35242610401052493,-0.6126924749588617,-1.0261943836753922,-3.835435065221766,-2.2732852005503186,-0.125426925,-0.98229729,0.21008247,5.66146,11.12454,-3.57084,71.0
1774822468.7497802,6.461143493652344e-05,2026-03-29T22:14:28.749,2026-03-29T18:14:28.749,-34442.1,-47140.965,-84743.955,-49378.229999999996,-13777.38,-18397.395,6283.349999999999,-62659.305,1.1159506434869706,2.0101018203023813,3.1919255348137416,3.473028673855162,3.629542504235847,1.249949848733373,-6.628633602946414,-2.4194115422120146,-0.125426925,-0.98229729,0.21008247,5.66146,11.12454,-3.57084,71.0
1774822468.749829,4.887580871582031e-05,2026-03-29T22:14:28.749,2026-03-29T18:14:28.749,-34432.065,-47135.34,-84738.15,-49366.395,-13757.625,-18377.19,6290.955,-62658.72,2.366503812348422,3.203734727777797,5.2129394981703125,5.764245747732427,6.308638090199372,2.9920647988399196,-6.5491705762053405,-1.6363097433422977,-0.125426925,-0.98229729,0.21008247,5.66146,11.12454,-3.57084,71.0
1774822468.7498393,1.0251998901367188e-05,2026-03-29T22:14:28.749,2026-03-29T18:14:28.749,-34402.005,-47106.36,-84708.315,-49335.39,-13724.01,-18345.87,6308.28,-62636.67,2.5183613337568858,2.7696770819891086,4.495516795633928,5.1629639269512015,5.911673624120829,3.1445897104499267,-3.4298133489047977,-0.30948349431038064,-0.125426925,-0.98229729,0.21008247,5.66146,11.12454,-3.57084,71.0
1774822468.7498477,8.344650268554688e-06,2026-03-29T22:14:28.749,2026-03-29T18:14:28.749,-34398.36,-47086.064999999995,-84673.845,-49320.54,-13722.48,-18344.43,6295.32,-62645.22,1.3235087338356748,0.7314456728733151,1.2439903789422802,1.741764209237468,2.417392538055075,1.4781132177942415,1.486342803219337,1.023401706065464,-0.125426925,-0.98229729,0.21008247,5.66146,11.12454,-3.57084,71.0
1774822468.749854,6.4373016357421875e-06,2026-03-29T22:14:28.749,2026-03-29T18:14:28.749,-34406.595,-47093.625,-84672.22499999999,-49326.03,-13736.564999999999,-18357.704999999998,6262.5599999999995,-62662.814999999995,-0.7576780685312255,-1.9972168973482733,-2.954622405024246,-2.9223545539282707,-2.58994702285189,-1.2246440270829688,6.022761673622879,1.8891016867822648,-0.125426925,-0.98229729,0.21008247,5.66146,11.12454,-3.57084,71.0
1774822468.7498646,1.049041748046875e-05,2026-03-29T22:14:28.749,2026-03-29T18:14:28.749,-34419.6,-47116.89,-84709.44,-49352.354999999996,-13753.035,-18376.11,6240.51,-62660.564999999995,-2.712032477398129,-4.006806455121264,-5.889972793237168,-6.463961231122454,-6.632568709347618,-3.5321465817169635,8.028552860638055,2.0322974160214073,-0.125426925,-0.98229729,0.21008247,5.66146,11.12454,-3.57084,71.0
1774822468.7498696,5.0067901611328125e-06,2026-03-29T22:14:28.749,2026-03-29T18:14:28.749,-34401.645,-47094.93,-84684.645,-49326.03,-13728.6,-18357.255,6275.295,-62631.72,-3.4588719167019626,-4.104580620563001,-5.868942991384521,-6.915252036093692,-7.560492504754018,-4.110038298050416,6.400799312332964,1.4653423062315052,-0.125426925,-0.98229729,0.21008247,5.66146,11.12454,-3.57084,71.0
1774822468.749876,6.4373016357421875e-06,2026-03-29T22:14:28.749,2026-03-29T18:14:28.749,-34420.815,-47114.82,-84713.265,-49351.994999999995,-13752.99,-18381.87,6264.405,-62648.595,-2.4365146141923084,-1.991228618295525,-2.6575766339649545,-3.772744243640392,-4.681973090654568,-2.4654748375442574,1.6834743899107925,0.4238717928271292,-0.13207974,-0.98522697,0.205993125,7.7063,10.529399999999999,-3.11304,71.0
1774822468.7498803,4.291534423828125e-06,2026-03-29T22:14:28.749,2026-03-29T18:14:28.749,-34427.115,-47115.494999999995,-84720.465,-49357.395,-13757.13,-18384.57,6225.389999999999,-62676.945,0.023683307287451043,1.471098458615014,2.2872866080317817,1.6239957034502939,0.7865613410567989,0.715862521423335,-4.079692795608969,-0.7320471942575085,-0.13207974,-0.98522697,0.205993125,7.7063,10.529399999999999,-3.11304,71.0
1774822468.7727425,0.02286219596862793,2026-03-29T22:14:28.772,2026-03-29T18:14:28.772,-34387.515,-47081.7,-84680.235,-49326.615,-13733.01,-18364.14,6214.679999999999,-62642.07,2.7689204129411467,4.589822519492607,6.466793247516016,6.649821053844948,6.224328363957738,3.8494230319466074,-8.224161260981706,-1.629365199088758,-0.13207974,-0.98522697,0.205993125,7.7063,10.529399999999999,-3.11304,71.0
1774822468.7727733,3.075599670410156e-05,2026-03-29T22:14:28.772,2026-03-29T18:14:28.772,-34400.205,-47083.229999999996,-84660.795,-49312.89,-13724.955,-18358.245,6238.98,-62647.155,4.355284955910475,5.65775550246955,7.586784833867941,8.663713737892726,8.861260330485859,5.237779191251442,-8.702422003080182,-1.979915242374226,-0.13207974,-0.98522697,0.205993125,7.7063,10.529399999999999,-3.11304,71.0
1774822468.7728128,3.9577484130859375e-05,2026-03-29T22:14:28.772,2026-03-29T18:14:28.772,-34417.034999999996,-47100.284999999996,-84682.575,-49335.21,-13744.215,-18376.065,6268.815,-62656.47,3.7979776276261834,3.8656092583408403,4.786707914551719,6.379632232515813,7.183655782139686,3.9741979530614944,-5.103764924629346,-1.6543953053518123,-0.13207974,-0.98522697,0.205993125,7.7063,10.529399999999999,-3.11304,71.0
1774822468.7728264,1.3589859008789062e-05,2026-03-29T22:14:28.772,2026-03-29T18:14:28.772,-34399.575,-47093.805,-84690.495,-49339.799999999996,-13747.59,-18382.905,6255.36,-62647.965,1.1553481841896758,-0.16851616574851552,-0.7967120230997429,0.6330138484327613,1.778862919031503,0.4885047722993211,1.0557315157425515,-0.726212695611549,-0.13207974,-0.98522697,0.205993125,7.7063,10.529399999999999,-3.11304,71.0
1774822468.7728405,1.4066696166992188e-05,2026-03-29T22:14:28.772,2026-03-29T18:14:28.772,-34376.265,-47070.54,-84669.12,-49326.525,-13739.085,-18376.11,6221.07,-62645.895,-2.3894120642211263,-4.574829296853541,-6.473049887373915,-5.896050008079373,-4.8437564403338325,-3.5786299559540873,6.9609676205815845,0.5274293045936911,-0.13207974,-0.98522697,0.205993125,7.7063,10.529399999999999,-3.11304,71.0
1774822468.772851,1.049041748046875e-05,2026-03-29T22:14:28.772,2026-03-29T18:14:28.772,-34384.049999999996,-47071.259999999995,-84669.345,-49324.68,-13735.305,-18369.899999999998,6220.035,-62659.034999999996,-5.0456429407488255,-7.089441624287035,-9.286956200355005,-9.930258935628977,-9.419137475276544,-6.150048683211583,9.791303857171416,1.6839641607757094,-0.13207974,-0.98522697,0.205993125,7.7063,10.529399999999999,-3.11304,71.0
1774822468.7728636,1.2636184692382812e-05,2026-03-29T22:14:28.772,2026-03-29T18:14:28.772,-34413.345,-47094.345,-84681.135,-49326.255,-13729.814999999999,-18357.21,6287.13,-62640.585,-5.31230413499901,-6.205178369077196,-7.538098711016401,-9.23399317262953,-9.53769763851217,-5.7687105935079215,8.083440429779898,2.298824033128278,-0.13207974,-0.98522697,0.205993125,7.7063,10.529399999999999,-3.11304,71.0
1774822468.7728736,1.0013580322265625e-05,2026-03-29T22:14:28.772,2026-03-29T18:14:28.772,-34444.665,-47130.479999999996,-84708.09,-49345.604999999996,-13738.455,-18355.094999999998,6342.21,-62619.345,-2.8083206049704112,-2.035149519320664,-1.7572674390373422,-3.8260190732165333,-4.905264880500982,-2.4004327038254942,2.4982722751139823,2.069981865148718,-0.13207974,-0.98522697,0.205993125,7.7063,10.529399999999999,-3.11304,71.0
1774822468.7728865,1.2874603271484375e-05,2026-03-29T22:14:28.772,2026-03-29T18:14:28.772,-34404.165,-47096.64,-84673.665,-49321.53,-13721.355,-18338.895,6365.835,-62582.085,1.4164208167459986,3.5920745089029937,5.404569566483664,3.8827245730104964,2.4040808798229363,2.4514374892933786,-4.414947817153543,0.9862236847130489,-0.1477047,-0.982114185,0.19982859,10.880379999999999,6.74492,-2.48738,71.0
1774822468.7728963,9.775161743164062e-06,2026-03-29T22:14:28.772,2026-03-29T18:14:28.772,-34395.795,-47079.854999999996,-84649.545,-49298.085,-13700.205,-18327.465,6343.469999999999,-62595.405,5.304031550217153,7.924317059229702,10.38934673396472,10.162225835715343,8.877305556375749,6.419758944660175,-9.387268452764797,-0.6138692478088352,-0.1477047,-0.982114185,0.19982859,10.880379999999999,6.74492,-2.48738,71.0
1774822468.7729084,1.2159347534179688e-05,2026-03-29T22:14:28.772,2026-03-29T18:14:28.772,-34394.49,-47067.57,-84633.20999999999,-49288.725,-13695.57,-18331.02,6311.16,-62615.384999999995,6.785539682322038,8.627659743192144,10.493717146482371,11.77137245505776,11.25774016173972,7.432773126969445,-9.994944427289552,-2.124606122831659,-0.1477047,-0.982114185,0.19982859,10.880379999999999,6.74492,-2.48738,71.0
1774822468.772918,9.5367431640625e-06,2026-03-29T22:14:28.772,2026-03-29T18:14:28.772,-34410.42,-47090.43,-84666.95999999999,-49318.335,-13721.715,-18360.63,6286.1849999999995,-62635.14,4.871081073662026,5.025538026767188,5.309071696707413,7.62273028226128,8.185015234317865,4.789025608458555,-5.863232482360038,-2.8931338712508476,-0.1477047,-0.982114185,0.19982859,10.880379999999999,6.74492,-2.48738,71.0
1774822468.8074448,0.034526824951171875,2026-03-29T22:14:28.807,2026-03-29T18:14:28.807,-34431.479999999996,-47135.07,-84736.665,-49359.555,-13749.525,-18388.26,6278.175,-62644.814999999995,0.26276596593164786,-1.4164419341558543,-2.9182928423164527,-0.5486648632716067,0.9524341620607958,-0.4074292473472317,1.0990936764330466,-2.501873028665964,-0.1477047,-0.982114185,0.19982859,10.880379999999999,6.74492,-2.48738,71.0
1774822468.8074687,2.384185791015625e-05,2026-03-29T22:14:28.807,2026-03-29T18:14:28.807,-34421.67,-47128.905,-84732.345,-49362.119999999995,-13753.619999999999,-18384.66,6264.63,-62634.735,-4.8729766510387345,-7.669808022058161,-10.256462486768939,-8.903681545011205,-7.033030871347154,-5.706463254566977,7.581620379290622,-0.9908388599235494,-0.1477047,-0.982114185,0.19982859,10.880379999999999,6.74492,-2.48738,71.0
1774822468.8074896,2.09808349609375e-05,2026-03-29T22:14:28.807,2026-03-29T18:14:28.807,-34415.28,-47110.365,-84705.48,-49337.189999999995,-13729.59,-18350.774999999998,6292.26,-62639.774999999994,-7.919999988816747,-10.568202145618555,-12.971300559560877,-13.312101042937151,-11.865727016902774,-8.476030933268884,10.46478978005415,1.0969941683005795,-0.1477047,-0.982114185,0.19982859,10.880379999999999,6.74492,-2.48738,71.0
1774822468.8074977,8.106231689453125e-06,2026-03-29T22:14:28.807,2026-03-29T18:14:28.807,-34424.19,-47123.1,-84719.655,-49356.9,-13746.96,-18361.395,6290.82,-62626.5,-7.14069235054393,-8.406994202872115,-9.419657609411983,-11.399930273503754,-11.061208190418334,-7.21391291646295,8.349411029215599,2.897429312854343,-0.1477047,-0.982114185,0.19982859,10.880379999999999,6.74492,-2.48738,71.0
1774822468.8075085,1.0728836059570312e-05,2026-03-29T22:14:28.807,2026-03-29T18:14:28.807,-34445.924999999996,-47137.049999999996,-84723.12,-49363.335,-13756.365,-18377.64,6228.9,-62637.704999999994,-2.6446693171345834,-1.9100961143792143,-0.9943920822924062,-3.81296867611073,-4.832461282143226,-2.351098661975927,2.260542107381224,3.5807170602286345,-0.1477047,-0.982114185,0.19982859,10.880379999999999,6.74492,-2.48738,71.0
1774822468.8075166,8.106231689453125e-06,2026-03-29T22:14:28.807,2026-03-29T18:14:28.807,-34440.345,-47128.905,-84709.89,-49360.049999999996,-13766.039999999999,-18394.739999999998,6179.67,-62650.395,3.5342148250027923,5.972189001463428,8.406052049052382,5.97115546970459,3.9335476268180156,3.878852881539448,-4.840042127524253,2.7355454063184768,-0.1477047,-0.982114185,0.19982859,10.880379999999999,6.74492,-2.48738,71.0
1774822468.8075268,1.0251998901367188e-05,2026-03-29T22:14:28.807,2026-03-29T18:14:28.807,-34423.244999999995,-47111.13,-84700.53,-49357.305,-13768.74,-18402.704999999998,6178.7699999999995,-62655.03,8.354114015032664,11.406092669108201,14.191392933963286,13.248493107272624,11.024698301375983,8.475693565654517,-9.506434757062971,0.6026910951647707,-0.151549905,-0.979428645,0.20214792,11.93332,6.6381,-1.3428799999999999,71.0
1774822468.8075354,8.58306884765625e-06,2026-03-29T22:14:28.807,2026-03-29T18:14:28.807,-34397.505,-47065.5,-84646.53,-49294.08,-13698.359999999999,-18337.905,6237.179999999999,-62656.2,9.264262958374758,11.54574667783384,13.328392717853772,14.365718620857402,12.943065787721904,9.128749987058308,-9.50951388368804,-1.969684292480332,-0.151549905,-0.979428645,0.20214792,11.93332,6.6381,-1.3428799999999999,71.0
1774822468.8075461,1.0728836059570312e-05,2026-03-29T22:14:28.807,2026-03-29T18:14:28.807,-34373.744999999995,-47054.295,-84635.91,-49268.25,-13662.494999999999,-18300.015,6313.545,-62612.82,5.5468449431928315,6.015977796949985,5.919150449616225,8.559053332812443,8.640187985454356,5.381522534575844,-4.93423169212737,-3.8580140986395737,-0.151549905,-0.979428645,0.20214792,11.93332,6.6381,-1.3428799999999999,71.0
1774822468.8075545,8.344650268554688e-06,2026-03-29T22:14:28.807,2026-03-29T18:14:28.807,-34385.265,-47075.939999999995,-84653.28,-49281.615,-13674.644999999999,-18307.44,6324.165,-62581.95,-1.2018631255735583,-2.763969762254755,-4.708740025410621,-1.573602168357181,0.08233562026418063,-1.0840959863801556,1.8818958291547911,-4.155170522732523,-0.151549905,-0.979428645,0.20214792,11.93332,6.6381,-1.3428799999999999,71.0
1774822468.8075612,6.67572021484375e-06,2026-03-29T22:14:28.807,2026-03-29T18:14:28.807,-34411.905,-47116.08,-84705.39,-49351.185,-13749.57,-18372.555,6321.105,-62584.695,-7.749834462666627,-10.639796280049493,-13.507034567367175,-11.244506431520596,-8.6567602048652,-7.210820289606614,7.539878892518046,-2.606152729819337,-0.151549905,-0.979428645,0.20214792,11.93332,6.6381,-1.3428799999999999,71.0
1774822468.8075662,5.0067901611328125e-06,2026-03-29T22:14:28.807,2026-03-29T18:14:28.807,-34450.74,-47149.784999999996,-84737.205,-49390.155,-13790.654999999999,-18413.864999999998,6343.29,-62625.24,-10.783436462260582,-13.7010278273728,-16.12176428182397,-15.759457865915229,-13.353486274576715,-10.026478238141296,9.295026873291327,0.22167729778621637,-0.151549905,-0.979428645,0.20214792,11.93332,6.6381,-1.3428799999999999,71.0
1774822468.8075724,6.198883056640625e-06,2026-03-29T22:14:28.807,2026-03-29T18:14:28.807,-34439.985,-47126.159999999996,-84714.345,-49371.525,-13774.005,-18398.969999999998,6344.325,-62630.865,-8.586982276395831,-10.23056920576107,-11.055084815121361,-12.814070164697357,-11.693146002843855,-8.097584213894018,6.422872575645253,3.135799170616957,-0.151549905,-0.979428645,0.20214792,11.93332,6.6381,-1.3428799999999999,71.0
1774822468.8075774,5.0067901611328125e-06,2026-03-29T22:14:28.807,2026-03-29T18:14:28.807,-34384.185,-47070.09,-84664.395,-49319.369999999995,-13723.154999999999,-18361.035,6347.295,-62588.115,-1.9943864386095127,-1.6486750731322175,-0.4965948102770541,-3.671083246180938,-4.418002125834054,-2.25961822434793,0.5402349061945239,4.820385873918608,-0.151549905,-0.979428645,0.20214792,11.93332,6.6381,-1.3428799999999999,71.0
1774822468.8075836,6.198883056640625e-06,2026-03-29T22:14:28.807,2026-03-29T18:14:28.807,-34375.59,-47064.33,-84650.12999999999,-49300.74,-13700.34,-18334.755,6328.17,-62584.064999999995,5.90853058498285,8.0611881715736,10.628454099457079,7.384323234111932,5.008858082238783,4.748677077561205,-5.2738691692011885,4.4319789717189675,-0.151549905,-0.979428645,0.20214792,11.93332,6.6381,-1.3428799999999999,71.0
1774822468.807588,4.5299530029296875e-06,2026-03-29T22:14:28.807,2026-03-29T18:14:28.807,-34386.119999999995,-47077.695,-84656.11499999999,-49302.225,-13699.619999999999,-18326.07,6266.745,-62600.22,11.237183101489311,14.217252315277062,16.978302525855632,15.07542541691654,12.070159714781544,9.585313534793846,-8.091217318588006,2.0186089715373234,-0.151549905,-0.979428645,0.20214792,11.93332,6.6381,-1.3428799999999999,71.0
1774822468.8235648,0.015976667404174805,2026-03-29T22:14:28.823,2026-03-29T18:14:28.823,-34391.34,-47092.86,-84685.545,-49324.32,-13722.255,-18349.92,6216.389999999999,-62616.465,11.22865749246784,13.714867784134357,15.379364780496475,15.678531668924833,13.38146560727737,9.915467408789066,-6.636139287435076,-1.4445144716499234,-0.147277455,-0.978574155,0.204284145,8.881319999999999,9.03392,0.03052,71.0
1774822468.8235939,2.9087066650390625e-05,2026-03-29T22:14:28.823,2026-03-29T18:14:28.823,-34409.34,-47112.345,-84708.81,-49347.405,-13740.93,-18366.795,6233.355,-62629.515,5.674629187232012,6.597988775437452,6.416471330581056,8.842125968854813,8.329356116410423,5.548600541996994,-1.8947458733967182,-4.4446377538097925,-0.147277455,-0.978574155,0.204284145,8.881319999999999,9.03392,0.03052,71.0
1774822468.8236232,2.9325485229492188e-05,2026-03-29T22:14:28.823,2026-03-29T18:14:28.823,-34420.095,-47119.005,-84708.27,-49358.384999999995,-13745.925,-18363.285,6265.3949999999995,-62615.07,-2.8773809632586707,-3.872039646226885,-5.770856825371806,-2.21615793094662,-0.6400424259672047,-1.4562843793606157,3.474842825479461,-5.592915720574059,-0.147277455,-0.978574155,0.204284145,8.881319999999999,9.03392,0.03052,71.0
1774822468.823635,1.1920928955078125e-05,2026-03-29T22:14:28.823,2026-03-29T18:14:28.823,-34439.22,-47121.345,-84695.67,-49354.784999999996,-13743.359999999999,-18362.565,6285.285,-62626.59,-10.30066773959827,-12.725686029906822,-15.42166389422277,-12.243155510997298,-9.219281457656125,-7.7740927114917096,6.601701062733134,-4.2682150082773385,-0.147277455,-0.978574155,0.204284145,8.881319999999999,9.03392,0.03052,71.0
1774822468.8236492,1.4066696166992188e-05,2026-03-29T22:14:28.823,2026-03-29T18:14:28.823,-34416.045,-47099.34,-84666.42,-49329.54,-13728.015,-18358.605,6278.76,-62611.829999999994,-12.897165237278664,-15.667649444183679,-17.903982630964656,-16.475210610572436,-13.3318894518112,-10.410542582800767,5.9414214070309015,-0.9446157084166656,-0.147277455,-0.978574155,0.204284145,8.881319999999999,9.03392,0.03052,71.0
1774822468.82366,1.0728836059570312e-05,2026-03-29T22:14:28.823,2026-03-29T18:14:28.823,-34393.365,-47090.79,-84660.12,-49325.445,-13729.994999999999,-18361.665,6271.155,-62585.505,-9.252019546156031,-11.17953246683654,-11.956892480269572,-12.92761359966447,-11.091806954344191,-8.13725258549959,2.0689434529271855,2.966690759390248,-0.147277455,-0.978574155,0.204284145,8.881319999999999,9.03392,0.03052,71.0
1774822468.823675,1.5020370483398438e-05,2026-03-29T22:14:28.823,2026-03-29T18:14:28.823,-34396.11,-47087.549999999996,-84658.31999999999,-49323.465,-13725.72,-18358.515,6262.5599999999995,-62608.005,-0.9989046237218131,-1.3045264015950684,-0.329964242374087,-3.3357863051857257,-3.6775324927780115,-2.0698264261114963,-2.694790835885837,5.714962398263331,-0.147277455,-0.978574155,0.204284145,8.881319999999999,9.03392,0.03052,71.0
1774822468.8236856,1.0728836059570312e-05,2026-03-29T22:14:28.823,2026-03-29T18:14:28.823,-34419.465,-47105.909999999996,-84685.95,-49334.759999999995,-13722.795,-18356.355,6267.014999999999,-62644.905,7.916296156699139,9.29258593609461,11.504584965025625,7.703606067824624,5.28905952169063,4.886028830473682,-5.6078926675129,5.994826335831103,-0.147277455,-0.978574155,0.204284145,8.881319999999999,9.03392,0.03052,71.0
1774822468.8319528,0.00826716423034668,2026-03-29T22:14:28.831,2026-03-29T18:14:28.831,-34424.055,-47124.134999999995,-84723.075,-49374.36,-13761.494999999999,-18392.895,6261.885,-62661.78,13.140408413345144,15.553686562959216,17.956773149041883,14.962905351254625,11.532020889343844,9.442875421895925,-5.050426569258083,3.566351631803086,-0.147277455,-0.978574155,0.204284145,8.881319999999999,9.03392,0.03052,71.0
1774822468.831982,2.9087066650390625e-05,2026-03-29T22:14:28.831,2026-03-29T18:14:28.831,-34412.04,-47091.195,-84672.62999999999,-49345.064999999995,-13749.029999999999,-18378.405,6274.035,-62646.75,12.058868459392373,14.468487808431615,15.987718540188816,15.091109222762396,12.186310020863255,9.504455173557842,-1.4301886214765358,-0.584011135852968,-0.147277455,-0.978574155,0.204284145,8.881319999999999,9.03392,0.03052,71.0
1774822468.8320098,2.7894973754882812e-05,2026-03-29T22:14:28.832,2026-03-29T18:14:28.832,-34420.59,-47088.45,-84658.31999999999,-49332.825,-13737.375,-18374.355,6262.695,-62612.189999999995,5.115602240099105,6.5381346465154495,6.5551797557951055,8.18140486962071,7.129462880815024,5.141873736475706,3.0559995847535744,-4.638601450828675,-0.15197715,-0.98095452,0.20172067500000002,8.0878,9.903739999999999,0.65618,71.0
1774822468.832023,1.3113021850585938e-05,2026-03-29T22:14:28.832,2026-03-29T18:14:28.832,-34434.854999999996,-47122.92,-84702.915,-49360.905,-13756.23,-18398.565,6224.175,-62617.77,-4.364845570818497,-4.458209706743256,-5.858904072488282,-2.344762787464573,-1.047299867623164,-1.487200958124678,5.681140950257403,-6.744549634416331,-0.15197715,-0.98095452,0.20172067500000002,8.0878,9.903739999999999,0.65618,71.0
1774822468.8409133,0.008890390396118164,2026-03-29T22:14:28.840,2026-03-29T18:14:28.840,-34420.59,-47111.85,-84698.81999999999,-49348.979999999996,-13741.92,-18374.13,6207.57,-62644.185,-11.784991304937675,-13.284858504944415,-15.403648580909266,-11.448921033406949,-8.374586668863891,-7.215916135836336,4.770372380083295,-5.862431809333052,-0.15197715,-0.98095452,0.20172067500000002,8.0878,9.903739999999999,0.65618,71.0
1774822468.8409352,2.193450927734375e-05,2026-03-29T22:14:28.840,2026-03-29T18:14:28.840,-34404.39,-47084.04,-84667.31999999999,-49318.29,-13707.539999999999,-18330.48,6261.57,-62623.17,-13.52789365506267,-15.772488553880581,-17.649848244006986,-14.919495162393162,-11.456051357145364,-9.400148961943707,0.7145708822102416,-2.278407023579636,-0.15197715,-0.98095452,0.20172067500000002,8.0878,9.903739999999999,0.65618,71.0
1774822468.8409564,2.1219253540039062e-05,2026-03-29T22:14:28.840,2026-03-29T18:14:28.840,-34405.29,-47083.994999999995,-84650.58,-49304.924999999996,-13694.22,-18315.945,6289.245,-62596.755,-8.741415402479866,-10.813319355364792,-11.670113195772617,-11.348845718070402,-9.065693794078488,-7.155607798142249,-4.17869675971718,2.4718769389330175,-0.15197715,-0.98095452,0.20172067500000002,8.0878,9.903739999999999,0.65618,71.0
1774822468.8409643,7.867813110351562e-06,2026-03-29T22:14:28.840,2026-03-29T18:14:28.840,-34414.56,-47104.515,-84683.61,-49354.47,-13748.894999999999,-18377.37,6231.195,-62599.77,0.23650705318493245,-0.8618114749699366,-0.4198778614982925,-2.701811584324003,-2.629220564502719,-1.7135867367830842,-6.951852166055831,6.258550937097184,-0.15197715,-0.98095452,0.20172067500000002,8.0878,9.903739999999999,0.65618,71.0
1774822468.849233,0.008268594741821289,2026-03-29T22:14:28.849,2026-03-29T18:14:28.849,-34402.14,-47092.905,-84671.595,-49342.005,-13738.59,-18369.495,6212.385,-62601.39,9.028116933665423,9.289580293957489,10.73675138016022,6.7531311205097415,4.596426163615908,4.246737554201117,-5.702450778116854,7.314125680307044,-0.15197715,-0.98095452,0.20172067500000002,8.0878,9.903739999999999,0.65618,71.0
1774822468.8492565,2.3603439331054688e-05,2026-03-29T22:14:28.849,2026-03-29T18:14:28.849,-34386.615,-47083.275,-84666.33,-49309.515,-13700.88,-18326.79,6288.615,-62585.369999999995,13.372630248310793,14.845426965315372,16.61583850270342,12.574239063792133,9.184857355910188,7.930848562531671,-0.7717787213793317,5.061519213102028,-0.15197715,-0.98095452,0.20172067500000002,8.0878,9.903739999999999,0.65618,71.0
1774822468.8492775,2.09808349609375e-05,2026-03-29T22:14:28.849,2026-03-29T18:14:28.849,-34390.575,-47079.54,-84649.815,-49297.185,-13692.195,-18320.175,6342.525,-62582.759999999995,11.217642536396013,13.30372533849892,14.654061497504037,12.265563421574717,9.190233139637483,7.75800891492425,5.289069041696099,0.4246057396678237,-0.15197715,-0.98095452,0.20172067500000002,8.0878,9.903739999999999,0.65618,71.0
1774822468.8492856,8.106231689453125e-06,2026-03-29T22:14:28.849,2026-03-29T18:14:28.849,-34385.94,-47077.83,-84651.075,-49307.939999999995,-13707.359999999999,-18342.09,6329.745,-62588.115,3.7069592138334464,5.599872952466064,6.0372237984514685,6.359063327000939,4.979671142656188,4.0463746709036785,9.025888532319929,-4.543695890484804,-0.15197715,-0.98095452,0.20172067500000002,8.0878,9.903739999999999,0.65618,71.0
1774822468.8492954,9.775161743164062e-06,2026-03-29T22:14:28.849,2026-03-29T18:14:28.849,-34403.265,-47096.865,-84679.47,-49337.28,-13735.439999999999,-18369.09,6306.929999999999,-62610.03,-5.419167510841555,-4.433417596898869,-4.985694856037765,-2.015681180917364,-1.1119586731610651,-1.246361728590609,7.996629689830337,-7.570140250094912,-0.156188565,-0.978452085,0.202208955,5.4173,6.39394,0.07629999999999999,71.0
1774822468.8493035,8.106231689453125e-06,2026-03-29T22:14:28.849,2026-03-29T18:14:28.849,-34421.445,-47127.825,-84719.87999999999,-49367.34,-13756.05,-18383.535,6309.45,-62618.13,-11.700136197902289,-11.988444970450503,-13.217716287593737,-8.787206558547366,-6.061281937848917,-5.553594101927523,2.252149576994078,-7.20504830375647,-0.156188565,-0.978452085,0.202208955,5.4173,6.39394,0.07629999999999999,71.0
1774822468.8642173,0.014913797378540039,2026-03-29T22:14:28.864,2026-03-29T18:14:28.864,-34412.76,-47124.72,-84718.035,-49371.119999999995,-13757.265,-18378.585,6336.719999999999,-62588.024999999994,-12.16100546755623,-13.61664098184559,-14.997088933900866,-10.94900868699867,-7.675651186726718,-6.960383748816089,-5.478241758061059,-3.520720424047859,-0.156188565,-0.978452085,0.202208955,5.4173,6.39394,0.07629999999999999,71.0
1774822468.8642452,2.7894973754882812e-05,2026-03-29T22:14:28.864,2026-03-29T18:14:28.864,-34404.21,-47102.939999999995,-84692.43,-49334.265,-13708.845,-18331.02,6351.84,-62564.354999999996,-6.746424828441026,-8.827870568863643,-9.847186796371428,-7.9165647071035,-5.581395387207808,-5.0682025174489524,-11.08739678469992,1.8736138006232514,-0.156188565,-0.978452085,0.202208955,5.4173,6.39394,0.07629999999999999,71.0
1774822468.8642735,2.8371810913085938e-05,2026-03-29T22:14:28.864,2026-03-29T18:14:28.864,-34408.755,-47092.365,-84674.34,-49318.02,-13699.529999999999,-18329.04,6286.545,-62602.335,1.7198989995179796,-0.20127043337002778,-0.5393689530329544,-1.6112345298227058,-1.2274861254795122,-1.0669648521645498,-11.256112367818043,6.531508153083058,-0.156188565,-0.978452085,0.202208955,5.4173,6.39394,0.07629999999999999,71.0
1774822468.8642845,1.0967254638671875e-05,2026-03-29T22:14:28.864,2026-03-29T18:14:28.864,-34395.345,-47084.13,-84668.48999999999,-49324.545,-13714.38,-18346.59,6269.58,-62602.064999999995,9.003920094692587,7.992269428067146,8.38790576526235,4.683128803771488,3.0194944654290947,2.9684665994616912,-5.347914410833838,8.281442578939876,-0.156188565,-0.978452085,0.202208955,5.4173,6.39394,0.07629999999999999,71.0
1774822468.8642972,1.2636184692382812e-05,2026-03-29T22:14:28.864,2026-03-29T18:14:28.864,-34380.405,-47069.235,-84654.98999999999,-49315.409999999996,-13717.26,-18364.14,6212.835,-62614.979999999996,11.59594351715683,11.92507776906727,12.866939831262668,8.03593036310613,5.154786012308306,5.156946785797808,4.024548417742149,6.245042640364607,-0.156188565,-0.978452085,0.202208955,5.4173,6.39394,0.07629999999999999,71.0
1774822468.8643076,1.049041748046875e-05,2026-03-29T22:14:28.864,2026-03-29T18:14:28.864,-34362.494999999995,-47043.09,-84628.215,-49295.97,-13706.73,-18359.954999999998,6216.885,-62641.35,8.427965606081571,10.02922377756348,11.181423698522535,7.259717189545522,4.501107912453224,4.703456986116283,12.158801184212955,1.2815897735431796,-0.156188565,-0.978452085,0.202208955,5.4173,6.39394,0.07629999999999999,71.0
1774822468.8643196,1.1920928955078125e-05,2026-03-29T22:14:28.864,2026-03-29T18:14:28.864,-34403.85,-47086.604999999996,-84677.175,-49339.89,-13741.56,-18381.059999999998,6284.565,-62630.549999999996,1.3219326200210584,3.6195370461951457,4.60756461053972,3.3034784913152,1.8869580604000893,2.1750533961113634,14.632406130852326,-4.367389499428124,-0.156188565,-0.978452085,0.202208955,5.4173,6.39394,0.07629999999999999,71.0
1774822468.8643284,8.821487426757812e-06,2026-03-29T22:14:28.864,2026-03-29T18:14:28.864,-34454.79,-47124.99,-84690.22499999999,-49335.435,-13717.574999999999,-18339.255,6333.03,-62606.024999999994,-6.023859271237274,-3.9236560670368017,-3.41469910841638,-1.4649841221954265,-0.9855538828163241,-0.9282599267661308,9.68450189253981,-8.09053907714259,-0.156188565,-0.978452085,0.202208955,5.4173,6.39394,0.07629999999999999,71.0
1774822468.873542,0.009213685989379883,2026-03-29T22:14:28.873,2026-03-29T18:14:28.873,-34444.53,-47139.975,-84737.025,-49363.875,-13729.814999999999,-18356.895,6279.21,-62604.0,-9.958584616002463,-8.933041420964305,-9.081210784757516,-4.622247716412249,-2.571686201920667,-3.0304684502038235,-0.665093229219264,-8.119123797016817,-0.15002403,-0.976621035,0.198790995,1.55652,4.36436,1.2971,71.0
1774822468.8736207,7.867813110351562e-05,2026-03-29T22:14:28.873,2026-03-29T18:14:28.873,-34440.075,-47132.595,-84754.44,-49381.424999999996,-13755.42,-18398.565,6196.86,-62680.32,-8.712573064429165,-9.260113527031473,-10.052777265170846,-4.932879588312366,-2.315627280019733,-3.286974403562757,-11.429932043796544,-4.374423164207358,-0.15002403,-0.976621035,0.198790995,1.55652,4.36436,1.2971,71.0
1774822468.8736463,2.5510787963867188e-05,2026-03-29T22:14:28.873,2026-03-29T18:14:28.873,-34448.085,-47137.32,-84741.48,-49387.455,-13777.154999999999,-18424.844999999998,6153.48,-62666.415,-3.211834954264,-5.209118877966344,-6.4230916166748875,-2.830586072244069,-0.8353986526651471,-1.9262902308159573,-17.083173401106983,1.458902654199764,-0.15002403,-0.976621035,0.198790995,1.55652,4.36436,1.2971,71.0
1774822468.873659,1.2636184692382812e-05,2026-03-29T22:14:28.873,2026-03-29T18:14:28.873,-34438.185,-47124.63,-84692.87999999999,-49354.424999999996,-13754.25,-18393.84,6208.965,-62595.27,3.5102048204369702,0.8131344896313215,-0.42367149506234325,0.04952263522428044,0.5950517477813747,0.013660936463976484,-14.40526539763107,6.687677180416596,-0.15002403,-0.976621035,0.198790995,1.55652,4.36436,1.2971,71.0
1774822468.8804412,0.0067822933197021484,2026-03-29T22:14:28.880,2026-03-29T18:14:28.880,-34373.744999999995,-47071.53,-84646.845,-49307.534999999996,-13701.285,-18338.895,6288.974999999999,-62532.585,7.957284388862661,5.671837999762288,4.879269598924609,1.945623565347499,0.9176079499959172,1.3597997337324819,-4.281388668036294,8.856721906021145,-0.15002403,-0.976621035,0.198790995,1.55652,4.36436,1.2971,71.0
1774822468.880458,1.6927719116210938e-05,2026-03-29T22:14:28.880,2026-03-29T18:14:28.880,-34343.235,-47051.145,-84638.06999999999,-49296.689999999995,-13686.75,-18319.364999999998,6374.385,-62507.159999999996,7.989993978007942,7.137765981854121,7.158880392085284,1.9986330092514735,-0.024766474522009647,1.4834982763814184,8.541394741459902,6.908798610859743,-0.15002403,-0.976621035,0.198790995,1.55652,4.36436,1.2971,71.0
1774822468.8890045,0.00854635238647461,2026-03-29T22:14:28.889,2026-03-29T18:14:28.889,-34396.155,-47093.174999999996,-84678.3,-49328.729999999996,-13709.475,-18334.755,6381.9,-62565.165,3.872959354582428,4.927833973930195,5.86159545124557,0.6521500055340457,-1.4037859173638143,0.6027132535521744,17.705460781105664,1.706867013896874,-0.15002403,-0.976621035,0.198790995,1.55652,4.36436,1.2971,71.0
1774822468.8890212,1.6689300537109375e-05,2026-03-29T22:14:28.889,2026-03-29T18:14:28.889,-34421.805,-47112.615,-84695.67,-49341.195,-13722.615,-18353.43,6336.179999999999,-62598.735,-1.970750571316487,0.6586650974219049,2.2351975017532544,-0.7682658751377957,-1.9705372650255113,-0.44231222907495216,18.423659600660613,-4.3421171332254405,-0.15002403,-0.976621035,0.198790995,1.55652,4.36436,1.2971,71.0
1774822468.8890376,1.6450881958007812e-05,2026-03-29T22:14:28.889,2026-03-29T18:14:28.889,-34410.555,-47098.125,-84680.81999999999,-49334.715,-13724.775,-18366.885,6296.8949999999995,-62602.92,-6.329143949045251,-3.1844218780538593,-1.5564967835027133,-1.000896264703184,-0.9224687033477349,-0.7798269678267438,9.986133835986456,-8.4009582056423,-0.15002403,-0.976621035,0.198790995,1.55652,4.36436,1.2971,71.0
1774822468.8890464,8.821487426757812e-06,2026-03-29T22:14:28.889,2026-03-29T18:14:28.889,-34402.905,-47085.03,-84660.84,-49320.27,-13714.56,-18357.165,6276.51,-62598.104999999996,-6.940119600333917,-4.649093866910666,-3.6739633739164397,0.27877798851367797,1.4673838665577574,-0.09486726912608323,-3.7221731849355417,-8.538115930335993,-0.15002403,-0.976621035,0.198790995,1.55652,4.36436,1.2971,71.0
1774822468.8890567,1.0251998901367188e-05,2026-03-29T22:14:28.889,2026-03-29T18:14:28.889,-34399.17,-47078.235,-84651.25499999999,-49318.784999999996,-13716.855,-18362.385,6222.15,-62594.909999999996,-3.668066235619524,-3.314103311487231,-3.5042652706418713,2.202096435721159,3.874879600587333,1.1463621506081678,-16.02871093205158,-4.654375297817148,-0.145080195,-0.9699071850000001,0.198913065,-0.28994,2.63998,1.35814,71.0
1774822468.8890653,8.58306884765625e-06,2026-03-29T22:14:28.889,2026-03-29T18:14:28.889,-34383.06,-47067.705,-84644.19,-49302.585,-13696.154999999999,-18344.34,6250.679999999999,-62577.54,1.4947223058453376,-0.37085292292145433,-1.7782721221638602,3.2393659195233857,4.641168922445288,1.9791353919484276,-20.756540480120147,1.4475231237142667,-0.145080195,-0.9699071850000001,0.198913065,-0.28994,2.63998,1.35814,71.0
1774822468.8987498,0.009684562683105469,2026-03-29T22:14:28.898,2026-03-29T18:14:28.898,-34405.83,-47103.345,-84695.31,-49335.525,-13727.475,-18374.67,6320.745,-62586.314999999995,5.576501208356175,2.1984499004643574,0.07472792576615424,2.2115234761156857,2.7994130315581525,1.5686570805479976,-15.352909779545987,6.8967306119283736,-0.145080195,-0.9699071850000001,0.198913065,-0.28994,2.63998,1.35814,71.0
1774822468.8987756,2.574920654296875e-05,2026-03-29T22:14:28.898,2026-03-29T18:14:28.898,-34436.88,-47135.88,-84736.845,-49373.775,-13758.345,-18394.11,6320.835,-62614.755,6.283694496675088,2.83610237072905,0.8893752579721069,-0.8335099667675657,-1.1884386603111328,-0.19263037165552815,-2.2669574524130582,9.107113432586189,-0.145080195,-0.9699071850000001,0.198913065,-0.28994,2.63998,1.35814,71.0
1774822468.8987966,2.09808349609375e-05,2026-03-29T22:14:28.898,2026-03-29T18:14:28.898,-34424.19,-47122.2,-84726.72,-49374.494999999995,-13752.09,-18377.64,6310.755,-62607.735,3.261623947863026,1.3099305992926937,0.4523400688477823,-4.444438162999564,-5.464694643159806,-2.4958313090454887,12.166057955310531,7.010426017754193,-0.145080195,-0.9699071850000001,0.198913065,-0.28994,2.63998,1.35814,71.0
1774822468.8988032,6.67572021484375e-06,2026-03-29T22:14:28.898,2026-03-29T18:14:28.898,-34415.19,-47104.92,-84699.58499999999,-49365.854999999996,-13749.164999999999,-18372.465,6284.205,-62604.18,-1.7244869146091266,-1.2061782686303921,-0.47529230159548747,-6.4656212086990115,-7.648559225758309,-3.9884308784318296,20.823408658521142,1.5791618949676358,-0.145080195,-0.9699071850000001,0.198913065,-0.28994,2.63998,1.35814,71.0
1774822468.9069052,0.008101940155029297,2026-03-29T22:14:28.906,2026-03-29T18:14:28.906,-34406.369999999995,-47090.744999999995,-84667.455,-49342.005,-13732.154999999999,-18363.285,6266.655,-62598.689999999995,-5.781756424413798,-2.8979331625596965,-0.7756072077673442,-5.271513010996577,-6.135061623423582,-3.536816180655433,19.347224622668858,-4.619506542624745,-0.145080195,-0.9699071850000001,0.198913065,-0.28994,2.63998,1.35814,71.0
1774822468.9069304,2.5272369384765625e-05,2026-03-29T22:14:28.906,2026-03-29T18:14:28.906,-34394.805,-47093.805,-84680.28,-49334.67,-13723.65,-18358.065,6292.8,-62564.22,-6.510622817883617,-2.4607892700861203,0.18231210396803127,-0.8478969140873209,-1.1212165835815102,-0.9596602162380452,8.363241728760956,-8.636249337217539,-0.145080195,-0.9699071850000001,0.198913065,-0.28994,2.63998,1.35814,71.0
1774822468.9070077,7.724761962890625e-05,2026-03-29T22:14:28.907,2026-03-29T18:14:28.907,-34388.28,-47092.365,-84685.545,-49315.814999999995,-13702.365,-18339.39,6303.96,-62549.82,-3.3661603602245953,0.04830175259925618,2.020041568191103,4.939808617576948,5.252738800118003,2.7071145719342677,-6.773637140708313,-8.546006403974603,-0.145080195,-0.9699071850000001,0.198913065,-0.28994,2.63998,1.35814,71.0
1774822468.9070182,1.049041748046875e-05,2026-03-29T22:14:28.907,2026-03-29T18:14:28.907,-34395.75,-47085.705,-84672.36,-49319.64,-13704.029999999999,-18336.149999999998,6301.755,-62575.965,1.9927579419747394,3.1715608664228028,3.500414314579571,9.13840613343086,9.821597361899176,5.621820715198816,-18.60973869203147,-4.37606717860664,-0.145080195,-0.9699071850000001,0.198913065,-0.28994,2.63998,1.35814,71.0
1774822468.9149349,0.007916688919067383,2026-03-29T22:14:28.914,2026-03-29T18:14:28.914,-34409.159999999996,-47106.63,-84698.37,-49342.814999999995,-13724.775,-18358.559999999998,6275.385,-62596.845,6.574147402398419,4.872005553607881,3.290523180611096,9.220402224759836,9.9769518121479,6.0645146280906825,-21.298285432163294,1.8940491346041346,-0.14440881,-0.96716061,0.197570295,-2.79258,2.50264,3.55558,71.0
1774822468.9149764,4.1484832763671875e-05,2026-03-29T22:14:28.914,2026-03-29T18:14:28.914,-34408.845,-47112.975,-84708.54,-49354.875,-13735.89,-18370.17,6265.53,-62588.07,7.687961875675797,3.762328892718369,0.8892732305215861,4.540660878021565,5.117579349591176,3.412357739686001,-13.523112855172458,7.269264610109001,-0.14440881,-0.96716061,0.197570295,-2.79258,2.50264,3.55558,71.0
1774822468.9150047,2.8371810913085938e-05,2026-03-29T22:14:28.915,2026-03-29T18:14:28.915,-34406.505,-47107.395,-84699.36,-49347.674999999996,-13728.779999999999,-18364.995,6285.195,-62572.32,4.464639815806941,0.032065097442827636,-2.860867374048065,-3.0805483901595725,-2.8239679195956717,-1.376335007274235,0.8362505023864631,9.170075071925286,-0.14440881,-0.96716061,0.197570295,-2.79258,2.50264,3.55558,71.0
1774822468.915017,1.2159347534179688e-05,2026-03-29T22:14:28.915,2026-03-29T18:14:28.915,-34417.17,-47109.689999999995,-84698.19,-49350.96,-13736.835,-18379.62,6263.28,-62586.314999999995,-1.5791309185681404,-4.493567746052022,-6.047792340433773,-10.05354960033105,-10.140812409814583,-6.086613093827613,14.642502944282565,6.673849121310148,-0.14440881,-0.96716061,0.197570295,-2.79258,2.50264,3.55558,71.0
1774822468.9238007,0.008783817291259766,2026-03-29T22:14:28.923,2026-03-29T18:14:28.923,-34407.99,-47097.765,-84687.25499999999,-49344.75,-13733.324999999999,-18376.02,6232.7699999999995,-62613.27,-7.266048752944821,-7.257928386969356,-6.673384869871184,-12.735113916634939,-13.104217276918043,-8.283438073236386,21.072124776526998,0.9672808636078744,-0.14440881,-0.96716061,0.197570295,-2.79258,2.50264,3.55558,71.0
1774822468.9238229,2.2172927856445312e-05,2026-03-29T22:14:28.923,2026-03-29T18:14:28.923,-34401.42,-47084.265,-84679.29,-49334.58,-13716.855,-18358.065,6241.545,-62636.49,-9.422760704459323,-6.3877115028959865,-3.8375825455663004,-9.332854489600475,-9.87063959202957,-6.569933244373861,17.02310022218343,-5.213882557288093,-0.14440881,-0.96716061,0.197570295,-2.79258,2.50264,3.55558,71.0
1774822468.9238443,2.1457672119140625e-05,2026-03-29T22:14:28.923,2026-03-29T18:14:28.923,-34429.005,-47103.75,-84696.3,-49336.92,-13709.835,-18350.594999999998,6290.505,-62632.395,-6.6133342036501706,-1.8466534555615939,1.5547880810722714,-1.0023989774601274,-1.5650663132549667,-1.4174169712467284,4.642211418485261,-8.894974331126818,-0.14440881,-0.96716061,0.197570295,-2.79258,2.50264,3.55558,71.0
1774822468.9238527,8.344650268554688e-06,2026-03-29T22:14:28.923,2026-03-29T18:14:28.923,-34431.795,-47113.875,-84696.48,-49335.705,-13715.055,-18360.495,6310.035,-62606.34,-0.008135026389917316,4.345959257643269,7.031487756181165,8.502111724241423,8.074426870893394,4.906709161730395,-9.792998847865396,-8.295397057894212,-0.14440881,-0.96716061,0.197570295,-2.79258,2.50264,3.55558,71.0
1774822468.9307761,0.0069234371185302734,2026-03-29T22:14:28.930,2026-03-29T18:14:28.930,-34410.78,-47106.494999999995,-84691.53,-49340.159999999996,-13727.564999999999,-18374.265,6282.945,-62580.24,7.111083417982896,9.027381600643345,9.706630095920783,14.545867859497912,14.401277337049452,9.347410584929108,-19.062411267528528,-3.6932761891755796,-0.14440881,-0.96716061,0.197570295,-2.79258,2.50264,3.55558,71.0
1774822468.930798,2.193450927734375e-05,2026-03-29T22:14:28.930,2026-03-29T18:14:28.930,-34365.465,-47061.27,-84651.165,-49305.735,-13692.914999999999,-18338.895,6248.7,-62562.104999999996,10.996874548868337,9.51556390669328,7.803014414424375,13.90150724140231,14.126787024354476,9.5535871756485,-18.639765850990926,2.699754951731404,-0.14440881,-0.96716061,0.197570295,-2.79258,2.50264,3.55558,71.0
1774822468.930818,2.002716064453125e-05,2026-03-29T22:14:28.930,2026-03-29T18:14:28.930,-34346.475,-47027.97,-84615.525,-49263.93,-13646.115,-18293.579999999998,6239.61,-62580.78,9.400935156474866,5.1079671968139735,1.7398103859639311,6.465956171619968,7.031305151107545,5.11785903660992,-8.935178650294732,7.799237518313929,-0.143981565,-0.959897445,0.201110325,-9.40016,3.5098,3.40298,71.0
1774822468.9308248,6.67572021484375e-06,2026-03-29T22:14:28.930,2026-03-29T18:14:28.930,-34381.755,-47067.345,-84658.815,-49312.845,-13698.045,-18344.07,6258.69,-62567.729999999996,2.8307739748085656,-2.3681757850559886,-5.849418968410252,-4.504434986859453,-3.7707869886538203,-2.087124291558773,4.980961449225437,9.136272123585945,-0.143981565,-0.959897445,0.201110325,-9.40016,3.5098,3.40298,71.0
1774822468.941238,0.010413169860839844,2026-03-29T22:14:28.941,2026-03-29T18:14:28.941,-34427.295,-47125.89,-84714.12,-49362.255,-13742.595,-18385.335,6313.094999999999,-62543.384999999995,-5.588671349605189,-9.316617744983883,-11.275390096506285,-13.838215434894025,-13.213211408281676,-8.702642251147111,16.010157912152422,6.0551272212697524,-0.143981565,-0.959897445,0.201110325,-9.40016,3.5098,3.40298,71.0
1774822468.9412541,1.621246337890625e-05,2026-03-29T22:14:28.941,2026-03-29T18:14:28.941,-34462.619999999995,-47163.869999999995,-84756.105,-49399.74,-13774.455,-18414.719999999998,6300.405,-62573.04,-11.62511937707209,-12.125558414577316,-11.611413579088484,-16.923361472188162,-16.686773325971174,-11.470298770387483,18.653424594048122,0.03785200977246662,-0.143981565,-0.959897445,0.201110325,-9.40016,3.5098,3.40298,71.0
1774822468.964908,0.023653745651245117,2026-03-29T22:14:28.964,2026-03-29T18:14:28.964,-34456.14,-47158.29,-84757.455,-49403.34,-13775.355,-18409.545,6276.915,-62597.43,-12.080643606989735,-9.048710001359188,-6.264522340719906,-12.011690550743744,-12.315214550538268,-8.852531884323614,11.777064344366972,-6.00638397647484,-0.143981565,-0.959897445,0.201110325,-9.40016,3.5098,3.40298,71.0
1774822468.9649465,3.8623809814453125e-05,2026-03-29T22:14:28.964,2026-03-29T18:14:28.964,-34405.47,-47103.615,-84699.09,-49353.479999999996,-13734.72,-18379.215,6275.969999999999,-62579.204999999994,-6.475378865633078,-1.2332626270394091,2.5403868362012987,-1.191177367494374,-1.9631937665998056,-1.8748259276447206,-0.8847356934717316,-9.147677075897242,-0.143981565,-0.959897445,0.201110325,-9.40016,3.5098,3.40298,71.0
1774822468.9649818,3.528594970703125e-05,2026-03-29T22:14:28.964,2026-03-29T18:14:28.964,-34370.46,-47067.615,-84657.375,-49312.395,-13699.71,-18354.195,6270.66,-62552.34,2.6091166927269547,7.689984564369687,10.688938215397114,10.507186494947135,9.562695982362143,6.266915984310093,-12.721461192323233,-7.857694560014604,-0.143981565,-0.959897445,0.201110325,-9.40016,3.5098,3.40298,71.0
1774822468.9650044,2.2649765014648438e-05,2026-03-29T22:14:28.965,2026-03-29T18:14:28.965,-34386.615,-47083.545,-84679.29,-49326.57,-13703.265,-18354.87,6229.17,-62568.134999999995,10.741161804435217,13.31807174335895,14.129257623107257,17.483215423139942,16.7760699485476,11.688973927976878,-17.68248832132667,-2.7563305834807292,-0.143981565,-0.959897445,0.201110325,-9.40016,3.5098,3.40298,71.0
1774822468.9650393,3.4809112548828125e-05,2026-03-29T22:14:28.965,2026-03-29T18:14:28.965,-34385.13,-47076.075,-84662.415,-49311.63,-13688.505,-18341.594999999998,6250.86,-62572.814999999995,13.826408258214594,12.670940579927214,10.908025143977852,16.286281133724447,16.157884063332183,11.696257455559087,-13.376583488558595,3.683827662376177,-0.143981565,-0.959897445,0.201110325,-9.40016,3.5098,3.40298,71.0
1774822468.9650605,2.1219253540039062e-05,2026-03-29T22:14:28.965,2026-03-29T18:14:28.965,-34384.14,-47092.725,-84685.23,-49343.534999999996,-13725.81,-18373.32,6286.635,-62550.09,10.181011620176227,5.766488429117778,2.2588210992140967,7.342732263633673,7.895896699552128,6.135727864180079,-2.2435115427848795,8.335888363215664,-0.143981565,-0.959897445,0.201110325,-9.40016,3.5098,3.40298,71.0
1774822468.9650831,2.2649765014648438e-05,2026-03-29T22:14:28.965,2026-03-29T18:14:28.965,-34418.744999999995,-47137.005,-84742.965,-49399.83,-13776.164999999999,-18411.48,6290.594999999999,-62550.045,1.4362364379478993,-4.254939063163581,-7.8548589073264425,-5.1809755288703006,-4.152800627528996,-2.4584453019803467,9.784580157751952,8.939438144393831,-0.14514123,-0.957944325,0.2001948,-16.95386,3.052,6.104,71.0
1774822468.9651005,1.7404556274414062e-05,2026-03-29T22:14:28.965,2026-03-29T18:14:28.965,-34427.475,-47117.924999999996,-84704.94,-49360.634999999995,-13734.404999999999,-18370.89,6310.755,-62580.06,-8.20573202201142,-12.577188399994458,-14.580954417306893,-15.3447296113113,-14.283776379191226,-10.0324423181799,16.412419501683992,5.202939330628353,-0.14514123,-0.957944325,0.2001948,-16.95386,3.052,6.104,71.0
1774822468.965122,2.1457672119140625e-05,2026-03-29T22:14:28.965,2026-03-29T18:14:28.965,-34419.915,-47100.24,-84672.62999999999,-49330.799999999996,-13706.73,-18346.5,6330.33,-62583.615,-14.018373776869833,-15.050870424061388,-14.537086905311375,-18.290935874681093,-17.681591740088056,-12.949549892107475,14.261609523799752,-1.052082229966817,-0.14514123,-0.957944325,0.2001948,-16.95386,3.052,6.104,71.0
1774822468.9651396,1.7642974853515625e-05,2026-03-29T22:14:28.965,2026-03-29T18:14:28.965,-34409.79,-47090.07,-84663.765,-49330.395,-13710.24,-18355.59,6318.585,-62566.515,-13.091378627955969,-10.280261875989847,-7.5261439964869,-12.600038916760754,-12.742374244812634,-9.760116635114949,4.5969410143394125,-6.778502226743993,-0.14514123,-0.957944325,0.2001948,-16.95386,3.052,6.104,71.0
1774822468.9651628,2.3126602172851562e-05,2026-03-29T22:14:28.965,2026-03-29T18:14:28.965,-34390.215,-47081.97,-84664.575,-49339.89,-13723.92,-18377.055,6273.315,-62550.36,-5.79658028518356,-0.39795883771495216,3.266424945497314,-0.9887842659157398,-1.8479506820018772,-1.933180364397508,-7.385407156214421,-9.191212255233326,-0.14514123,-0.957944325,0.2001948,-16.95386,3.052,6.104,71.0
1774822468.9651802,1.7404556274414062e-05,2026-03-29T22:14:28.965,2026-03-29T18:14:28.965,-34409.115,-47098.395,-84672.98999999999,-49336.92,-13721.805,-18377.415,6265.215,-62589.06,4.362141471127424,9.896650805724697,12.73638086149309,10.997671712231108,9.789260819795647,6.8239090886423766,-15.317808875644573,-7.127530983415191,-0.14514123,-0.957944325,0.2001948,-16.95386,3.052,6.104,71.0
1774822468.9651997,1.9550323486328125e-05,2026-03-29T22:14:28.965,2026-03-29T18:14:28.965,-34426.575,-47132.055,-84726.855,-49354.695,-13731.164999999999,-18384.795,6261.344999999999,-62594.369999999995,12.453311867236124,15.597156407009507,16.304528939598928,17.66472140869054,16.647314918821724,12.341151104643203,-15.014830680798756,-1.6131245838212402,-0.14514123,-0.957944325,0.2001948,-16.95386,3.052,6.104,71.0
1774822468.9652166,1.6927719116210938e-05,2026-03-29T22:14:28.965,2026-03-29T18:14:28.965,-34437.06,-47124.405,-84705.56999999999,-49345.92,-13728.555,-18387.899999999998,6254.46,-62603.865,14.538155281136001,13.850162994202801,12.156897247571255,15.910358140450073,15.550565369965762,11.997842039463471,-6.664270076940575,4.645218333483391,-0.14514123,-0.957944325,0.2001948,-16.95386,3.052,6.104,71.0
1774822468.973492,0.008275270462036133,2026-03-29T22:14:28.973,2026-03-29T18:14:28.973,-34414.335,-47103.705,-84693.59999999999,-49345.92,-13727.564999999999,-18378.989999999998,6260.535,-62595.945,9.6080175119628,5.396202072281887,2.1744023360129576,6.694166208728857,7.167567535460564,5.9887603099634905,5.285877348390299,8.591079916007306,-0.14514123,-0.957944325,0.2001948,-16.95386,3.052,6.104,71.0
1774822468.9735153,2.3365020751953125e-05,2026-03-29T22:14:28.973,2026-03-29T18:14:28.973,-34404.525,-47104.83,-84708.315,-49355.325,-13729.769999999999,-18365.309999999998,6281.01,-62599.095,0.07815498465774652,-5.740467427639168,-8.92651824260982,-5.473237237756584,-4.367383377078988,-2.776346048876996,14.47802182339266,8.31861488581282,-0.14514123,-0.957944325,0.2001948,-16.95386,3.052,6.104,71.0
1774822468.973533,1.7642974853515625e-05,2026-03-29T22:14:28.973,2026-03-29T18:14:28.973,-34412.58,-47110.59,-84708.405,-49358.43,-13730.265,-18356.76,6293.34,-62601.299999999996,-9.40553372574382,-14.184483381976921,-15.84577884924635,-14.752902281711991,-13.503629121622252,-10.09140747662264,15.997027393180028,4.0018994880204835,-0.15270957,-0.963315405,0.195128895,-18.14414,-0.51884,8.20988,71.0
1774822468.97354,7.152557373046875e-06,2026-03-29T22:14:28.973,2026-03-29T18:14:28.973,-34407.72,-47106.674999999996,-84699.9,-49350.015,-13722.975,-18358.155,6292.71,-62562.645,-14.252588832513286,-15.828149044778662,-15.257673771633522,-16.809988194684497,-15.973814301145168,-12.494922250074053,8.966088059429,-2.204236465337432,-0.15270957,-0.963315405,0.195128895,-18.14414,-0.51884,8.20988,71.0
1774822468.9735477,7.62939453125e-06,2026-03-29T22:14:28.973,2026-03-29T18:14:28.973,-34406.19,-47104.064999999995,-84690.315,-49335.03,-13706.505,-18352.395,6316.65,-62526.015,-12.173119402758957,-9.849957335785223,-7.428259403668263,-10.86866512367167,-10.818498293536459,-8.93305102504051,-2.974012357023743,-7.2400783708703385,-0.15270957,-0.963315405,0.195128895,-18.14414,-0.51884,8.20988,71.0
1774822468.9735546,6.9141387939453125e-06,2026-03-29T22:14:28.973,2026-03-29T18:14:28.973,-34417.53,-47102.715,-84688.83,-49333.365,-13708.439999999999,-18359.37,6296.58,-62562.555,-4.274695187158752,0.8671136051896022,3.902088952911179,-0.002550430274716114,-0.7615623768320927,-1.2349269460544456,-13.55575932700007,-8.657254305854657,-0.15270957,-0.963315405,0.195128895,-18.14414,-0.51884,8.20988,71.0
1774822468.9807117,0.007157087326049805,2026-03-29T22:14:28.980,2026-03-29T18:14:28.980,-34393.77,-47071.439999999995,-84661.65,-49315.005,-13696.605,-18353.79,6230.745,-62588.475,5.520085262637615,11.13253850987616,13.319541392093605,10.446489076774956,9.212032849917152,6.820552824446222,-17.161042329304845,-5.821036690402265,-0.15270957,-0.963315405,0.195128895,-18.14414,-0.51884,8.20988,71.0
1774822468.9807346,2.288818359375e-05,2026-03-29T22:14:28.980,2026-03-29T18:14:28.980,-34362.45,-47035.979999999996,-84627.72,-49281.345,-13662.494999999999,-18321.84,6206.58,-62596.665,12.431088595503116,15.979620455903655,16.346853367299857,15.510133564447626,14.339338332659368,11.372461105563506,-11.773652630939717,-0.20276812832031602,-0.15270957,-0.963315405,0.195128895,-18.14414,-0.51884,8.20988,71.0
1774822468.9807813,4.673004150390625e-05,2026-03-29T22:14:28.980,2026-03-29T18:14:28.980,-34373.115,-47068.875,-84679.2,-49317.705,-13682.789999999999,-18331.469999999998,6261.075,-62570.79,13.172136626981423,13.088664743103644,11.593533438806382,12.982301465847472,12.381060062314948,10.351384605815065,-0.06597984551211898,5.377267588886128,-0.15270957,-0.963315405,0.195128895,-18.14414,-0.51884,8.20988,71.0
1774822468.980792,1.0728836059570312e-05,2026-03-29T22:14:28.980,2026-03-29T18:14:28.980,-34403.58,-47115.27,-84725.91,-49356.09,-13716.945,-18360.765,6342.48,-62523.63,7.532225337687402,3.911231270020096,1.404252929099606,4.394949608512849,4.617917823134717,4.439567138032172,11.952649904397536,8.1704362226193,-0.15270957,-0.963315405,0.195128895,-18.14414,-0.51884,8.20988,71.0
1774822468.9901752,0.009383201599121094,2026-03-29T22:14:28.990,2026-03-29T18:14:28.990,-34407.045,-47115.27,-84706.92,-49340.79,-13706.775,-18356.67,6358.05,-62516.024999999994,-1.581545529906255,-7.0546558893596485,-9.30041445169648,-5.856925386700544,-4.909979916944037,-3.3366998679416344,18.03147467876026,6.866906968560282,-0.15270957,-0.963315405,0.195128895,-18.14414,-0.51884,8.20988,71.0
1774822468.9901965,2.1219253540039062e-05,2026-03-29T22:14:28.990,2026-03-29T18:14:28.990,-34402.229999999996,-47094.93,-84677.805,-49331.835,-13714.064999999999,-18370.71,6293.385,-62562.78,-9.635389699209892,-14.47680852803608,-15.41535477425687,-12.757973911063068,-11.491772208890781,-9.152907497475477,14.917255018367168,2.2236855655154377,-0.15270957,-0.963315405,0.195128895,-18.14414,-0.51884,8.20988,71.0
1774822468.990214,1.7642974853515625e-05,2026-03-29T22:14:28.990,2026-03-29T18:14:28.990,-34424.595,-47117.655,-84709.53,-49363.29,-13747.59,-18405.765,6230.925,-62591.625,-12.731474833576808,-14.796248902753796,-14.104670618213156,-13.140037317893242,-12.087391386967424,-10.28165240034154,4.060811714012289,-3.3546263704425323,-0.15039024,-0.9699071850000001,0.19384716,-15.39734,-0.6714399999999999,11.12454,71.0
1774822468.9902213,7.152557373046875e-06,2026-03-29T22:14:28.990,2026-03-29T18:14:28.990,-34414.244999999995,-47115.36,-84713.44499999999,-49363.74,-13741.154999999999,-18397.079999999998,6257.385,-62560.799999999996,-9.509505518523662,-7.948088150610818,-6.129813343126988,-7.154210797817832,-6.752683442803076,-6.391796037128842,-9.09302333911729,-7.058298098734855,-0.15039024,-0.9699071850000001,0.19384716,-15.39734,-0.6714399999999999,11.12454,71.0
1774822468.9985816,0.00836038589477539,2026-03-29T22:14:28.998,2026-03-29T18:14:28.998,-34418.88,-47128.905,-84734.37,-49381.515,-13748.175,-18390.105,6302.385,-62552.024999999994,-1.7537610112190614,2.6418946648627157,4.575168704932919,1.9440465701634702,1.5290824194640735,0.37645268680699195,-17.86973582598541,-7.098190753243511,-0.15039024,-0.9699071850000001,0.19384716,-15.39734,-0.6714399999999999,11.12454,71.0
1774822468.9986055,2.384185791015625e-05,2026-03-29T22:14:28.998,2026-03-29T18:14:28.998,-34417.305,-47111.445,-84710.06999999999,-49359.375,-13728.779999999999,-18374.04,6255.585,-62588.159999999996,6.568692199985118,11.768882205166333,12.849433560622105,9.531408123696007,8.468622227264804,6.563153535674167,-17.765680131345192,-3.58727609706062,-0.15039024,-0.9699071850000001,0.19384716,-15.39734,-0.6714399999999999,11.12454,71.0
1774822468.9986255,2.002716064453125e-05,2026-03-29T22:14:28.998,2026-03-29T18:14:28.998,-34396.38,-47088.63,-84689.19,-49334.354999999996,-13699.35,-18349.605,6290.37,-62566.47,11.32867990805246,15.013162645696577,14.806374727949294,11.959935157886651,10.679695229296435,9.15631089180637,-8.744751228701844,1.564285790997555,-0.15039024,-0.9699071850000001,0.19384716,-15.39734,-0.6714399999999999,11.12454,71.0
1774822468.9986312,5.7220458984375e-06,2026-03-29T22:14:28.998,2026-03-29T18:14:28.998,-34389.63,-47080.979999999996,-84672.62999999999,-49312.575,-13677.435,-18328.364999999998,6338.88,-62532.045,10.287978543504257,10.890092073528908,9.671447687124019,8.32089552556686,7.342175203408013,7.0723002125114025,4.736559860398551,5.6720978243110975,-0.15039024,-0.9699071850000001,0.19384716,-15.39734,-0.6714399999999999,11.12454,71.0
1774822469.0067272,0.008095979690551758,2026-03-29T22:14:29.006,2026-03-29T18:14:29.006,-34411.455,-47108.52,-84699.18,-49336.155,-13702.814999999999,-18353.295,6338.61,-62540.865,4.162311442324538,1.5358118242519905,0.08243802064773781,0.7719335159456329,0.49765178239138086,1.6150496746931824,15.977738435185092,6.677787134685231,-0.15039024,-0.9699071850000001,0.19384716,-15.39734,-0.6714399999999999,11.12454,71.0
1774822469.0067487,2.1457672119140625e-05,2026-03-29T22:14:29.006,2026-03-29T18:14:29.006,-34421.805,-47117.25,-84705.56999999999,-49349.34,-13723.154999999999,-18372.465,6328.215,-62557.784999999996,-3.814285466929036,-8.390012095523502,-9.25982424270153,-6.682085656557849,-6.1238929251635845,-4.283894280401243,19.402246652839082,4.196238574253725,-0.15039024,-0.9699071850000001,0.19384716,-15.39734,-0.6714399999999999,11.12454,71.0
1774822469.0067725,2.384185791015625e-05,2026-03-29T22:14:29.006,2026-03-29T18:14:29.006,-34407.72,-47100.015,-84689.73,-49340.88,-13719.465,-18368.73,6312.105,-62559.405,-9.57389726443015,-14.023153800165622,-13.901142865395558,-10.28516525096872,-9.09599589632481,-7.619174228739822,13.334952904908516,-0.3295162091964651,-0.15039024,-0.9699071850000001,0.19384716,-15.39734,-0.6714399999999999,11.12454,71.0
1774822469.0067828,1.0251998901367188e-05,2026-03-29T22:14:29.006,2026-03-29T18:14:29.006,-34408.395,-47104.244999999995,-84699.405,-49345.92,-13717.215,-18369.09,6293.969999999999,-62563.185,-10.2783923285421,-12.680974168780915,-11.7658255347856,-8.415703890759216,-7.056472489500146,-6.842925153153434,0.7990403382960283,-4.433636022043389,-0.15039024,-0.9699071850000001,0.19384716,-15.39734,-0.6714399999999999,11.12454,71.0
1774822469.0221272,0.015344381332397461,2026-03-29T22:14:29.022,2026-03-29T18:14:29.022,-34424.145,-47122.515,-84713.355,-49354.74,-13720.949999999999,-18371.114999999998,6290.82,-62576.325,-5.719335185778525,-5.143549409252054,-4.086355003109472,-2.3169368928468055,-1.3362794005613587,-2.5925730981033297,-12.038217034492233,-5.956187803688092,-0.148009875,-0.98376213,0.18713331,-6.39394,1.1444999999999999,12.08592,71.0
1774822469.0221417,1.4543533325195312e-05,2026-03-29T22:14:29.022,2026-03-29T18:14:29.022,-34420.455,-47120.13,-84713.22,-49353.525,-13721.13,-18372.015,6254.01,-62577.945,1.6365046683054731,4.783241689551973,5.285522187604919,4.65656168154579,4.835712412338992,2.731506686180502,-18.95313436932862,-4.185705666132849,-0.148009875,-0.98376213,0.18713331,-6.39394,1.1444999999999999,12.08592,71.0
1774822469.0221548,1.3113021850585938e-05,2026-03-29T22:14:29.022,2026-03-29T18:14:29.022,-34391.7,-47082.42,-84677.265,-49326.84,-13700.34,-18352.844999999998,6254.91,-62567.189999999995,7.953769861632152,12.182821625401383,11.808485295308646,8.841739675537815,8.099120085279393,6.283551450933268,-16.71774393250141,-0.2094754595158539,-0.148009875,-0.98376213,0.18713331,-6.39394,1.1444999999999999,12.08592,71.0
1774822469.022159,4.291534423828125e-06,2026-03-29T22:14:29.022,2026-03-29T18:14:29.022,-34402.59,-47080.53,-84670.155,-49328.145,-13703.445,-18354.645,6277.094999999999,-62575.155,10.004398324922725,13.458741634012293,12.454907149174584,8.164612975323246,6.7522128248447775,6.274967016719364,-6.603108183252896,3.709134302293091,-0.148009875,-0.98376213,0.18713331,-6.39394,1.1444999999999999,12.08592,71.0
1774822469.022165,5.9604644775390625e-06,2026-03-29T22:14:29.022,2026-03-29T18:14:29.022,-34410.645,-47100.869999999995,-84694.68,-49352.805,-13725.18,-18376.2,6275.34,-62565.345,6.803192119203941,8.080005621991923,7.116657395826979,3.158435806165406,1.6255758176978181,2.874696642275476,6.365710821458964,5.384826256685406,-0.148009875,-0.98376213,0.18713331,-6.39394,1.1444999999999999,12.08592,71.0
1774822469.022169,4.0531158447265625e-06,2026-03-29T22:14:29.022,2026-03-29T18:14:29.022,-34393.32,-47113.155,-84717.72,-49362.255,-13731.57,-18385.2,6253.92,-62547.435,0.07971955643278271,-1.2052318711208845,-1.4394620859249685,-3.3938562964956462,-4.404531406728555,-1.9462903819440553,15.963153287290732,3.9141496831871874,-0.148009875,-0.98376213,0.18713331,-6.39394,1.1444999999999999,12.08592,71.0
1774822469.022174,4.76837158203125e-06,2026-03-29T22:14:29.022,2026-03-29T18:14:29.022,-34403.085,-47112.255,-84721.59,-49343.985,-13713.48,-18370.98,6253.965,-62572.229999999996,-6.638169244792109,-9.768676718033253,-8.99816212371243,-7.9708806711258,-7.986629942905623,-5.517511025454998,17.804383779039245,0.17224671013629436,-0.148009875,-0.98376213,0.18713331,-6.39394,1.1444999999999999,12.08592,71.0
1774822469.022178,4.0531158447265625e-06,2026-03-29T22:14:29.022,2026-03-29T18:14:29.022,-34421.085,-47109.78,-84717.9,-49355.1,-13730.31,-18399.375,6266.295,-62582.49,-9.849192830149581,-13.402197179586974,-11.970429085434054,-8.169230730659386,-7.105503326214944,-5.915319203904366,11.364806858668414,-3.673417449327508,-0.148009875,-0.98376213,0.18713331,-6.39394,1.1444999999999999,12.08592,71.0
1774822469.0304062,0.008228302001953125,2026-03-29T22:14:29.030,2026-03-29T18:14:29.030,-34421.94,-47107.17,-84709.53,-49350.33,-13725.494999999999,-18399.78,6267.285,-62583.615,-7.876826885570322,-10.377504627209607,-9.094971043762978,-3.9385216502069564,-2.172845318012834,-2.9809106686276157,0.03945501292426829,-5.373627100287709,-0.148009875,-0.98376213,0.18713331,-6.39394,1.1444999999999999,12.08592,71.0
1774822469.0304456,3.933906555175781e-05,2026-03-29T22:14:29.030,2026-03-29T18:14:29.030,-34407.765,-47100.15,-84697.605,-49339.439999999995,-13716.945,-18381.105,6232.679999999999,-62580.24,-1.7269004761805848,-2.2597315933528703,-1.9604529273187525,2.430369298128907,4.179000741036147,1.622739362168425,-10.684923879518125,-3.8723317541165594,-0.148009875,-0.98376213,0.18713331,-6.39394,1.1444999999999999,12.08592,71.0
1774822469.0304828,3.719329833984375e-05,2026-03-29T22:14:29.030,2026-03-29T18:14:29.030,-34401.645,-47093.4,-84693.555,-49333.68,-13705.605,-18357.21,6183.945,-62598.104999999996,5.427210872675682,6.904066185148402,5.860038037947129,7.534620003313783,8.491013233608646,5.331411839791503,-15.948806262523506,0.06154515841625362,-0.153869235,-0.990170805,0.18859815,-2.09062,2.53316,13.06256,71.0
1774822469.030502,1.9311904907226562e-05,2026-03-29T22:14:29.030,2026-03-29T18:14:29.030,-34369.965,-47050.47,-84647.745,-49290.615,-13666.32,-18323.235,6219.405,-62592.704999999994,9.866834268947217,12.59940422014586,10.594862246868217,8.65065314543599,8.324667515553827,6.0758448682317265,-13.756423784377654,4.21360940030261,-0.153869235,-0.990170805,0.18859815,-2.09062,2.53316,13.06256,71.0
1774822469.039144,0.008641958236694336,2026-03-29T22:14:29.039,2026-03-29T18:14:29.039,-34360.695,-47058.615,-84669.93,-49319.415,-13700.744999999999,-18363.465,6281.325,-62529.93,9.233220622158356,12.059084663207045,10.087658048108537,5.153388087671622,3.5883123016578535,3.4043499678043943,-5.6839044102281076,6.13321368941619,-0.153869235,-0.990170805,0.18859815,-2.09062,2.53316,13.06256,71.0
1774822469.0391624,1.8358230590820312e-05,2026-03-29T22:14:29.039,2026-03-29T18:14:29.039,-34385.13,-47072.655,-84666.915,-49320.54,-13697.82,-18356.805,6352.514999999999,-62503.244999999995,3.7493464798356833,5.594425088892549,4.768199985778719,-1.1645313003309465,-3.361373956163877,-1.2665216074848011,4.162430977834882,4.525357737031963,-0.153869235,-0.990170805,0.18859815,-2.09062,2.53316,13.06256,71.0
1774822469.0391812,1.8835067749023438e-05,2026-03-29T22:14:29.039,2026-03-29T18:14:29.039,-34416.9,-47112.525,-84712.00499999999,-49353.345,-13719.824999999999,-18368.19,6354.675,-62526.869999999995,-3.863251367407903,-3.5920610571603446,-2.6512397683769064,-7.026283218785575,-8.909150098052502,-5.4053827720648115,11.284914427491339,0.05414191843688472,-0.153869235,-0.990170805,0.18859815,-2.09062,2.53316,13.06256,71.0
1774822469.0391877,6.4373016357421875e-06,2026-03-29T22:14:29.039,2026-03-29T18:14:29.039,-34427.07,-47133.63,-84738.015,-49368.195,-13725.494999999999,-18368.594999999998,6308.955,-62547.21,-9.737359367374015,-10.998254805233534,-8.557246786488724,-9.365554061010444,-10.054475990122937,-6.722013382623636,12.897911242475583,-4.917387239411062,-0.153869235,-0.990170805,0.18859815,-2.09062,2.53316,13.06256,71.0
1774822469.0490408,0.009853124618530273,2026-03-29T22:14:29.049,2026-03-29T18:14:29.049,-34401.015,-47120.265,-84730.455,-49363.74,-13726.935,-18378.27,6280.469999999999,-62532.99,-10.808435048820474,-13.024241157017657,-10.19054464804685,-6.90722652216726,-5.999832499062,-4.405101748151019,8.989420020349614,-7.557560932724045,-0.153869235,-0.990170805,0.18859815,-2.09062,2.53316,13.06256,71.0
1774822469.0490606,1.9788742065429688e-05,2026-03-29T22:14:29.049,2026-03-29T18:14:29.049,-34401.96,-47114.82,-84715.92,-49339.305,-13700.475,-18357.795,6304.905,-62547.615,-6.38227865580608,-8.70837885757173,-6.923503204752786,-0.8271231002333299,1.374923946945545,0.4171626124431967,1.95250046957705,-6.13263839691593,-0.153869235,-0.990170805,0.18859815,-2.09062,2.53316,13.06256,71.0
1774822469.0490794,1.8835067749023438e-05,2026-03-29T22:14:29.049,2026-03-29T18:14:29.049,-34413.299999999996,-47114.145,-84714.61499999999,-49333.005,-13689.765,-18353.925,6284.835,-62568.045,1.468727290788715,-0.1656580470655335,-0.4735463647432871,5.838638082839905,8.41307121979046,5.243221073971714,-4.851513600209565,-1.05939903443851,-0.153869235,-0.990170805,0.18859815,-2.09062,2.53316,13.06256,71.0
1774822469.0490863,6.9141387939453125e-06,2026-03-29T22:14:29.049,2026-03-29T18:14:29.049,-34392.825,-47089.619999999995,-84707.91,-49338.0,-13700.43,-18368.055,6259.23,-62553.555,8.891448257826122,8.463015669990787,6.001796544318563,9.726460980794705,11.512253557330569,7.499935801666338,-8.751607584374076,5.167224439352427,-0.153869235,-0.990170805,0.18859815,-2.09062,2.53316,13.06256,71.0
1774822469.0569324,0.00784611701965332,2026-03-29T22:14:29.056,2026-03-29T18:14:29.056,-34397.909999999996,-47089.125,-84715.065,-49356.09,-13711.32,-18365.895,6292.844999999999,-62545.005,12.143699756932275,13.022230031515317,9.450385133185964,8.839537838279862,8.961741100408108,5.900777995205694,-8.806944001552099,9.198481975932983,-0.154479585,-0.9840673050000001,0.19226025,-6.76018,3.052,15.244739999999998,71.0
1774822469.056965,3.266334533691406e-05,2026-03-29T22:14:29.056,2026-03-29T18:14:29.056,-34412.58,-47099.744999999995,-84706.965,-49360.59,-13721.715,-18373.14,6293.115,-62561.43,9.462155309577481,11.334604630226275,8.354373125088665,3.5508065795394343,1.8506594798708724,1.1482512104501996,-5.828026562847653,8.607927690077426,-0.154479585,-0.9840673050000001,0.19226025,-6.76018,3.052,15.244739999999998,71.0
1774822469.0569952,3.0040740966796875e-05,2026-03-29T22:14:29.056,2026-03-29T18:14:29.056,-34410.465,-47105.685,-84697.11,-49362.119999999995,-13743.045,-18397.125,6267.42,-62554.049999999996,1.9808819812783591,4.222192907118564,3.3776265369556175,-3.580984485276119,-6.4228355991368415,-4.39265686470514,-1.5708116933710847,3.286089937869678,-0.154479585,-0.9840673050000001,0.19226025,-6.76018,3.052,15.244739999999998,71.0
1774822469.0570068,1.1682510375976562e-05,2026-03-29T22:14:29.057,2026-03-29T18:14:29.057,-34452.405,-47146.409999999996,-84742.065,-49402.89,-13778.189999999999,-18430.785,6228.45,-62609.67,-6.764852233367035,-4.914315953484293,-3.0334113921409065,-9.078734374942462,-11.807476922462385,-7.889517450005859,2.3010143158523344,-4.325317202450255,-0.154479585,-0.9840673050000001,0.19226025,-6.76018,3.052,15.244739999999998,71.0
1774822469.057021,1.4066696166992188e-05,2026-03-29T22:14:29.057,2026-03-29T18:14:29.057,-34433.235,-47122.604999999996,-84719.97,-49379.4,-13750.47,-18402.975,6223.455,-62634.465,-12.523761808561412,-11.73500705511962,-7.858476679983237,-10.25801553101282,-11.599343407746948,-7.494589681144191,4.877197446387915,-10.357385731716803,-0.154479585,-0.9840673050000001,0.19226025,-6.76018,3.052,15.244739999999998,71.0
1774822469.0570316,1.0728836059570312e-05,2026-03-29T22:14:29.057,2026-03-29T18:14:29.057,-34395.795,-47081.97,-84676.635,-49315.049999999996,-13671.81,-18323.594999999998,6286.905,-62584.515,-12.392879005225774,-13.02232545823239,-8.921684823006885,-6.533115126620362,-5.792051136855837,-3.307645023671336,6.016434757506647,-11.477050870799022,-0.154479585,-0.9840673050000001,0.19226025,-6.76018,3.052,15.244739999999998,71.0
1774822469.0724225,0.015390872955322266,2026-03-29T22:14:29.072,2026-03-29T18:14:29.072,-34384.455,-47085.03,-84682.53,-49318.29,-13670.279999999999,-18316.17,6332.445,-62522.28,-6.25921270879971,-8.185252968564475,-5.855175074332384,0.3154788396891775,2.8947059928014474,2.647329000724471,5.899371309897465,-6.693720175257752,-0.154479585,-0.9840673050000001,0.19226025,-6.76018,3.052,15.244739999999998,71.0
1774822469.0724545,3.1948089599609375e-05,2026-03-29T22:14:29.072,2026-03-29T18:14:29.072,-34404.119999999995,-47106.27,-84699.495,-49337.505,-13689.99,-18332.505,6379.2,-62517.42,3.0890234836616015,0.4910224245145364,-0.19039951411591963,7.024166289319671,10.323471385991668,7.424218190357201,4.578659609603194,1.957286665757845,-0.154479585,-0.9840673050000001,0.19226025,-6.76018,3.052,15.244739999999998,71.0
1774822469.0724835,2.9087066650390625e-05,2026-03-29T22:14:29.072,2026-03-29T18:14:29.072,-34417.44,-47124.72,-84726.405,-49358.52,-13711.23,-18356.94,6353.325,-62530.155,11.251080867805834,8.944401350607267,5.418258402013668,10.428796456612526,12.939869748902904,8.629399538004572,1.9234285810138383,10.279692845657186,-0.154479585,-0.9840673050000001,0.19226025,-6.76018,3.052,15.244739999999998,71.0
1774822469.0724952,1.1682510375976562e-05,2026-03-29T22:14:29.072,2026-03-29T18:14:29.072,-34411.77,-47115.27,-84716.73,-49352.085,-13709.16,-18360.809999999998,6316.65,-62536.59,14.297108961380616,13.24682489978368,8.439434521295185,8.968001487264393,9.485767284239525,5.62371717476818,-1.9881713285419347,13.962943439107326,-0.154479585,-0.9840673050000001,0.19226025,-6.76018,3.052,15.244739999999998,71.0
1774822469.0725107,1.5497207641601562e-05,2026-03-29T22:14:29.072,2026-03-29T18:14:29.072,-34399.17,-47097.18,-84693.78,-49336.064999999995,-13698.99,-18352.44,6314.4,-62537.895,10.655003303493768,11.424044532962101,7.594653425538045,3.388762604507783,1.5940916786200692,-0.1527471466331868,-6.361964255328008,10.806854578978408,-0.158507895,-0.99023184,0.19067334,-8.78976,1.09872,15.366819999999999,71.0
1774822469.0725217,1.0967254638671875e-05,2026-03-29T22:14:29.072,2026-03-29T18:14:29.072,-34404.93,-47104.604999999996,-84704.31,-49352.49,-13717.664999999999,-18367.29,6304.724999999999,-62543.835,1.8969000169420198,4.343986735310707,3.374459087782635,-3.659119513672078,-7.011133335948672,-5.892609090724414,-9.561561363878255,1.9783539392735658,-0.158507895,-0.99023184,0.19067334,-8.78976,1.09872,15.366819999999999,71.0
1774822469.0725353,1.3589859008789062e-05,2026-03-29T22:14:29.072,2026-03-29T18:14:29.072,-34417.35,-47117.744999999995,-84724.65,-49369.59,-13731.3,-18381.735,6289.2,-62563.634999999995,-7.958955492452922,-4.717510197113624,-2.253337051216528,-8.91169761027352,-12.305736352685152,-8.808325585884482,-9.66368032457111,-8.397937658537561,-0.158507895,-0.99023184,0.19067334,-8.78976,1.09872,15.366819999999999,71.0
1774822469.072546,1.0728836059570312e-05,2026-03-29T22:14:29.072,2026-03-29T18:14:29.072,-34427.295,-47127.509999999995,-84733.37999999999,-49374.854999999996,-13734.539999999999,-18386.37,6290.1449999999995,-62573.805,-14.311639824474769,-11.607965523058997,-6.769651947858387,-10.023665140291582,-11.871978218333767,-7.499630077605714,-5.5418943183702885,-15.18489676899271,-0.158507895,-0.99023184,0.19067334,-8.78976,1.09872,15.366819999999999,71.0
1774822469.0817983,0.009252309799194336,2026-03-29T22:14:29.081,2026-03-29T18:14:29.081,-34427.835,-47124.63,-84728.16,-49370.04,-13732.244999999999,-18387.18,6267.599999999999,-62580.869999999995,-14.133708535531312,-13.204302757382811,-8.225325676336269,-6.616918463390005,-6.007501745503223,-2.6250175475587354,2.1102414332501405,-14.787962972183662,-0.158507895,-0.99023184,0.19067334,-8.78976,1.09872,15.366819999999999,71.0
1774822469.0818276,2.9325485229492188e-05,2026-03-29T22:14:29.081,2026-03-29T18:14:29.081,-34402.229999999996,-47098.799999999996,-84703.00499999999,-49345.424999999996,-13707.449999999999,-18366.48,6264.2699999999995,-62562.104999999996,-7.406363778905426,-8.818093829625315,-6.062476431808019,-0.3766596939929015,2.4731363746352883,3.4437195190057275,10.528231256305169,-7.043372550933586,-0.158507895,-0.99023184,0.19067334,-8.78976,1.09872,15.366819999999999,71.0
1774822469.081856,2.8371810913085938e-05,2026-03-29T22:14:29.081,2026-03-29T18:14:29.081,-34373.61,-47072.384999999995,-84679.37999999999,-49320.27,-13679.369999999999,-18337.995,6316.605,-62523.72,2.8434283654816497,-0.47316935212938815,-1.3010978102843282,5.804910279539355,9.616370867267301,7.796968693955018,15.78751589817586,4.547111762325773,-0.158507895,-0.99023184,0.19067334,-8.78976,1.09872,15.366819999999999,71.0
1774822469.081868,1.1920928955078125e-05,2026-03-29T22:14:29.081,2026-03-29T18:14:29.081,-34385.31,-47088.99,-84700.08,-49342.814999999995,-13699.439999999999,-18354.6,6335.054999999999,-62522.595,11.926385396059707,8.045913653341362,3.953921380350926,9.19381257919088,12.201363067456159,8.401218351573982,14.630948355606504,14.417708676088276,-0.158507895,-0.99023184,0.19067334,-8.78976,1.09872,15.366819999999999,71.0
1774822469.0888736,0.0070056915283203125,2026-03-29T22:14:29.088,2026-03-29T18:14:29.088,-34400.34,-47109.015,-84721.815,-49363.155,-13721.939999999999,-18380.07,6312.96,-62531.189999999995,15.653401235233012,12.919976709598956,7.442618850553719,8.434104201518911,9.207900870788498,5.056665873111923,6.361127470923684,17.63537777056031,-0.158507895,-0.99023184,0.19067334,-8.78976,1.09872,15.366819999999999,71.0
1774822469.0888968,2.3126602172851562e-05,2026-03-29T22:14:29.088,2026-03-29T18:14:29.088,-34421.85,-47119.049999999996,-84722.76,-49362.795,-13727.564999999999,-18393.614999999998,6254.1449999999995,-62569.53,12.272887567523338,12.005229275923833,7.7074156082719805,4.07456152062848,2.2057901821029273,-0.5549888448336265,-6.262557710634446,12.373941390944546,-0.158507895,-0.99023184,0.19067334,-8.78976,1.09872,15.366819999999999,71.0
1774822469.0982254,0.009328603744506836,2026-03-29T22:14:29.098,2026-03-29T18:14:29.098,-34420.229999999996,-47113.47,-84726.495,-49362.57,-13724.775,-18394.29,6211.71,-62586.134999999995,3.285138319836233,5.763610962341285,4.681249332701262,-1.7920833240214318,-5.474005823534876,-5.729353966022463,-17.80985455953183,0.9200362749485912,-0.16058308500000001,-1.004086785,0.195495105,-1.43444,1.6633399999999998,14.69538,71.0
1774822469.0982563,3.0994415283203125e-05,2026-03-29T22:14:29.098,2026-03-29T18:14:29.098,-34388.415,-47084.715,-84702.465,-49340.79,-13704.345,-18379.215,6219.9,-62563.905,-7.2411054903518375,-2.9836179685963287,-0.31902657661509537,-6.553302738368161,-10.34716176853356,-8.060802373694173,-22.513925763527553,-11.332837962151347,-0.16058308500000001,-1.004086785,0.195495105,-1.43444,1.6633399999999998,14.69538,71.0
1774822469.0982862,2.9802322387695312e-05,2026-03-29T22:14:29.098,2026-03-29T18:14:29.098,-34389.045,-47071.89,-84671.81999999999,-49315.814999999995,-13684.545,-18362.16,6250.545,-62574.884999999995,-14.53092119773644,-10.343823994135969,-5.168613374324419,-8.25591463409792,-10.37766585877202,-6.573551910394017,-17.150956632924505,-18.453791850034367,-0.16058308500000001,-1.004086785,0.195495105,-1.43444,1.6633399999999998,14.69538,71.0
1774822469.0982988,1.2636184692382812e-05,2026-03-29T22:14:29.098,2026-03-29T18:14:29.098,-34405.83,-47082.015,-84666.645,-49313.564999999995,-13684.275,-18361.98,6269.67,-62584.829999999994,-15.283580882405902,-13.089880866987833,-7.828064614474651,-6.402323212479522,-5.829314274634441,-2.125885796969337,-3.0246142616288063,-16.869641244476632,-0.16058308500000001,-1.004086785,0.195495105,-1.43444,1.6633399999999998,14.69538,71.0
1774822469.098313,1.430511474609375e-05,2026-03-29T22:14:29.098,2026-03-29T18:14:29.098,-34424.415,-47096.28,-84681.27,-49333.814999999995,-13703.805,-18385.515,6244.335,-62618.805,-9.169715405547205,-10.070176436453352,-7.184881686317021,-2.0436968890678373,0.9876777596051974,3.0763906831964136,14.099775337023345,-7.160918084931782,-0.16058308500000001,-1.004086785,0.195495105,-1.43444,1.6633399999999998,14.69538,71.0
1774822469.098324,1.0967254638671875e-05,2026-03-29T22:14:29.098,2026-03-29T18:14:29.098,-34429.095,-47109.42,-84708.0,-49353.705,-13723.785,-18401.715,6227.775,-62637.03,1.0346379644723347,-2.678953626929188,-3.5055740635668804,2.806928502306582,6.894209547751276,6.58475103320391,26.33056997896954,6.146203505899675,-0.16058308500000001,-1.004086785,0.195495105,-1.43444,1.6633399999999998,14.69538,71.0
1774822469.1071055,0.00878143310546875,2026-03-29T22:14:29.107,2026-03-29T18:14:29.107,-34408.26,-47106.945,-84728.52,-49354.65,-13720.005,-18393.344999999998,6224.175,-62607.869999999995,10.726646458378204,5.798537534031417,1.6785169130122255,6.118639091738483,9.34278831098603,6.87345956212888,27.31847966881903,16.71991584555801,-0.16058308500000001,-1.004086785,0.195495105,-1.43444,1.6633399999999998,14.69538,71.0
1774822469.107126,2.0503997802734375e-05,2026-03-29T22:14:29.107,2026-03-29T18:14:29.107,-34347.51,-47051.729999999996,-84665.11499999999,-49311.54,-13689.09,-18365.219999999998,6254.235,-62516.79,15.57163792149226,11.654720892113295,6.20198178419466,6.696232690615569,7.526412650219395,4.006170750756459,15.536772990372937,19.469084452599,-0.16058308500000001,-1.004086785,0.195495105,-1.43444,1.6633399999999998,14.69538,71.0
1774822469.1071455,1.9550323486328125e-05,2026-03-29T22:14:29.107,2026-03-29T18:14:29.107,-34352.055,-47057.895,-84668.895,-49311.54,-13680.359999999999,-18354.87,6337.125,-62478.36,13.45324536698044,12.383106907287905,8.158035788735203,4.58493032856568,2.610243479010185,-0.48772891924007844,-4.518170487802598,13.014558451265856,-0.16058308500000001,-1.004086785,0.195495105,-1.43444,1.6633399999999998,14.69538,71.0
1774822469.1071525,6.9141387939453125e-06,2026-03-29T22:14:29.107,2026-03-29T18:14:29.107,-34396.02,-47095.064999999995,-84711.78,-49345.515,-13705.605,-18370.44,6337.08,-62524.259999999995,5.396753180884019,7.745843695983008,6.692646071992873,0.9061678714303174,-2.957500823785984,-4.4234449405173235,-23.994867634580903,0.3760968249481829,-0.16058308500000001,-1.004086785,0.195495105,-1.43444,1.6633399999999998,14.69538,71.0
1774822469.115664,0.008511543273925781,2026-03-29T22:14:29.115,2026-03-29T18:14:29.115,-34403.94,-47099.79,-84715.065,-49365.494999999995,-13726.98,-18367.469999999998,6286.86,-62555.939999999995,-4.936436371549123,-0.1663220872871167,2.3746325010367784,-2.7330147502547693,-6.666346225121369,-6.030614200803259,-33.632359489778054,-12.465963719121719,-0.15539511,-1.005551625,0.200377905,2.5484199999999997,1.49548,15.74832,71.0
1774822469.115694,3.0040740966796875e-05,2026-03-29T22:14:29.115,2026-03-29T18:14:29.115,-34413.975,-47102.939999999995,-84697.515,-49351.32,-13715.279999999999,-18325.35,6311.835,-62550.314999999995,-12.930737285216578,-7.88502013832738,-3.0182105473845664,-4.949115815825936,-7.087666934953941,-4.756215483916485,-28.205443819584286,-19.437641022270295,-0.15539511,-1.005551625,0.200377905,2.5484199999999997,1.49548,15.74832,71.0
1774822469.1157267,3.266334533691406e-05,2026-03-29T22:14:29.115,2026-03-29T18:14:29.115,-34433.64,-47130.479999999996,-84727.17,-49360.634999999995,-13722.48,-18337.23,6366.554999999999,-62547.479999999996,-15.094751617648923,-12.091084289329388,-7.222019385320739,-5.095339076962004,-4.4169694993672906,-1.4346017288215411,-9.31497490444464,-17.275179457060858,-0.15539511,-1.005551625,0.200377905,2.5484199999999997,1.49548,15.74832,71.0
1774822469.1157413,1.4543533325195312e-05,2026-03-29T22:14:29.115,2026-03-29T18:14:29.115,-34440.119999999995,-47152.755,-84770.685,-49387.275,-13732.92,-18381.78,6347.565,-62549.009999999995,-10.593258470202398,-11.043306503284523,-8.431120321626587,-3.3969896102754036,-0.21433949294857566,2.2138129836270757,14.953447507534094,-7.062679644574082,-0.15539511,-1.005551625,0.200377905,2.5484199999999997,1.49548,15.74832,71.0
1774822469.122333,0.006591796875,2026-03-29T22:14:29.122,2026-03-29T18:14:29.122,-34430.22,-47145.24,-84770.01,-49377.24,-13704.93,-18382.184999999998,6326.325,-62540.145,-1.5577162168834422,-5.294077561764389,-6.073588942781307,-0.7187573991739961,3.4620969100851857,4.467960899513416,33.52377691499826,6.326074623421494,-0.15539511,-1.005551625,0.200377905,2.5484199999999997,1.49548,15.74832,71.0
1774822469.1223648,3.170967102050781e-05,2026-03-29T22:14:29.122,2026-03-29T18:14:29.122,-34393.365,-47105.775,-84719.655,-49345.92,-13698.494999999999,-18377.64,6294.0599999999995,-62512.649999999994,7.93342195991795,2.5997454422495183,-1.0845333566431345,1.8719936439593927,5.063879787657082,4.422499374731895,37.4505465798942,16.588649063705056,-0.15539511,-1.005551625,0.200377905,2.5484199999999997,1.49548,15.74832,71.0
1774822469.131759,0.009394168853759766,2026-03-29T22:14:29.131,2026-03-29T18:14:29.131,-34372.305,-47076.57,-84694.95,-49341.509999999995,-13705.019999999999,-18377.82,6265.08,-62523.99,13.7127398875623,9.221280417850041,4.455999914183847,3.5280699498647086,4.209015305444886,2.346850615028245,24.267051280587882,18.998066027969745,-0.15539511,-1.005551625,0.200377905,2.5484199999999997,1.49548,15.74832,71.0
1774822469.1317823,2.3365020751953125e-05,2026-03-29T22:14:29.131,2026-03-29T18:14:29.131,-34384.545,-47075.895,-84702.645,-49348.17,-13702.41,-18367.92,6291.315,-62549.189999999995,13.36660337404167,11.7788530667834,8.186589201478112,3.8668260457879637,1.7086939577897857,-0.5519060039833469,-0.5727227610323148,12.60027176266626,-0.15539511,-1.005551625,0.200377905,2.5484199999999997,1.49548,15.74832,71.0
1774822469.1317997,1.7404556274414062e-05,2026-03-29T22:14:29.131,2026-03-29T18:14:29.131,-34402.455,-47075.715,-84679.73999999999,-49326.75,-13682.07,-18348.39,6335.55,-62549.954999999994,7.242381578715314,9.284309070920793,8.473752625638934,2.986454166443612,-0.9842153355534908,-2.8004785379674852,-25.969149938757592,0.5733151394270559,-0.15539511,-1.005551625,0.200377905,2.5484199999999997,1.49548,15.74832,71.0
1774822469.131807,7.3909759521484375e-06,2026-03-29T22:14:29.131,2026-03-29T18:14:29.131,-34405.92,-47089.35,-84682.53,-49336.244999999995,-13701.24,-18370.44,6318.945,-62530.965,-1.7992818937031658,2.9266407130826435,5.134164718008747,1.314540765534023,-2.5742229123497435,-3.4022263669550745,-40.21138832214594,-11.375968144618193,-0.15539511,-1.005551625,0.200377905,2.5484199999999997,1.49548,15.74832,71.0
1774822469.131816,8.821487426757812e-06,2026-03-29T22:14:29.131,2026-03-29T18:14:29.131,-34417.935,-47122.784999999996,-84723.56999999999,-49360.68,-13721.58,-18389.295,6287.13,-62543.43,-9.73172704081218,-4.496436183664054,-0.45376160723844144,-0.5975539421877943,-2.5460088449603306,-2.2796590893754147,-36.45211690830044,-17.758437041854965,-0.15722616,-1.001279175,0.204284145,5.58516,-0.57988,15.8704,71.0
1774822469.1318233,7.3909759521484375e-06,2026-03-29T22:14:29.131,2026-03-29T18:14:29.131,-34408.979999999996,-47117.07,-84729.15,-49352.715,-13700.115,-18367.649999999998,6304.635,-62542.35,-13.169990297421304,-9.817254305783115,-5.915744190268021,-2.237717503331381,-1.3129500929396238,-0.22060306075644295,-16.027033527617462,-15.852465377322927,-0.15722616,-1.001279175,0.204284145,5.58516,-0.57988,15.8704,71.0
1774822469.1488209,0.016997575759887695,2026-03-29T22:14:29.148,2026-03-29T18:14:29.148,-34407.225,-47110.5,-84727.665,-49346.325,-13687.965,-18353.16,6334.605,-62541.45,-10.821304470201891,-10.856077672965503,-8.895247683208288,-3.217586601672858,0.1393484380591719,1.6059969858296765,12.005187352113062,-6.858754196984371,-0.15722616,-1.001279175,0.204284145,5.58516,-0.57988,15.8704,71.0
1774822469.1488569,3.600120544433594e-05,2026-03-29T22:14:29.148,2026-03-29T18:14:29.148,-34415.145,-47113.965,-84731.12999999999,-49353.255,-13703.49,-18379.079999999998,6291.405,-62556.39,-3.9546100309782424,-7.313572218981851,-8.080075578409234,-3.302495419036089,0.8804574203648302,2.2864810028531113,34.95283708652421,4.826720181649727,-0.15722616,-1.001279175,0.204284145,5.58516,-0.57988,15.8704,71.0
1774822469.1488917,3.4809112548828125e-05,2026-03-29T22:14:29.148,2026-03-29T18:14:29.148,-34414.74,-47113.784999999996,-84737.565,-49376.88,-13737.51,-18417.645,6224.264999999999,-62562.015,4.271747701618068,-0.8326890738710437,-3.7895310046173507,-2.4332777817193687,0.5722190406862832,1.61415441284865,42.33047153492377,13.793414939407779,-0.15722616,-1.001279175,0.204284145,5.58516,-0.57988,15.8704,71.0
1774822469.1489103,1.8596649169921875e-05,2026-03-29T22:14:29.148,2026-03-29T18:14:29.148,-34418.565,-47116.35,-84730.23,-49384.485,-13747.14,-18421.425,6229.17,-62565.119999999995,10.272739286339993,5.766504119180186,2.145778546338636,-0.7632724720810574,-0.37637900594334744,0.13532981080309509,30.71637881724275,16.15441890866695,-0.15722616,-1.001279175,0.204284145,5.58516,-0.57988,15.8704,71.0
1774822469.148933,2.2649765014648438e-05,2026-03-29T22:14:29.148,2026-03-29T18:14:29.148,-34411.409999999996,-47089.799999999996,-84678.795,-49341.33,-13714.335,-18388.98,6240.15,-62600.085,11.60810569226679,9.72183244877094,7.16989225032837,1.3122663175054132,-1.1067490988113602,-1.2082506176217522,5.3448495184500295,11.235402831637794,-0.15722616,-1.001279175,0.204284145,5.58516,-0.57988,15.8704,71.0
1774822469.1489513,1.8358230590820312e-05,2026-03-29T22:14:29.148,2026-03-29T18:14:29.148,-34396.965,-47082.689999999995,-84696.12,-49332.465,-13697.279999999999,-18388.575,6145.29,-62643.015,7.970131417314867,9.489926693359143,9.113905332258255,3.1891544623127337,-0.8780800185130814,-1.6277659995868825,-22.312674139809335,1.6784601477576884,-0.15722616,-1.001279175,0.204284145,5.58516,-0.57988,15.8704,71.0
1774822469.148972,2.0742416381835938e-05,2026-03-29T22:14:29.148,2026-03-29T18:14:29.148,-34422.57,-47125.439999999995,-84760.33499999999,-49377.465,-13736.475,-18433.665,6079.41,-62637.03,1.1911163206579278,5.343180579405837,7.145062759525205,4.193903099280093,0.4273587245596193,-0.9228895155363614,-39.83311285842549,-7.982512321844292,-0.15722616,-1.001279175,0.204284145,5.58516,-0.57988,15.8704,71.0
1774822469.1489892,1.71661376953125e-05,2026-03-29T22:14:29.148,2026-03-29T18:14:29.148,-34448.13,-47132.46,-84738.42,-49363.244999999995,-13720.68,-18413.46,6162.344999999999,-62595.045,-5.6730738753316725,-0.8255067945180804,2.1306812320478383,3.8196783968974675,2.160226250831907,0.4270288493010784,-39.51202899148919,-13.505056499524574,-0.15722616,-1.001279175,0.204284145,5.58516,-0.57988,15.8704,71.0
1774822469.2059755,0.056986331939697266,2026-03-29T22:14:29.205,2026-03-29T18:14:29.205,-34425.585,-47098.034999999996,-84691.215,-49338.54,-13710.914999999999,-18389.475,6250.995,-62568.54,-9.727183759442019,-6.3709083898752,-3.746231139850321,1.9778635991421079,3.223357762551621,1.5558014276663747,-21.78627985077666,-12.81343581863237,-0.15331992,-0.988583895,0.213195255,1.2818399999999999,-1.51074,12.253779999999999,71.0
1774822469.2060032,2.765655517578125e-05,2026-03-29T22:14:29.206,2026-03-29T18:14:29.206,-34408.08,-47097.765,-84719.16,-49365.54,-13733.369999999999,-18406.575,6305.355,-62576.64,-9.458891719683493,-9.037027660284311,-7.948782666312442,-0.8587698708948782,2.6980695260100473,1.7185196329936336,5.130273566066915,-6.730851013096431,-0.15331992,-0.988583895,0.213195255,1.2818399999999999,-1.51074,12.253779999999999,71.0
1774822469.2060325,2.9325485229492188e-05,2026-03-29T22:14:29.206,2026-03-29T18:14:29.206,-34397.505,-47103.435,-84723.56999999999,-49353.659999999996,-13706.055,-18365.625,6407.6849999999995,-62527.59,-5.283742742938033,-7.876587818473808,-8.696590998502565,-3.727532755948453,0.4395427995225028,0.7314710100748739,29.141825898555958,1.659980514038078,-0.15331992,-0.988583895,0.213195255,1.2818399999999999,-1.51074,12.253779999999999,71.0
1774822469.2060442,1.1682510375976562e-05,2026-03-29T22:14:29.206,2026-03-29T18:14:29.206,-34385.805,-47089.619999999995,-84693.915,-49317.479999999996,-13668.975,-18327.329999999998,6439.679999999999,-62472.689999999995,0.7720752967640887,-3.573212481819308,-5.731461824611687,-5.485621778850161,-2.7023761993894766,-0.9012232634327139,39.80941599874636,8.59810443236718,-0.15331992,-0.988583895,0.213195255,1.2818399999999999,-1.51074,12.253779999999999,71.0
1774822469.2060585,1.430511474609375e-05,2026-03-29T22:14:29.206,2026-03-29T18:14:29.206,-34352.64,-47060.189999999995,-84670.69499999999,-49299.435,-13655.43,-18324.945,6413.13,-62450.729999999996,6.049637101543605,1.9355309847024247,-0.40318784701536353,-5.26682335018192,-5.199970882185442,-2.2491352660739703,32.947273183789555,11.348045499462213,-0.15331992,-0.988583895,0.213195255,1.2818399999999999,-1.51074,12.253779999999999,71.0
1774822469.2060695,1.0967254638671875e-05,2026-03-29T22:14:29.206,2026-03-29T18:14:29.206,-34363.935,-47071.08,-84688.37999999999,-49316.715,-13663.529999999999,-18324.719999999998,6402.509999999999,-62470.71,8.425896431334031,6.334863259211971,4.951939521783472,-2.901355154188109,-5.584978762592349,-2.4686685474858128,12.222725841428494,9.245146978914942,-0.15331992,-0.988583895,0.213195255,1.2818399999999999,-1.51074,12.253779999999999,71.0
1774822469.2060833,1.3828277587890625e-05,2026-03-29T22:14:29.206,2026-03-29T18:14:29.206,-34411.545,-47118.195,-84732.885,-49360.994999999995,-13700.789999999999,-18357.57,6313.815,-62527.77,7.159731564256931,7.91124197903244,8.051074141550192,0.902491415856821,-3.2522223578478004,-1.291020855138238,-12.828635826147798,3.7027407203973897,-0.15331992,-0.988583895,0.213195255,1.2818399999999999,-1.51074,12.253779999999999,71.0
1774822469.2060935,1.0251998901367188e-05,2026-03-29T22:14:29.206,2026-03-29T18:14:29.206,-34419.735,-47118.869999999995,-84738.23999999999,-49352.445,-13691.295,-18361.305,6213.15,-62576.505,3.0837394163725205,6.21687882018502,7.653423946965718,4.737976218954987,1.0921865460023539,0.785241507080537,-31.29174171500928,-2.6715857537998473,-0.15331992,-0.988583895,0.213195255,1.2818399999999999,-1.51074,12.253779999999999,71.0
1774822469.206107,1.33514404296875e-05,2026-03-29T22:14:29.206,2026-03-29T18:14:29.206,-34401.69,-47094.84,-84713.805,-49340.25,-13698.72,-18379.665,6135.974999999999,-62579.97,-1.8818026954711573,2.1643094348030942,4.062017059344899,7.014022460089415,5.611961879753083,2.714989994096922,-35.70447080967324,-7.320870832452963,-0.15331992,-0.988583895,0.213195255,1.2818399999999999,-1.51074,12.253779999999999,71.0
1774822469.206117,1.0013580322265625e-05,2026-03-29T22:14:29.206,2026-03-29T18:14:29.206,-34393.86,-47079.27,-84689.81999999999,-49328.28,-13701.42,-18392.355,6128.91,-62580.015,-5.626217372309478,-2.447741882970381,-1.0673185102816418,6.618385533698479,8.123959886859819,3.4390881582976403,-25.0551677283764,-8.74165489701937,-0.15331992,-0.988583895,0.213195255,1.2818399999999999,-1.51074,12.253779999999999,71.0
1774822469.20613,1.3113021850585938e-05,2026-03-29T22:14:29.206,2026-03-29T18:14:29.206,-34430.265,-47124.945,-84734.235,-49370.4,-13731.93,-18405.09,6228.36,-62573.354999999996,-6.741103568476298,-5.737281876040346,-5.499923123839745,3.451705981856857,7.146037116692997,2.455429096359896,-4.750327424750995,-6.864843499204461,-0.144469845,-0.97375239,0.213317325,-1.25132,-1.1444999999999999,11.71968,71.0
1774822469.2061405,1.049041748046875e-05,2026-03-29T22:14:29.206,2026-03-29T18:14:29.206,-34441.335,-47136.96,-84741.84,-49373.145,-13721.175,-18372.78,6354.179999999999,-62566.244999999995,-5.034424988001121,-6.5110897360628925,-7.413409503721182,-1.4208852777018603,2.708415547524736,0.12407130634150082,16.18689552469546,-2.7938011281889947,-0.144469845,-0.97375239,0.213317325,-1.25132,-1.1444999999999999,11.71968,71.0
1774822469.2061534,1.2874603271484375e-05,2026-03-29T22:14:29.206,2026-03-29T18:14:29.206,-34406.46,-47117.79,-84738.87,-49365.945,-13705.515,-18345.285,6449.445,-62516.52,-1.4881372303565876,-4.687778240299992,-6.158526625581686,-6.10996429528027,-3.4968067732438017,-2.4680910585087887,29.21353442862799,1.830124280642266,-0.144469845,-0.97375239,0.213317325,-1.25132,-1.1444999999999999,11.71968,71.0
1774822469.2061648,1.1444091796875e-05,2026-03-29T22:14:29.206,2026-03-29T18:14:29.206,-34412.4,-47122.92,-84750.165,-49377.869999999995,-13722.119999999999,-18368.774999999998,6376.7699999999995,-62529.93,2.2670830776453403,-1.226748808873015,-2.466155600898553,-8.634173917746422,-8.760672136456213,-4.031039817888568,29.7557361163912,5.475057699048137,-0.144469845,-0.97375239,0.213317325,-1.25132,-1.1444999999999999,11.71968,71.0
1774822469.2061777,1.2874603271484375e-05,2026-03-29T22:14:29.206,2026-03-29T18:14:29.206,-34418.385,-47118.33,-84736.935,-49371.884999999995,-13726.845,-18388.035,6268.724999999999,-62563.59,4.691668954292855,2.361855633944471,1.9588516441694785,-7.760545984095194,-10.550667159419051,-3.725129647735403,18.66224681588932,7.131875703308525,-0.144469845,-0.97375239,0.213317325,-1.25132,-1.1444999999999999,11.71968,71.0
1774822469.206188,1.0251998901367188e-05,2026-03-29T22:14:29.206,2026-03-29T18:14:29.206,-34422.21,-47138.265,-84764.52,-49393.439999999995,-13753.619999999999,-18401.579999999998,6269.175,-62543.204999999994,4.961139811950718,4.681773211160393,5.238528797894785,-3.594665099051652,-7.721482838125974,-1.6088996308886332,1.2568665099889866,6.448119055740135,-0.144469845,-0.97375239,0.213317325,-1.25132,-1.1444999999999999,11.71968,71.0
1774822469.2062013,1.33514404296875e-05,2026-03-29T22:14:29.206,2026-03-29T18:14:29.206,-34415.549999999996,-47130.795,-84758.265,-49394.97,-13765.725,-18414.765,6291.2699999999995,-62525.744999999995,3.2264663546608974,4.9955332905429595,6.135831134556723,2.3578324485004187,-1.1663763848410382,1.357413645464617,-15.288920321616379,3.6870224685245683,-0.144469845,-0.97375239,0.213317325,-1.25132,-1.1444999999999999,11.71968,71.0
1774822469.2062116,1.0251998901367188e-05,2026-03-29T22:14:29.206,2026-03-29T18:14:29.206,-34400.61,-47108.564999999995,-84737.745,-49377.645,-13741.605,-18413.64,6301.035,-62533.935,0.44066598750258057,3.4362104275228558,4.520993996273516,7.727174278205505,6.439246197397629,3.7669907440020403,-24.934248194964063,-0.3669567814588581,-0.144469845,-0.97375239,0.213317325,-1.25132,-1.1444999999999999,11.71968,71.0
1774822469.2062247,1.3113021850585938e-05,2026-03-29T22:14:29.206,2026-03-29T18:14:29.206,-34425.854999999996,-47130.39,-84757.36499999999,-49383.405,-13720.994999999999,-18413.64,6284.5199999999995,-62557.784999999996,-2.1299036280981323,0.8373522858789723,1.3136021924992145,10.225447165686784,11.742201499702793,4.457382647415167,-24.847580903862628,-4.526259920965909,-0.144469845,-0.97375239,0.213317325,-1.25132,-1.1444999999999999,11.71968,71.0
1774822469.2062347,1.0013580322265625e-05,2026-03-29T22:14:29.206,2026-03-29T18:14:29.206,-34430.49,-47134.619999999995,-84755.295,-49378.634999999995,-13716.09,-18400.454999999998,6282.09,-62533.53,-3.4710296019916,-1.69875740471122,-2.0242605890776186,8.62334156400027,12.201560367242896,3.0885997710591124,-15.946612178422354,-7.410532078860735,-0.144469845,-0.97375239,0.213317325,-1.25132,-1.1444999999999999,11.71968,71.0
1774822469.2062476,1.2874603271484375e-05,2026-03-29T22:14:29.206,2026-03-29T18:14:29.206,-34413.93,-47104.38,-84720.105,-49350.195,-13698.045,-18386.594999999998,6267.87,-62535.42,-3.2160131800758744,-3.2764568514357157,-4.171165573785755,3.3394679660767412,7.296321419420885,0.3130325630446442,-2.019681288033185,-7.821600441328822,-0.14831505,-0.9751561950000001,0.202208955,1.2207999999999999,-0.19838,10.20894,71.0
1774822469.2062576,1.0013580322265625e-05,2026-03-29T22:14:29.206,2026-03-29T18:14:29.206,-34370.865,-47052.314999999995,-84669.795,-49317.255,-13680.72,-18376.11,6212.115,-62562.195,-1.7202384782224394,-3.5175042545912736,-4.47977239188411,-3.6350088170994304,-1.1205650777979714,-2.550528024628335,11.927966662990848,-5.239813917865428,-0.14831505,-0.9751561950000001,0.202208955,1.2207999999999999,-0.19838,10.20894,71.0
1774822469.2062707,1.3113021850585938e-05,2026-03-29T22:14:29.206,2026-03-29T18:14:29.206,-34365.33,-47063.52,-84690.18,-49354.74,-13724.955,-18400.905,6226.2,-62544.465,0.1844502594942097,-2.6013730856773685,-3.1393558148320198,-9.484081253603726,-9.526645322804,-4.171716457066849,21.35883441272828,-0.23729797671971806,-0.14831505,-0.9751561950000001,0.202208955,1.2207999999999999,-0.19838,10.20894,71.0
1774822469.2062812,1.049041748046875e-05,2026-03-29T22:14:29.206,2026-03-29T18:14:29.206,-34410.15,-47109.645,-84719.34,-49374.09,-13734.81,-18392.355,6312.33,-62533.125,1.6166280115928537,-1.066954888527927,-0.9459465279431231,-11.706610617487108,-14.221654979353408,-3.8566461550422484,23.420143969164133,5.474059975338713,-0.14831505,-0.9751561950000001,0.202208955,1.2207999999999999,-0.19838,10.20894,71.0
1774822469.2062938,1.2636184692382812e-05,2026-03-29T22:14:29.206,2026-03-29T18:14:29.206,-34416.18,-47099.564999999995,-84703.59,-49343.939999999995,-13691.789999999999,-18351.54,6368.8949999999995,-62519.265,2.0467460178653862,0.4876786105921323,1.1524884943513645,-9.185037119286376,-12.965832113532398,-1.8604306882366608,17.544008530147412,9.541166095937411,-0.14831505,-0.9751561950000001,0.202208955,1.2207999999999999,-0.19838,10.20894,71.0
1774822469.2063043,1.049041748046875e-05,2026-03-29T22:14:29.206,2026-03-29T18:14:29.206,-34384.68,-47059.2,-84671.415,-49295.61,-13640.445,-18319.14,6346.53,-62493.93,1.4938105790871785,1.6462978740241538,2.483165293666002,-2.7266160013431735,-6.034456880783003,0.7856987438028266,5.502435541382154,9.929451972322143,-0.14831505,-0.9751561950000001,0.202208955,1.2207999999999999,-0.19838,10.20894,71.0
1774822469.2063167,1.239776611328125e-05,2026-03-29T22:14:29.206,2026-03-29T18:14:29.206,-34363.17,-47049.705,-84654.62999999999,-49282.29,-13632.21,-18325.89,6311.07,-62475.75,0.4433982709577497,2.254767391003222,2.847374864464087,5.177734194502222,3.8032520436591306,2.826979113976298,-8.996090023376786,5.958222329554145,-0.14831505,-0.9751561950000001,0.202208955,1.2207999999999999,-0.19838,10.20894,71.0
1774822469.2063274,1.0728836059570312e-05,2026-03-29T22:14:29.206,2026-03-29T18:14:29.206,-34361.46,-47051.82,-84652.11,-49277.115,-13635.269999999999,-18346.364999999998,6219.855,-62494.064999999995,-0.45305419148091797,2.3436570639028282,2.4404150760166043,11.312907182970857,12.406264590118386,3.416303280120502,-21.167440541889366,-1.1227507478858016,-0.14831505,-0.9751561950000001,0.202208955,1.2207999999999999,-0.19838,10.20894,71.0
1774822469.2063403,1.2874603271484375e-05,2026-03-29T22:14:29.206,2026-03-29T18:14:29.206,-34392.869999999995,-47098.215,-84713.355,-49313.564999999995,-13657.949999999999,-18363.735,6209.054999999999,-62518.77,-0.7366082175997952,1.9859871544638261,1.600590730759618,13.047642652460816,16.021408235614626,2.492172052764867,-26.471353113866375,-8.419566056877168,-0.14831505,-0.9751561950000001,0.202208955,1.2207999999999999,-0.19838,10.20894,71.0
1774822469.2063513,1.0967254638671875e-05,2026-03-29T22:14:29.206,2026-03-29T18:14:29.206,-34438.86,-47137.59,-84759.885,-49362.525,-13712.894999999999,-18395.594999999998,6280.469999999999,-62546.22,-0.37329768128125995,1.2083840924371256,0.574878283402225,9.458716908273376,12.92444228087653,0.7202976677744078,-22.202442115769212,-12.557870718908326,-0.14831505,-0.9751561950000001,0.202208955,1.2207999999999999,-0.19838,10.20894,71.0
1774822469.2153428,0.008991479873657227,2026-03-29T22:14:29.215,2026-03-29T18:14:29.215,-34457.22,-47154.735,-84778.515,-49394.744999999995,-13752.539999999999,-18417.78,6267.285,-62555.985,0.25609474019143025,0.02336852415209718,-0.5503675026990339,1.7931980764526765,4.222945380663025,-0.9398292904264902,-8.859522632162697,-11.267007352125301,-0.155822355,-0.96764889,0.19909617000000002,5.44782,1.9227599999999998,7.3705799999999995,71.0
1774822469.2153769,3.409385681152344e-05,2026-03-29T22:14:29.215,2026-03-29T18:14:29.215,-34426.89,-47115.09,-84722.22,-49378.365,-13754.519999999999,-18407.385,6253.155,-62535.555,0.600736438815088,-1.4442929788789742,-1.7335501698435112,-6.952823319895058,-6.545365532818032,-1.7786698649649955,9.395861911794338,-4.629345392103815,-0.155822355,-0.96764889,0.19909617000000002,5.44782,1.9227599999999998,7.3705799999999995,71.0
1774822469.2154045,2.765655517578125e-05,2026-03-29T22:14:29.215,2026-03-29T18:14:29.215,-34387.47,-47089.935,-84706.69499999999,-49362.93,-13714.515,-18381.105,6256.8,-62512.92,0.2871442363173068,-2.844705582443833,-2.7926918266585643,-13.2016159018974,-14.867918904267396,-1.677180164322321,25.731397109291528,4.693164722133967,-0.155822355,-0.96764889,0.19909617000000002,5.44782,1.9227599999999998,7.3705799999999995,71.0
1774822469.215417,1.239776611328125e-05,2026-03-29T22:14:29.215,2026-03-29T18:14:29.215,-34363.979999999996,-47074.5,-84705.39,-49344.03,-13691.519999999999,-18367.965,6352.0199999999995,-62488.755,-0.6224847006711913,-3.624239724602288,-3.324638057523491,-14.253937917433857,-17.15845754178795,-1.0628570981785617,33.06869453298091,12.497063305946035,-0.155822355,-0.96764889,0.19909617000000002,5.44782,1.9227599999999998,7.3705799999999995,71.0
1774822469.2220435,0.006626605987548828,2026-03-29T22:14:29.222,2026-03-29T18:14:29.222,-34398.225,-47100.104999999996,-84715.965,-49371.165,-13748.039999999999,-18414.675,6365.88,-62496.27,-1.614902805879868,-3.2319949439325404,-2.841490942034303,-9.448174153918222,-12.298223367318776,-0.5355907369841422,27.161385410921596,14.952430802904482,-0.155822355,-0.96764889,0.19909617000000002,5.44782,1.9227599999999998,7.3705799999999995,71.0
1774822469.2220623,1.8835067749023438e-05,2026-03-29T22:14:29.222,2026-03-29T18:14:29.222,-34421.174999999996,-47132.64,-84756.19499999999,-49393.71,-13776.435,-18431.64,6347.34,-62498.79,-1.9843442931550095,-1.4420673273901095,-1.08917733253958,-0.5245357217716404,-2.1571597199795876,-0.418127510461128,8.983838620547452,10.512213483019398,-0.155822355,-0.96764889,0.19909617000000002,5.44782,1.9227599999999998,7.3705799999999995,71.0
1774822469.2220795,1.71661376953125e-05,2026-03-29T22:14:29.222,2026-03-29T18:14:29.222,-34412.534999999996,-47131.47,-84783.19499999999,-49384.305,-13720.814999999999,-18377.145,6335.865,-62497.53,-1.2456446038495566,1.3796038631949694,1.6341097154972548,8.991493754021462,9.137644093535727,-0.5307787882504545,-14.888384555272165,0.8502049616208178,-0.155822355,-0.96764889,0.19909617000000002,5.44782,1.9227599999999998,7.3705799999999995,71.0
1774822469.2220864,6.9141387939453125e-06,2026-03-29T22:14:29.222,2026-03-29T18:14:29.222,-34395.345,-47100.915,-84744.98999999999,-49353.479999999996,-13667.175,-18335.565,6282.719999999999,-62530.695,0.5173977757037025,4.251666490481257,4.392127440803006,15.174317283443175,16.892366108889018,-0.34804469097916346,-34.48226920634979,-9.726153279246784,-0.155822355,-0.96764889,0.19909617000000002,5.44782,1.9227599999999998,7.3705799999999995,71.0
1774822469.23238,0.01029348373413086,2026-03-29T22:14:29.232,2026-03-29T18:14:29.232,-34393.32,-47088.63,-84720.19499999999,-49331.384999999995,-13668.164999999999,-18349.245,6257.385,-62554.86,2.57855807998293,5.8893471542843985,5.896279974460601,15.31202556137488,17.797822753678606,0.5535536478191585,-40.58609693977384,-16.209293849387617,-0.155822355,-0.96764889,0.19909617000000002,5.44782,1.9227599999999998,7.3705799999999995,71.0
1774822469.2323987,1.8835067749023438e-05,2026-03-29T22:14:29.232,2026-03-29T18:14:29.232,-34413.075,-47109.645,-84742.83,-49361.895,-13701.015,-18386.19,6237.135,-62569.619999999995,3.8549749089102945,5.271291612089044,5.099100845419367,9.089246062063328,11.330910334754167,2.0525332664915967,-29.134787140331014,-15.296112873161979,-0.155822355,-0.96764889,0.19909617000000002,5.44782,1.9227599999999998,7.3705799999999995,71.0
1774822469.232417,1.8358230590820312e-05,2026-03-29T22:14:29.232,2026-03-29T18:14:29.232,-34437.33,-47125.125,-84747.735,-49375.034999999996,-13723.965,-18414.54,6217.335,-62599.14,3.448393398351063,2.2157100115973516,1.8263579799133676,-1.1730074081964663,0.01872476974585574,3.3702379914161193,-3.7086193315038165,-7.092178665297564,-0.15368613,-0.956967765,0.200255835,-0.48832,7.5079199999999995,9.65958,71.0
1774822469.2324235,6.4373016357421875e-06,2026-03-29T22:14:29.232,2026-03-29T18:14:29.232,-34487.145,-47177.369999999995,-84793.59,-49432.095,-13784.49,-18469.98,6189.66,-62610.615,1.181768482910985,-2.34087714763161,-2.9069503074220098,-11.365586199549998,-11.555851939620446,3.4346315371247926,25.32247046255242,4.773105690952718,-0.15368613,-0.956967765,0.200255835,-0.48832,7.5079199999999995,9.65958,71.0
1774822469.2389128,0.006489276885986328,2026-03-29T22:14:29.238,2026-03-29T18:14:29.238,-34471.215,-47171.25,-84790.125,-49435.02,-13783.365,-18459.855,6270.344999999999,-62523.494999999995,-2.164610406388819,-6.573118548187771,-7.146471513359697,-17.226777590300095,-18.611486704842775,1.5666455841156883,44.993211669304856,14.758708185945313,-0.15368613,-0.956967765,0.200255835,-0.48832,7.5079199999999995,9.65958,71.0
1774822469.2389348,2.193450927734375e-05,2026-03-29T22:14:29.238,2026-03-29T18:14:29.238,-34437.825,-47115.854999999996,-84716.055,-49372.11,-13731.21,-18388.305,6301.17,-62482.049999999996,-5.09357449866585,-8.487158656962498,-8.797245369573112,-16.12027521965293,-18.136240474105318,-1.9068896873726993,45.60013744923347,18.031234870574142,-0.15368613,-0.956967765,0.200255835,-0.48832,7.5079199999999995,9.65958,71.0
1774822469.248139,0.00920414924621582,2026-03-29T22:14:29.248,2026-03-29T18:14:29.248,-34349.805,-47024.82,-84626.055,-49300.56,-13679.324999999999,-18322.965,6284.295,-62438.534999999996,-6.053179384778206,-6.854754258390025,-6.6502918825679105,-8.21716001684624,-10.16109982020483,-5.53687097443504,25.543119656470463,12.836609025474468,-0.15368613,-0.956967765,0.200255835,-0.48832,7.5079199999999995,9.65958,71.0
1774822469.2481575,1.8596649169921875e-05,2026-03-29T22:14:29.248,2026-03-29T18:14:29.248,-34310.34,-46995.345,-84612.78,-49264.335,-13627.8,-18296.235,6327.405,-62427.465,-4.232567965027237,-1.9263556941801605,-1.137549819112075,3.44569088259773,2.192133575606989,-7.320532774436664,-7.289275537628442,1.4446309434668687,-0.15368613,-0.956967765,0.200255835,-0.48832,7.5079199999999995,9.65958,71.0
1774822469.2481835,2.5987625122070312e-05,2026-03-29T22:14:29.248,2026-03-29T18:14:29.248,-34368.615,-47074.095,-84695.12999999999,-49305.78,-13635.72,-18332.82,6363.9,-62467.335,-0.09281868684656451,4.468617703810027,5.621323397815238,14.113507896122854,13.928977959502838,-5.753229799625217,-38.551794968515,-10.843695188845912,-0.15368613,-0.956967765,0.200255835,-0.48832,7.5079199999999995,9.65958,71.0
1774822469.2481892,5.7220458984375e-06,2026-03-29T22:14:29.248,2026-03-29T18:14:29.248,-34425.27,-47132.009999999995,-84747.59999999999,-49360.32,-13702.814999999999,-18387.225,6320.88,-62511.84,4.680601412534082,9.575113315455232,10.61240765154543,19.2448753281356,20.19334411359729,-0.8291367522007607,-53.767716441275226,-18.19075321827549,-0.15368613,-0.956967765,0.200255835,-0.48832,7.5079199999999995,9.65958,71.0
1774822469.2481968,7.62939453125e-06,2026-03-29T22:14:29.248,2026-03-29T18:14:29.248,-34450.29,-47150.46,-84757.05,-49389.479999999996,-13741.38,-18412.29,6255.495,-62537.759999999995,7.856459211626433,10.901975543204168,11.27741290495647,16.44721942802151,18.267507273335834,5.611166146298152,-45.13001873535728,-17.029913559515823,-0.15368613,-0.956967765,0.200255835,-0.48832,7.5079199999999995,9.65958,71.0
1774822469.248202,5.245208740234375e-06,2026-03-29T22:14:29.248,2026-03-29T18:14:29.248,-34416.225,-47121.299999999996,-84744.45,-49375.845,-13718.564999999999,-18389.52,6222.0599999999995,-62525.564999999995,7.7001405210548715,7.434235317085439,6.81357562128275,6.592091348731426,8.743759800310725,10.512905025435167,-15.53684298571982,-7.818133001224696,-0.15368613,-0.956967765,0.200255835,-0.48832,7.5079199999999995,9.65958,71.0
1774822469.2817173,0.033515214920043945,2026-03-29T22:14:29.281,2026-03-29T18:14:29.281,-34379.775,-47095.695,-84737.205,-49367.205,-13696.605,-18360.27,6258.15,-62497.17,3.89358182685905,0.27949283387985613,-1.2326681698948871,-6.409312873458571,-4.6329399852244615,11.038099196610457,22.23777131896941,5.1380357182823495,-0.155089935,-0.958310535,0.19299267,-1.77016,12.34534,7.553699999999999,71.0
1774822469.2817495,3.218650817871094e-05,2026-03-29T22:14:29.281,2026-03-29T18:14:29.281,-34383.015,-47081.79,-84708.62999999999,-49341.195,-13679.685,-18354.239999999998,6339.599999999999,-62492.67,-2.1462187954387697,-7.630263521110382,-9.454597346909342,-17.14331435065342,-16.424183098070568,6.132937005158635,51.09667769945791,15.719713916819147,-0.155089935,-0.958310535,0.19299267,-1.77016,12.34534,7.553699999999999,71.0
1774822469.2817771,2.765655517578125e-05,2026-03-29T22:14:29.281,2026-03-29T18:14:29.281,-34426.395,-47115.945,-84725.775,-49348.215,-13694.715,-18380.969999999998,6347.429999999999,-62506.89,-7.775336827879281,-12.73825026844494,-14.031679852255712,-20.948868419004576,-21.69890158381558,-2.609414018840155,57.46293580844807,18.919584593076284,-0.155089935,-0.958310535,0.19299267,-1.77016,12.34534,7.553699999999999,71.0
1774822469.2817903,1.3113021850585938e-05,2026-03-29T22:14:29.281,2026-03-29T18:14:29.281,-34467.615,-47175.479999999996,-84800.25,-49420.034999999996,-13767.345,-18447.21,6251.535,-62541.494999999995,-10.2883006376614,-12.47575361338311,-12.518768020651793,-15.952624599489035,-18.09239546573276,-11.367280348517166,37.76442197471518,13.237401784611066,-0.155089935,-0.958310535,0.19299267,-1.77016,12.34534,7.553699999999999,71.0
1774822469.2818048,1.4543533325195312e-05,2026-03-29T22:14:29.281,2026-03-29T18:14:29.281,-34476.03,-47175.39,-84803.985,-49427.955,-13790.475,-18469.755,6145.5599999999995,-62577.674999999996,-8.22449930694073,-6.551529954835201,-5.1343833517654005,-3.9912187895914757,-6.866989044786738,-15.750146360964008,0.41683027964984815,1.3877121155897412,-0.155089935,-0.958310535,0.19299267,-1.77016,12.34534,7.553699999999999,71.0
1774822469.281816,1.1205673217773438e-05,2026-03-29T22:14:29.281,2026-03-29T18:14:29.281,-34461.494999999995,-47138.49,-84758.04,-49390.92,-13776.48,-18484.38,6068.655,-62597.655,-2.181846401770699,2.728998875227052,5.124190154580314,10.033532226336954,7.501564104197809,-12.985607406244062,-37.78695072969154,-11.016133829294418,-0.155089935,-0.958310535,0.19299267,-1.77016,12.34534,7.553699999999999,71.0
1774822469.281829,1.3113021850585938e-05,2026-03-29T22:14:29.281,2026-03-29T18:14:29.281,-34399.979999999996,-47054.564999999995,-84651.56999999999,-49302.9,-13718.699999999999,-18448.515,6105.285,-62565.165,5.304718585586984,11.347070105624473,13.691424512964284,20.15844943973847,19.093568755908016,-3.5487563135069684,-59.324510626665486,-18.153756617127986,-0.155089935,-0.958310535,0.19299267,-1.77016,12.34534,7.553699999999999,71.0
1774822469.2818396,1.049041748046875e-05,2026-03-29T22:14:29.281,2026-03-29T18:14:29.281,-34303.59,-46969.784999999996,-84560.22,-49211.64,-13614.255,-18341.145,6181.695,-62466.84,10.83369355853087,15.32693252954718,16.48523948860855,21.90697110011926,22.980903236751054,8.684980078283134,-54.09827313379995,-16.75764122695612,-0.155089935,-0.958310535,0.19299267,-1.77016,12.34534,7.553699999999999,71.0
1774822469.2818527,1.3113021850585938e-05,2026-03-29T22:14:29.281,2026-03-29T18:14:29.281,-34232.265,-46919.52,-84527.415,-49207.275,-13623.75,-18281.295,6280.425,-62392.634999999995,11.70234341656815,12.591109093825203,11.869473518194663,14.28798587355769,17.330099840641793,18.01118537727863,-24.24523128832868,-7.617588334962905,-0.155089935,-0.958310535,0.19299267,-1.77016,12.34534,7.553699999999999,71.0
1774822469.2818637,1.0967254638671875e-05,2026-03-29T22:14:29.281,2026-03-29T18:14:29.281,-34320.195,-47053.215,-84704.84999999999,-49337.595,-13709.789999999999,-18331.335,6405.075,-62404.064999999995,7.237855796551739,4.039592270447049,1.5762538657158078,0.34445670926809985,4.272559333468228,19.567777298016043,16.724309929130058,4.867450229228783,-0.155089935,-0.958310535,0.19299267,-1.77016,12.34534,7.553699999999999,71.0
1774822469.2818768,1.3113021850585938e-05,2026-03-29T22:14:29.281,2026-03-29T18:14:29.281,-34436.159999999996,-47157.299999999996,-84802.275,-49419.27,-13762.98,-18405.09,6465.285,-62469.405,-0.7662724790628102,-6.7061492988133855,-9.919155668581046,-14.047022643197675,-10.873946435147854,11.850130297368615,50.11890643994736,14.83566689776947,-0.17065386,-0.964536105,0.17639115,-2.4415999999999998,12.742099999999999,6.8517399999999995,71.0
1774822469.2818868,1.0013580322265625e-05,2026-03-29T22:14:29.281,2026-03-29T18:14:29.281,-34451.28,-47160.63,-84787.155,-49428.765,-13780.8,-18403.965,6412.679999999999,-62499.555,-8.770422905821464,-14.84823585077869,-17.36037826142577,-22.661376089855228,-21.763562926490863,-2.2250588178318456,60.71290464675486,17.74519067015377,-0.17065386,-0.964536105,0.17639115,-2.4415999999999998,12.742099999999999,6.8517399999999995,71.0
1774822469.2818997,1.2874603271484375e-05,2026-03-29T22:14:29.281,2026-03-29T18:14:29.281,-34438.229999999996,-47159.055,-84801.42,-49426.83,-13805.82,-18385.065,6385.41,-62497.665,-13.077823161847093,-16.58293201802125,-17.141787455945302,-21.641352012290948,-23.690071757397064,-16.375876838759087,43.79034312682359,12.456808875546402,-0.17065386,-0.964536105,0.17639115,-2.4415999999999998,12.742099999999999,6.8517399999999995,71.0
1774822469.28191,1.0251998901367188e-05,2026-03-29T22:14:29.281,2026-03-29T18:14:29.281,-34413.93,-47119.229999999996,-84761.81999999999,-49381.244999999995,-13758.66,-18396.54,6360.344999999999,-62491.32,-11.568560101738555,-10.902257143927601,-9.072861467918004,-11.249515050733258,-15.639496383200141,-23.777714085111768,7.278143222226197,1.654762832992495,-0.17065386,-0.964536105,0.17639115,-2.4415999999999998,12.742099999999999,6.8517399999999995,71.0
1774822469.281923,1.3113021850585938e-05,2026-03-29T22:14:29.281,2026-03-29T18:14:29.281,-34416.63,-47097.045,-84711.465,-49319.145,-13621.32,-18375.614999999998,6337.035,-62513.954999999994,-4.753210432662148,-0.16245509373177566,3.395386675337867,4.150902776675416,-0.8238335051644915,-20.376128438860764,-32.01262017258979,-9.533982245634734,-0.17065386,-0.964536105,0.17639115,-2.4415999999999998,12.742099999999999,6.8517399999999995,71.0
1774822469.2819333,1.0251998901367188e-05,2026-03-29T22:14:29.281,2026-03-29T18:14:29.281,-34411.14,-47094.975,-84703.31999999999,-49312.259999999995,-13654.98,-18406.62,6261.165,-62525.295,4.382612796383941,10.895290926656461,14.653085450598581,17.928009204493137,14.58522563307228,-7.071660534558043,-56.233144684827224,-16.003699087883636,-0.17065386,-0.964536105,0.17639115,-2.4415999999999998,12.742099999999999,6.8517399999999995,71.0
1774822469.3057292,0.02379584312438965,2026-03-29T22:14:29.305,2026-03-29T18:14:29.305,-34411.455,-47100.42,-84723.165,-49360.68,-13724.144999999999,-18409.454999999998,6210.405,-62506.439999999995,11.707020806747531,17.264956480908456,19.483795539834716,24.058204055681465,24.032870919858556,10.388639525752401,-54.71796196474566,-15.018197832623736,-0.17065386,-0.964536105,0.17639115,-2.4415999999999998,12.742099999999999,6.8517399999999995,71.0
1774822469.305751,2.193450927734375e-05,2026-03-29T22:14:29.305,2026-03-29T18:14:29.305,-34398.99,-47096.729999999996,-84729.465,-49357.259999999995,-13678.74,-18329.219999999998,6303.554999999999,-62448.84,13.843363232818012,15.976690404396074,15.512994066968561,19.791204778806975,23.39110159660151,23.90760016551852,-28.739902456472517,-7.354365835680316,-0.17065386,-0.964536105,0.17639115,-2.4415999999999998,12.742099999999999,6.8517399999999995,71.0
1774822469.3057706,1.9550323486328125e-05,2026-03-29T22:14:29.305,2026-03-29T18:14:29.305,-34391.52,-47074.14,-84683.06999999999,-49311.0,-13659.164999999999,-18336.915,6340.635,-62442.18,9.754619267420239,7.505675584790554,4.390194501171702,6.9101090044179125,12.787926300178132,26.832711812348,9.349444872049764,3.228933926081639,-0.17065386,-0.964536105,0.17639115,-2.4415999999999998,12.742099999999999,6.8517399999999995,71.0
1774822469.305778,7.3909759521484375e-06,2026-03-29T22:14:29.305,2026-03-29T18:14:29.305,-34374.645,-47075.22,-84690.675,-49315.994999999995,-13682.744999999999,-18375.3,6290.415,-62438.085,1.2545619151920657,-4.390201172941602,-8.889422159404356,-9.0024727951208,-3.3666170825863047,17.252915424456038,42.06548676506639,11.859115150046348,-0.17065386,-0.964536105,0.17639115,-2.4415999999999998,12.742099999999999,6.8517399999999995,71.0
1774822469.3057864,8.344650268554688e-06,2026-03-29T22:14:29.305,2026-03-29T18:14:29.305,-34376.354999999996,-47078.595,-84714.435,-49339.979999999996,-13697.595,-18404.594999999998,6270.929999999999,-62454.645,-7.810043473164907,-14.356946883149638,-18.248943553303466,-20.99676558378132,-18.21315964409587,-0.8473777823679806,54.926305657966324,14.815757229887456,-0.182555685,-0.975034125,0.18029739,-1.4497,14.344399999999998,4.715339999999999,71.0
1774822469.3057923,5.9604644775390625e-06,2026-03-29T22:14:29.305,2026-03-29T18:14:29.305,-34380.945,-47055.78,-84675.95999999999,-49347.27,-13706.01,-18383.04,6303.51,-62444.88,-13.331833320076681,-17.89002739872111,-19.344364651878898,-23.82190173490769,-25.374980209971397,-19.244422050937782,42.9406839575781,11.12992980077765,-0.182555685,-0.975034125,0.18029739,-1.4497,14.344399999999998,4.715339999999999,71.0
1774822469.3057995,7.152557373046875e-06,2026-03-29T22:14:29.305,2026-03-29T18:14:29.305,-34369.11,-47028.24,-84615.345,-49316.445,-13689.63,-18377.37,6288.615,-62439.39,-12.839103867982718,-13.405997991748839,-11.611921200106847,-16.259612315042837,-21.727798861296822,-29.255404422535847,12.504174839436686,2.832694166764814,-0.182555685,-0.975034125,0.18029739,-1.4497,14.344399999999998,4.715339999999999,71.0
1774822469.3058054,5.9604644775390625e-06,2026-03-29T22:14:29.305,2026-03-29T18:14:29.305,-34355.565,-47018.52,-84597.25499999999,-49297.095,-13691.025,-18382.635,6244.11,-62446.994999999995,-6.624466243797321,-2.9714056166670946,1.429833053471294,-1.672562574779995,-8.790072070095784,-25.88550391384887,-21.993681966095803,-6.161066665812257,-0.182555685,-0.975034125,0.18029739,-1.4497,14.344399999999998,4.715339999999999,71.0
1774822469.3058128,7.3909759521484375e-06,2026-03-29T22:14:29.305,2026-03-29T18:14:29.305,-34372.575,-47073.689999999995,-84705.75,-49332.869999999995,-13679.414999999999,-18363.87,6261.75,-62449.515,2.4199857328250878,8.65559546725557,13.788656326909033,13.490391642650552,7.897863336155098,-10.338799820832001,-45.058074918670854,-11.922354530533294,-0.182555685,-0.975034125,0.18029739,-1.4497,14.344399999999998,4.715339999999999,71.0
1774822469.3058183,5.4836273193359375e-06,2026-03-29T22:14:29.305,2026-03-29T18:14:29.305,-34423.155,-47129.58,-84768.03,-49357.89,-13679.73,-18354.915,6334.155,-62463.015,10.17137328509322,16.224280358637404,19.7795332833831,22.568529179151447,21.158786059231847,10.378074141250318,-47.13603285085155,-12.228558332493188,-0.182555685,-0.975034125,0.18029739,-1.4497,14.344399999999998,4.715339999999999,71.0
1774822469.315477,0.009658575057983398,2026-03-29T22:14:29.315,2026-03-29T18:14:29.315,-34430.49,-47163.284999999996,-84823.785,-49417.65,-13738.455,-18391.905,6329.61,-62439.165,13.190956784281454,16.40209439954788,16.67569765139043,21.65218616895156,25.2961938080246,26.651162707275947,-28.574989341212014,-7.380467754528218,-0.182555685,-0.975034125,0.18029739,-1.4497,14.344399999999998,4.715339999999999,71.0
1774822469.3155017,2.47955322265625e-05,2026-03-29T22:14:29.315,2026-03-29T18:14:29.315,-34395.075,-47107.215,-84749.94,-49395.689999999995,-13740.975,-18368.73,6294.375,-62426.655,10.27985860557918,9.272641224819415,5.9783387531604335,11.299742274629013,18.576404124355705,30.779562434691528,1.1477787138448319,0.15957039642283555,-0.182555685,-0.975034125,0.18029739,-1.4497,14.344399999999998,4.715339999999999,71.0
