unix_time_s,dt_s,UTC,LOCAL,EMG1_Raw,EMG2_Raw,EMG3_Raw,EMG4_Raw,EMG5_Raw,EMG6_Raw,EMG7_Raw,EMG8_Raw,EMG1_Filtered,EMG2_Filtered,EMG3_Filtered,EMG4_Filtered,EMG5_Filtered,EMG6_Filtered,EMG7_Filtered,EMG8_Filtered,Accel1_Raw,Accel2_Raw,Accel3_Raw,Gyro1_Raw,Gyro2_Raw,Gyro3_Raw,Battery
1774822776.91963,,2026-03-29T22:19:36.919,2026-03-29T18:19:36.919,-33188.22,-46369.665,-85835.61,-50717.7,-12511.125,-17798.579999999998,6722.82,-41521.005,-0.4326532368772766,0.11642585988335455,0.23953775694076257,0.54793305844385,0.48800850512596644,0.16696645430203558,-0.5515977506163863,0.20932529113152049,0.9436011,0.01416012,0.38391015,-0.39676,-1.38866,-0.21364,69.0
1774822776.9196432,1.3113021850585938e-05,2026-03-29T22:19:36.919,2026-03-29T18:19:36.919,-33190.92,-46372.229999999996,-85838.715,-50718.33,-12504.96,-17783.864999999998,6728.94,-41518.665,-3.008962890724665,-1.140802113650932,-2.783672998684379,-3.4880540544854743,-1.962101247311846,-1.8421424019639956,-3.334553142548643,-0.12374545889883176,0.9436011,0.01416012,0.38391015,-0.39676,-1.38866,-0.21364,69.0
1774822776.9214523,0.0018091201782226562,2026-03-29T22:19:36.921,2026-03-29T18:19:36.921,-33201.54,-46377.99,-85848.56999999999,-50728.545,-12509.595,-17789.219999999998,6723.8099999999995,-41524.92,-4.208288412722558,-1.917656266177547,-4.488992604617961,-5.820912273969888,-3.4393795162674032,-2.956721580963707,-4.578398084057029,-0.47577529747929515,0.9436011,0.01416012,0.38391015,-0.39676,-1.38866,-0.21364,69.0
1774822776.9214623,1.0013580322265625e-05,2026-03-29T22:19:36.921,2026-03-29T18:19:36.921,-33201.54,-46373.625,-85840.37999999999,-50733.45,-12513.42,-17792.55,6723.8099999999995,-41526.18,-3.446479012112815,-1.8259046350837347,-4.00446383889826,-5.385056105078991,-3.2777600285341997,-2.6566790359172394,-3.702545976227116,-0.6685460366355213,0.9436011,0.01416012,0.38391015,-0.39676,-1.38866,-0.21364,69.0
1774822776.9551196,0.03365731239318848,2026-03-29T22:19:36.955,2026-03-29T18:19:36.955,-33190.424999999996,-46362.465,-85821.20999999999,-50715.854999999996,-12505.23,-17790.524999999998,6721.74,-41517.81,-1.062111857979497,-0.8747153232900493,-1.5285028720923992,-2.442794541798936,-1.5954980424714553,-1.0960416463685119,-1.113726574774999,-0.5664836579869007,0.94311282,0.01867671,0.384459465,-4.8831999999999995,-1.6633399999999998,-1.43444,69.0
1774822776.9551406,2.09808349609375e-05,2026-03-29T22:19:36.955,2026-03-29T18:19:36.955,-33188.715,-46365.119999999995,-85828.31999999999,-50715.494999999995,-12509.279999999999,-17799.434999999998,6722.19,-41515.2,1.835760585948313,0.5194791366332822,1.7491284322975622,1.5678424814927514,0.780525113054108,0.9742130974721992,1.9837922070571508,-0.16231385553990382,0.94311282,0.01867671,0.384459465,-4.8831999999999995,-1.6633399999999998,-1.43444,69.0
1774822776.9551604,1.9788742065429688e-05,2026-03-29T22:19:36.955,2026-03-29T18:19:36.955,-33187.95,-46367.64,-85832.19,-50717.295,-12511.395,-17803.125,6723.764999999999,-41515.02,3.8888634690196233,1.7174598288745406,4.220637395430615,4.7411736234436335,2.7221664170905218,2.5653735217937137,4.151592087226461,0.39197791534121856,0.94311282,0.01867671,0.384459465,-4.8831999999999995,-1.6633399999999998,-1.43444,69.0
1774822776.9551673,6.9141387939453125e-06,2026-03-29T22:19:36.955,2026-03-29T18:19:36.955,-33192.135,-46375.244999999995,-85843.845,-50727.06,-12515.265,-17801.594999999998,6723.8099999999995,-41517.18,4.132553302188285,2.15331898812041,4.650674010080514,5.616672468232852,3.3377002513676706,2.921138713127408,4.389034399354643,0.8373718069835655,0.94311282,0.01867671,0.384459465,-4.8831999999999995,-1.6633399999999998,-1.43444,69.0
1774822776.9551752,7.867813110351562e-06,2026-03-29T22:19:36.955,2026-03-29T18:19:36.955,-33187.545,-46370.159999999996,-85843.665,-50724.72,-12515.715,-17804.295,6716.969999999999,-41514.165,2.4531647167089665,1.6036213588132686,2.794302639692114,3.8557850705679417,2.3824954268712206,1.8759516214773415,2.5980194843417896,0.9285962173413568,0.94311282,0.01867671,0.384459465,-4.8831999999999995,-1.6633399999999998,-1.43444,69.0
1774822776.9551811,5.9604644775390625e-06,2026-03-29T22:19:36.955,2026-03-29T18:19:36.955,-33190.515,-46372.005,-85842.36,-50716.799999999996,-12509.189999999999,-17802.719999999998,6712.38,-41511.24,-0.35894606434675597,0.300720218741468,-0.46708767343341334,0.36693009000736354,0.35309414594469923,-0.06766180790770394,-0.37659607921834265,0.5673880207425414,0.94311282,0.01867671,0.384459465,-4.8831999999999995,-1.6633399999999998,-1.43444,69.0
1774822776.955188,6.9141387939453125e-06,2026-03-29T22:19:36.955,2026-03-29T18:19:36.955,-33195.78,-46377.27,-85843.53,-50721.345,-12514.32,-17807.895,6716.384999999999,-41508.45,-2.9855431973023046,-1.166876343595171,-3.5460588346041164,-3.16384091198843,-1.7694730366473366,-1.9788122235389005,-3.1474764897791707,-0.12344386224323364,0.94311282,0.01867671,0.384459465,-4.8831999999999995,-1.6633399999999998,-1.43444,69.0
1774822776.9551935,5.4836273193359375e-06,2026-03-29T22:19:36.955,2026-03-29T18:19:36.955,-33193.17,-46373.445,-85840.69499999999,-50729.534999999996,-12523.05,-17815.005,6718.275,-41508.9,-4.205027393858654,-2.123717351494473,-4.924332029602641,-5.093606224260529,-2.9947767059687447,-2.941272622387616,-4.435396776112573,-0.8341714246941972,0.94311282,0.01867671,0.384459465,-4.8831999999999995,-1.6633399999999998,-1.43444,69.0
1774822776.955201,7.3909759521484375e-06,2026-03-29T22:19:36.955,2026-03-29T18:19:36.955,-33190.065,-46371.24,-85841.145,-50723.189999999995,-12520.215,-17821.26,6701.8949999999995,-41510.07,-3.4665108912612848,-2.1215313130155065,-3.903078691754529,-4.592381774791204,-2.785822448332022,-2.4900384620613267,-3.6631692724314227,-1.2065251693138324,0.94311282,0.01867671,0.384459465,-4.8831999999999995,-1.6633399999999998,-1.43444,69.0
1774822776.9552064,5.4836273193359375e-06,2026-03-29T22:19:36.955,2026-03-29T18:19:36.955,-33183.405,-46363.814999999995,-85830.705,-50710.814999999995,-12510.494999999999,-17819.1,6696.2699999999995,-41513.085,-1.1409292420019335,-1.1507026079396891,-0.9566107533503997,-1.9987480009164746,-1.2930084424549955,-0.8345333087825496,-1.2155844184957594,-1.0148954410011959,0.94311282,0.01867671,0.384459465,-4.8831999999999995,-1.6633399999999998,-1.43444,69.0
1774822776.9552133,6.9141387939453125e-06,2026-03-29T22:19:36.955,2026-03-29T18:19:36.955,-33194.025,-46371.15,-85831.2,-50711.625,-12504.195,-17797.95,6720.974999999999,-41518.35,1.6664051469192587,0.3513725073708347,2.4894405340632355,1.3902057712258604,0.7418317526715369,1.2379915541735818,1.7522726611553134,-0.29848470839268465,0.94518801,0.018371535,0.38683983,-7.5079199999999995,-0.09156,-2.5942,69.0
1774822776.9552188,5.4836273193359375e-06,2026-03-29T22:19:36.955,2026-03-29T18:19:36.955,-33207.39,-46381.005,-85834.395,-50704.38,-12490.289999999999,-17775.315,6736.5,-41527.215,3.646704629701149,1.7003778735287405,4.751076897311649,3.9704121519968782,2.3536826386912235,2.7344447047104516,3.8627809074461315,0.6312712305810565,0.94518801,0.018371535,0.38683983,-7.5079199999999995,-0.09156,-2.5942,69.0
1774822776.955226,7.152557373046875e-06,2026-03-29T22:19:36.955,2026-03-29T18:19:36.955,-33187.59,-46367.82,-85827.915,-50697.63,-12490.74,-17780.265,6734.969999999999,-41521.455,3.9046382888510784,2.2807783977072478,4.71173803969058,4.595192266389289,2.8120305960238166,2.9283940631206606,4.158565144983676,1.3248427014640554,0.94518801,0.018371535,0.38683983,-7.5079199999999995,-0.09156,-2.5942,69.0
1774822776.9552312,5.245208740234375e-06,2026-03-29T22:19:36.955,2026-03-29T18:19:36.955,-33172.38,-46358.685,-85832.055,-50714.685,-12512.564999999999,-17806.815,6721.335,-41512.095,2.367423390850388,1.8297575826676138,2.3745910162453865,3.0858223005919934,1.9508007176708908,1.709609097614795,2.538788614217933,1.4133962037982777,0.94518801,0.018371535,0.38683983,-7.5079199999999995,-0.09156,-2.5942,69.0
1774822776.955238,6.9141387939453125e-06,2026-03-29T22:19:36.955,2026-03-29T18:19:36.955,-33178.455,-46369.08,-85853.11499999999,-50742.314999999995,-12526.74,-17811.765,6721.5599999999995,-41508.945,-0.20287584100026587,0.5570276440940651,-1.132511710144176,0.2606470004282964,0.2221949840358612,-0.3562866529849948,-0.21081272096924122,0.8051580004222311,0.94518801,0.018371535,0.38683983,-7.5079199999999995,-0.09156,-2.5942,69.0
1774822776.9552436,5.4836273193359375e-06,2026-03-29T22:19:36.955,2026-03-29T18:19:36.955,-33193.53,-46377.63,-85858.875,-50744.34,-12526.875,-17808.84,6723.585,-41516.685,-2.5896454213082736,-0.9545258448470472,-4.10457487640634,-2.5043570720252326,-1.5387862262686605,-2.289263960919333,-2.800259041523038,-0.24525236658133498,0.94518801,0.018371535,0.38683983,-7.5079199999999995,-0.09156,-2.5942,69.0
1774822776.9613953,0.006151676177978516,2026-03-29T22:19:36.961,2026-03-29T18:19:36.961,-33193.305,-46372.005,-85849.425,-50732.729999999996,-12522.285,-17808.344999999998,6718.679999999999,-41521.049999999996,-3.703820764868213,-2.019587592268074,-5.092293846106605,-3.949243157300432,-2.517143525456753,-3.1570087098578945,-4.043338427044123,-1.2409115661649286,0.94518801,0.018371535,0.38683983,-7.5079199999999995,-0.09156,-2.5942,69.0
1774822776.9614253,3.0040740966796875e-05,2026-03-29T22:19:36.961,2026-03-29T18:19:36.961,-33189.299999999996,-46371.645,-85855.275,-50742.45,-12530.744999999999,-17816.805,6714.179999999999,-41519.835,-3.086532577176407,-2.165191199286448,-3.6115897693107217,-3.5065584598302584,-2.293813026902882,-2.5209428985032063,-3.4033266603920955,-1.6791554769434018,0.94518801,0.018371535,0.38683983,-7.5079199999999995,-0.09156,-2.5942,69.0
1774822776.9614525,2.7179718017578125e-05,2026-03-29T22:19:36.961,2026-03-29T18:19:36.961,-33175.575,-46362.96,-85846.00499999999,-50736.555,-12529.98,-17818.649999999998,6717.87,-41512.545,-1.0976901682699867,-1.3431695661788934,-0.38112954634233165,-1.5158755407316764,-1.0219643523502793,-0.6542252864183336,-1.2242333620873922,-1.3074012802278558,0.94518801,0.018371535,0.38683983,-7.5079199999999995,-0.09156,-2.5942,69.0
1774822776.9614656,1.3113021850585938e-05,2026-03-29T22:19:36.961,2026-03-29T18:19:36.961,-33179.445,-46369.17,-85842.72,-50724.854999999996,-12522.24,-17813.475,6722.594999999999,-41512.905,1.2867577936474213,0.05627656975244998,3.028993314828941,0.9996905938657653,0.6686428939335687,1.5752616418611076,1.4517333056789696,-0.26716784529860627,0.94518801,0.018371535,0.38683983,-7.5079199999999995,-0.09156,-2.5942,69.0
1774822776.9651532,0.003687620162963867,2026-03-29T22:19:36.965,2026-03-29T18:19:36.965,-33179.13,-46377.09,-85851.27,-50725.845,-12521.25,-17810.055,6722.955,-41511.06,2.9572844463255725,1.3922447815482477,4.9647070454213145,2.858587622544244,1.982549154847506,3.107029912931745,3.384468400482858,0.9551020071139383,0.947568375,0.017028765,0.389220195,-8.7745,1.49548,-3.52506,69.0
1774822776.9651809,2.765655517578125e-05,2026-03-29T22:19:36.965,2026-03-29T18:19:36.965,-33181.02,-46375.695,-85845.825,-50725.215,-12520.08,-17806.59,6723.719999999999,-41506.695,3.1929613979230256,2.0708553520490183,4.494572424408997,3.2783446434452044,2.331582322042113,3.1895473837890327,3.712911669331817,1.7564796641076867,0.947568375,0.017028765,0.389220195,-8.7745,1.49548,-3.52506,69.0
1774822776.9700787,0.0048978328704833984,2026-03-29T22:19:36.970,2026-03-29T18:19:36.970,-33189.165,-46370.52,-85842.495,-50731.695,-12524.715,-17814.015,6723.675,-41510.97,1.9749820318368125,1.8129625019569042,1.8602772773867549,2.2013765961835254,1.595667086712002,1.7452174703983718,2.3391017686951607,1.7176206708515955,0.947568375,0.017028765,0.389220195,-8.7745,1.49548,-3.52506,69.0
1774822776.970095,1.621246337890625e-05,2026-03-29T22:19:36.970,2026-03-29T18:19:36.970,-33191.729999999996,-46374.345,-85847.48999999999,-50731.02,-12525.705,-17819.82,6715.844999999999,-41513.31,-0.04589821971217434,0.769512765909361,-1.6480118934518433,0.255575048459229,0.15715536801991523,-0.5770732894627832,-0.05211942417161168,0.8239757264413485,0.947568375,0.017028765,0.389220195,-8.7745,1.49548,-3.52506,69.0
1774822776.974015,0.003920078277587891,2026-03-29T22:19:36.974,2026-03-29T18:19:36.974,-33184.305,-46372.86,-85847.31,-50725.439999999995,-12521.564999999999,-17818.695,6708.105,-41508.63,-1.8937653344059358,-0.5634225362938672,-4.327175334665721,-1.5998100221047578,-1.296327313514148,-2.693344333901289,-2.334545583634061,-0.5092356186847999,0.947568375,0.017028765,0.389220195,-8.7745,1.49548,-3.52506,69.0
1774822776.9740357,2.0742416381835938e-05,2026-03-29T22:19:36.974,2026-03-29T18:19:36.974,-33191.865,-46377.405,-85844.47499999999,-50706.99,-12501.404999999999,-17797.77,6711.4349999999995,-41512.814999999995,-2.7427865460866263,-1.5834341458400476,-4.893037640545427,-2.547796540165238,-2.0995087368251584,-3.589250233670281,-3.4728050824207384,-1.6300096368162065,0.947568375,0.017028765,0.389220195,-8.7745,1.49548,-3.52506,69.0
1774822776.9765,0.00246429443359375,2026-03-29T22:19:36.976,2026-03-29T18:19:36.976,-33192.315,-46378.845,-85843.70999999999,-50693.85,-12489.93,-17787.42,6723.9,-41515.064999999995,-2.2901715159521103,-1.8583216817807993,-3.100101390422328,-2.2727473422139752,-1.9120092772035133,-2.8037613295697366,-2.992916325042424,-1.9708765039940055,0.947568375,0.017028765,0.389220195,-8.7745,1.49548,-3.52506,69.0
1774822776.9765232,2.3126602172851562e-05,2026-03-29T22:19:36.976,2026-03-29T18:19:36.976,-33191.955,-46380.869999999995,-85843.75499999999,-50706.27,-12504.555,-17796.149999999998,6725.205,-41516.415,-0.8567152300489084,-1.3116099391823772,0.15189060944965757,-1.0476696605606906,-0.8592406279527546,-0.6621133979374852,-1.1769401408254472,-1.3391233789231363,0.947568375,0.017028765,0.389220195,-8.7745,1.49548,-3.52506,69.0
1774822776.9809213,0.0043981075286865234,2026-03-29T22:19:36.980,2026-03-29T18:19:36.980,-33183.27,-46376.595,-85850.145,-50736.015,-12528.225,-17815.32,6724.755,-41511.555,0.813877615974679,-0.23626335432721124,3.270965974941071,0.4622737015858859,0.5448309534981128,1.8582808457362539,1.0966487032489498,-0.026270849030633876,0.947568375,0.017028765,0.389220195,-8.7745,1.49548,-3.52506,69.0
1774822776.980938,1.6689300537109375e-05,2026-03-29T22:19:36.980,2026-03-29T18:19:36.980,-33172.11,-46369.305,-85847.04,-50734.439999999995,-12530.205,-17824.454999999998,6714.495,-41504.22,1.9391274816389832,0.8604482679156935,4.756965135473443,1.555160441414546,1.6478952806211515,3.574276894881477,2.7787205579830156,1.3253905459536304,0.947568375,0.017028765,0.389220195,-8.7745,1.49548,-3.52506,69.0
1774822776.9868658,0.0059278011322021484,2026-03-29T22:19:36.986,2026-03-29T18:19:36.986,-33176.79,-46367.729999999996,-85841.055,-50723.369999999995,-12520.98,-17821.665,6701.804999999999,-41502.645,2.0676072508957066,1.499629599095304,3.9285430990333086,1.8191455323875667,1.9611333675895253,3.651959784446757,3.13458168643561,2.0386967506485165,0.948789075,0.02038569,0.3881826,-10.48362,1.70912,-5.52412,69.0
1774822776.9868853,1.9550323486328125e-05,2026-03-29T22:19:36.986,2026-03-29T18:19:36.986,-33193.215,-46368.45,-85831.155,-50707.845,-12503.744999999999,-17800.695,6711.48,-41510.79,1.258284280674206,1.4435646345120996,1.23839342094124,1.2785167459045823,1.373695617573884,2.0100111538268837,2.0636417381547973,1.7438249721247148,0.948789075,0.02038569,0.3881826,-10.48362,1.70912,-5.52412,69.0
1774822776.993839,0.006953716278076172,2026-03-29T22:19:36.993,2026-03-29T18:19:36.993,-33202.845,-46371.509999999995,-85832.775,-50702.265,-12497.355,-17792.28,6717.87,-41519.564999999995,-0.0006992139866814677,0.7824282724874176,-1.970550239663374,0.3127725573080561,0.18678967167673396,-0.6231095709288184,0.115291431745279,0.5725960093343385,0.948789075,0.02038569,0.3881826,-10.48362,1.70912,-5.52412,69.0
1774822776.9939184,7.939338684082031e-05,2026-03-29T22:19:36.993,2026-03-29T18:19:36.993,-33191.19,-46373.31,-85831.065,-50681.564999999995,-12485.475,-17783.82,6714.9,-41514.479999999996,-1.071148734245213,-0.13587608871845583,-4.138206415141443,-0.5804909819081698,-1.0399246125705777,-3.033483884384127,-1.7915244858002455,-0.8982145510068965,0.948789075,0.02038569,0.3881826,-10.48362,1.70912,-5.52412,69.0
1774822777.0012105,0.007292032241821289,2026-03-29T22:19:37.001,2026-03-29T18:19:37.001,-33194.475,-46380.015,-85839.61499999999,-50681.61,-12486.96,-17788.635,6715.62,-41514.479999999996,-1.487345888803341,-0.8876003337446149,-4.251361270228828,-1.0399004010839992,-1.7519087083576457,-4.0830224523837915,-2.802418257320798,-1.9314229342459863,0.948789075,0.02038569,0.3881826,-10.48362,1.70912,-5.52412,69.0
1774822777.0012288,1.8358230590820312e-05,2026-03-29T22:19:37.001,2026-03-29T18:19:37.001,-33189.57,-46372.994999999995,-85836.105,-50705.82,-12498.345,-17786.34,6722.6849999999995,-41513.04,-1.15938577345,-1.1722709811276464,-2.3220641786990104,-0.9828669700112318,-1.6494741289104138,-3.247609748593614,-2.5099469582571508,-2.0011936954101204,0.948789075,0.02038569,0.3881826,-10.48362,1.70912,-5.52412,69.0
1774822777.0012426,1.3828277587890625e-05,2026-03-29T22:19:37.001,2026-03-29T18:19:37.001,-33183.54,-46362.555,-85824.54,-50717.79,-12510.494999999999,-17797.005,6715.53,-41512.545,-0.36844720048642665,-0.934023518490509,0.6477102278928073,-0.5823196068150807,-0.8116705276644094,-0.8771163431210828,-1.1134280981155724,-1.0635041669513317,0.948789075,0.02038569,0.3881826,-10.48362,1.70912,-5.52412,69.0
1774822777.0012467,4.0531158447265625e-06,2026-03-29T22:19:37.001,2026-03-29T18:19:37.001,-33185.43,-46368.63,-85835.06999999999,-50716.575,-12507.119999999999,-17792.46,6722.82,-41514.255,0.42238246558207826,-0.3555197448272415,3.1849968282829533,-0.11761200301546605,0.3558646694817547,1.9514586588028573,0.7039658778548006,0.414989306633621,0.948789075,0.02038569,0.3881826,-10.48362,1.70912,-5.52412,69.0
1774822777.0012524,5.7220458984375e-06,2026-03-29T22:19:37.001,2026-03-29T18:19:37.001,-33183.405,-46375.515,-85845.19499999999,-50716.215,-12501.539999999999,-17782.38,6734.969999999999,-41512.68,0.8267031400365903,0.2591693100234402,4.080311562923021,0.1987897914825046,1.3176069383603048,3.9263560874280676,2.1091515618977965,1.688510411163804,0.948789075,0.02038569,0.3881826,-10.48362,1.70912,-5.52412,69.0
1774822777.0012565,4.0531158447265625e-06,2026-03-29T22:19:37.001,2026-03-29T18:19:37.001,-33178.905,-46367.82,-85830.39,-50710.77,-12505.095,-17793.54,6725.835,-41512.994999999995,0.7226595978877088,0.6437234780968804,2.969803504900657,0.31804620208002105,1.654114043370931,4.112725192292378,2.5009717522760617,2.109462318918726,0.948789075,0.02038569,0.3881826,-10.48362,1.70912,-5.52412,69.0
1774822777.0047276,0.0034711360931396484,2026-03-29T22:19:37.004,2026-03-29T18:19:37.004,-33185.744999999995,-46366.515,-85826.79,-50711.085,-12507.345,-17796.285,6723.54,-41518.26,0.27923850005505674,0.6878808814289639,0.48235570820537754,0.3313577554100347,1.2441725617158976,2.396820098197424,1.7649859942201913,1.4600050962522986,0.94714113,0.02270502,0.38195703000000003,-11.00246,1.6175599999999999,-6.14978,69.0
1774822777.0047452,1.7642974853515625e-05,2026-03-29T22:19:37.004,2026-03-29T18:19:37.004,-33181.11,-46363.725,-85832.55,-50715.45,-12507.975,-17795.835,6726.014999999999,-41518.17,-0.1768401696278877,0.46104992483550733,-2.1075059689247384,0.35893854173269574,0.30424947403444286,-0.44943627048836987,0.29456069958334463,0.06712528751899398,0.94714113,0.02270502,0.38195703000000003,-11.00246,1.6175599999999999,-6.14978,69.0
1774822777.0093558,0.004610538482666016,2026-03-29T22:19:37.009,2026-03-29T18:19:37.009,-33174.494999999995,-46363.545,-85847.76,-50730.479999999996,-12519.72,-17811.18,6726.375,-41517.18,-0.3665223114447808,0.14149034791043072,-3.5327797081115033,0.4353763605819299,-0.7252678530416412,-3.119066721577662,-1.2162187923546643,-1.3604884572979867,0.94714113,0.02270502,0.38195703000000003,-11.00246,1.6175599999999999,-6.14978,69.0
1774822777.0093718,1.5974044799804688e-05,2026-03-29T22:19:37.009,2026-03-29T18:19:37.009,-33184.125,-46374.165,-85854.915,-50736.735,-12524.13,-17815.094999999998,6723.2699999999995,-41522.939999999995,-0.21646919456618718,-0.09929977146089161,-3.158450425961314,0.47204697270540796,-1.387787456505504,-4.375362614649473,-2.100044785052559,-2.0929440753464483,0.94714113,0.02270502,0.38195703000000003,-11.00246,1.6175599999999999,-6.14978,69.0
1774822777.0132253,0.0038535594940185547,2026-03-29T22:19:37.013,2026-03-29T18:19:37.013,-33182.64,-46377.36,-85853.205,-50741.729999999996,-12528.09,-17816.13,6718.365,-41522.13,0.11569947207730229,-0.1883926156727692,-1.2674232582979632,0.3238256627787046,-1.4136665500576246,-3.6292633771856275,-2.009851154826974,-1.7535171188820782,0.94714113,0.02270502,0.38195703000000003,-11.00246,1.6175599999999999,-6.14978,69.0
1774822777.0132637,3.838539123535156e-05,2026-03-29T22:19:37.013,2026-03-29T18:19:37.013,-33177.555,-46370.88,-85842.495,-50735.7,-12523.005,-17809.559999999998,6718.005,-41520.645,0.3554486616953846,-0.1705633141750786,1.122294125850759,-0.08320287448190927,-0.8279670139219526,-1.2169695793296207,-1.0499057320738188,-0.5142318686891815,0.94714113,0.02270502,0.38195703000000003,-11.00246,1.6175599999999999,-6.14978,69.0
1774822777.0167491,0.003485441207885742,2026-03-29T22:19:37.016,2026-03-29T18:19:37.016,-33186.735,-46370.564999999995,-85830.165,-50713.155,-12503.475,-17790.975,6723.675,-41524.2,0.292239377821355,-0.15144143512220193,2.799726485630251,-0.6508505719777083,0.07942195411511926,1.7540732673333361,0.30198386771840563,0.9896870762045483,0.94714113,0.02270502,0.38195703000000003,-11.00246,1.6175599999999999,-6.14978,69.0
1774822777.0167675,1.8358230590820312e-05,2026-03-29T22:19:37.016,2026-03-29T18:19:37.016,-33189.525,-46370.97,-85824.045,-50703.435,-12497.31,-17790.165,6719.085,-41524.424999999996,-0.08089447233333134,-0.20636370726758105,2.975921615295596,-1.1128095942261813,0.898669206381216,3.919416163941314,1.4311369532346974,1.9846024932215196,0.94714113,0.02270502,0.38195703000000003,-11.00246,1.6175599999999999,-6.14978,69.0
1774822777.0210955,0.004328012466430664,2026-03-29T22:19:37.021,2026-03-29T18:19:37.021,-33180.255,-46365.975,-85821.75,-50699.025,-12492.359999999999,-17786.61,6714.8099999999995,-41517.405,-0.5516810260111964,-0.3156716425218642,1.658814059784031,-1.1608814961383005,1.287011868801581,4.290730124309945,1.8648086924322789,1.9565953155524092,0.94714113,0.02270502,0.38195703000000003,-11.00246,1.6175599999999999,-6.14978,69.0
1774822777.021116,2.0503997802734375e-05,2026-03-29T22:19:37.021,2026-03-29T18:19:37.021,-33190.244999999995,-46375.244999999995,-85837.31999999999,-50712.93,-12502.89,-17790.93,6720.4349999999995,-41522.85,-0.8078634599841336,-0.3698923093094055,-0.39190655960966475,-0.6331000615423136,1.1115677576511502,2.7109208979249635,1.4670505919104597,0.9177681194836678,0.94714113,0.02270502,0.38195703000000003,-11.00246,1.6175599999999999,-6.14978,69.0
1774822777.0246503,0.0035343170166015625,2026-03-29T22:19:37.024,2026-03-29T18:19:37.024,-33187.95,-46379.52,-85859.415,-50731.83,-12515.715,-17800.965,6725.205,-41526.09,-0.6249286063924222,-0.2446784565045655,-2.0895303766527866,0.34530281974606414,0.4885713355253233,-0.08046445674700521,0.47099004948502016,-0.5977808910603265,0.949399425,0.023254335,0.38159082,-10.468359999999999,2.92992,-6.72966,69.0
1774822777.0246668,1.6450881958007812e-05,2026-03-29T22:19:37.024,2026-03-29T18:19:37.024,-33173.1,-46373.174999999996,-85860.855,-50737.77,-12520.035,-17805.69,6728.175,-41517.9,-0.015223469469454654,0.09934202513294896,-2.5919961556161186,1.3647458762288727,-0.2886484228792946,-2.798429732720844,-0.6518530690787662,-1.8078258939854033,0.949399425,0.023254335,0.38159082,-10.468359999999999,2.92992,-6.72966,69.0
1774822777.029007,0.004340171813964844,2026-03-29T22:19:37.029,2026-03-29T18:19:37.029,-33176.205,-46366.47,-85841.19,-50728.5,-12520.574999999999,-17816.579999999998,6717.0599999999995,-41524.29,0.7500878346217612,0.5562894697846135,-1.7212477072885652,1.9024467336799704,-0.8902492330482363,-4.211405543175278,-1.4141059107282297,-2.085464276204205,0.949399425,0.023254335,0.38159082,-10.468359999999999,2.92992,-6.72966,69.0
1774822777.0290232,1.621246337890625e-05,2026-03-29T22:19:37.029,2026-03-29T18:19:37.029,-33180.659999999996,-46363.14,-85830.705,-50727.195,-12528.135,-17833.635,6705.675,-41531.49,1.2667163169408524,0.9005937582533371,-0.020611406796865666,1.5906196074750625,-1.0904837839170298,-3.705252272108489,-1.5222158467313043,-1.283922363755649,0.949399425,0.023254335,0.38159082,-10.468359999999999,2.92992,-6.72966,69.0
1774822777.0328465,0.0038232803344726562,2026-03-29T22:19:37.032,2026-03-29T18:19:37.032,-33181.83,-46371.195,-85838.44499999999,-50726.655,-12526.02,-17832.555,6700.995,-41529.78,1.2098542523013815,0.8969172477833606,1.564631478889118,0.4441723043819619,-0.8479442606772563,-1.551153650299498,-0.9840569618601012,0.18584902894414818,0.949399425,0.023254335,0.38159082,-10.468359999999999,2.92992,-6.72966,69.0
1774822777.0328665,2.002716064453125e-05,2026-03-29T22:19:37.032,2026-03-29T18:19:37.032,-33188.534999999996,-46376.1,-85837.095,-50720.445,-12512.07,-17806.905,6705.179999999999,-41527.619999999995,0.5222135068761834,0.4413102394655623,2.202185968895585,-1.0854901369743268,-0.29946343328310526,1.2400189375977915,-0.0782041603649808,1.5659734582167668,0.949399425,0.023254335,0.38159082,-10.468359999999999,2.92992,-6.72966,69.0
1774822777.036785,0.00391840934753418,2026-03-29T22:19:37.036,2026-03-29T18:19:37.036,-33183.27,-46361.295,-85823.325,-50705.46,-12492.045,-17777.565,6728.58,-41526.045,-0.526390539378996,-0.3456237724169735,1.6063964009077936,-2.284315257483123,0.3169968146159951,3.398658618410165,0.7881745125352266,2.142640053817982,0.949399425,0.023254335,0.38159082,-10.468359999999999,2.92992,-6.72966,69.0
1774822777.0368025,1.7642974853515625e-05,2026-03-29T22:19:37.036,2026-03-29T18:19:37.036,-33181.244999999995,-46363.77,-85820.31,-50696.28,-12481.335,-17763.975,6736.679999999999,-41524.064999999995,-1.4484839589394032,-1.1361138812362883,0.16578734918667185,-2.5124441723496043,0.7671559856274388,3.9808006376055376,1.2611233486171238,1.6152630013870168,0.949399425,0.023254335,0.38159082,-10.468359999999999,2.92992,-6.72966,69.0
1774822777.0413415,0.004539012908935547,2026-03-29T22:19:37.041,2026-03-29T18:19:37.041,-33168.869999999995,-46364.265,-85832.01,-50717.7,-12508.154999999999,-17795.925,6731.325,-41520.015,-1.7708572467552233,-1.5316110314835552,-1.2921304473382706,-1.5436052982140598,0.9058850800430831,2.7836139462622937,1.180833287098557,0.25256461085929294,0.949399425,0.023254335,0.38159082,-10.468359999999999,2.92992,-6.72966,69.0
1774822777.0413625,2.09808349609375e-05,2026-03-29T22:19:37.041,2026-03-29T18:19:37.041,-33171.075,-46367.909999999996,-85846.815,-50734.845,-12526.695,-17818.739999999998,6720.12,-41525.189999999995,-1.276294661263017,-1.2614736264997128,-1.9622663593379992,0.2720995549731815,0.7141929168185804,0.40781984384450876,0.6276561931001813,-1.245525724296564,0.949399425,0.023254335,0.38159082,-10.468359999999999,2.92992,-6.72966,69.0
1774822777.04504,0.0036773681640625,2026-03-29T22:19:37.045,2026-03-29T18:19:37.045,-33173.325,-46367.1,-85845.645,-50722.29,-12518.414999999999,-17821.53,6710.085,-41530.095,-0.1320423989346359,-0.34565333439524687,-1.4971179190133825,2.125685379433871,0.28522631916687924,-2.0467092468089056,-0.13478400790651102,-2.10881334152256,0.949033215,0.026794365,0.38146875,-10.804079999999999,4.97476,-7.84364,69.0
1774822777.0450664,2.6464462280273438e-05,2026-03-29T22:19:37.045,2026-03-29T18:19:37.045,-33174.9,-46368.045,-85840.73999999999,-50701.59,-12499.74,-17811.855,6708.42,-41530.229999999996,1.1659663044283695,0.8701168677112415,-0.1837604831649298,3.1132399797011994,-0.22259760439554643,-3.4965364409589035,-0.7839884939285823,-1.8937672984682634,0.949033215,0.026794365,0.38146875,-10.804079999999999,4.97476,-7.84364,69.0
1774822777.0486753,0.0036089420318603516,2026-03-29T22:19:37.048,2026-03-29T18:19:37.048,-33185.744999999995,-46368.405,-85826.385,-50690.655,-12489.75,-17796.69,6720.884999999999,-41536.395,2.014425472765091,1.8418753419188973,1.2262717983251927,2.6810015773075015,-0.6410105005679207,-3.356660196788641,-1.0723170913197944,-0.7111442674164496,0.949033215,0.026794365,0.38146875,-10.804079999999999,4.97476,-7.84364,69.0
1774822777.048695,1.9788742065429688e-05,2026-03-29T22:19:37.048,2026-03-29T18:19:37.048,-33182.055,-46370.835,-85831.83,-50718.42,-12508.515,-17791.739999999998,6734.61,-41531.13,1.9877407411997352,2.072238173464187,1.9359088922744974,0.9304985716334234,-0.8383109273484757,-1.7727346634760466,-0.9160960911740103,0.8328027247373831,0.949033215,0.026794365,0.38146875,-10.804079999999999,4.97476,-7.84364,69.0
1774822777.052824,0.004128932952880859,2026-03-29T22:19:37.052,2026-03-29T18:19:37.052,-33184.395,-46375.56,-85844.205,-50742.36,-12527.279999999999,-17804.204999999998,6725.474999999999,-41528.655,1.0502070442603046,1.3616230333639696,1.5406057289217112,-1.3823884287674923,-0.7504171187778679,0.4862835233680138,-0.4112803722648046,1.949906303210232,0.949033215,0.026794365,0.38146875,-10.804079999999999,4.97476,-7.84364,69.0
1774822777.052837,1.2874603271484375e-05,2026-03-29T22:19:37.052,2026-03-29T18:19:37.052,-33182.369999999995,-46374.255,-85845.555,-50731.424999999996,-12520.755,-17808.614999999998,6718.455,-41526.765,-0.40998565507691365,-0.059800235906755754,0.24908696417336,-3.1759485918115993,-0.39691635461013147,2.4052202362753357,0.22076937215236625,2.075130980994848,0.949033215,0.026794365,0.38146875,-10.804079999999999,4.97476,-7.84364,69.0
1774822777.059455,0.006618022918701172,2026-03-29T22:19:37.059,2026-03-29T18:19:37.059,-33195.015,-46384.604999999996,-85845.735,-50719.905,-12510.404999999999,-17805.239999999998,6721.605,-41531.715,-1.7467761594979059,-1.5975247148546776,-1.230312840276588,-3.555002776901635,0.11838253073421848,3.182731476999847,0.7282385579422301,1.1535586893046337,0.949033215,0.026794365,0.38146875,-10.804079999999999,4.97476,-7.84364,69.0
1774822777.0594745,1.9550323486328125e-05,2026-03-29T22:19:37.059,2026-03-29T18:19:37.059,-33194.385,-46385.369999999995,-85846.72499999999,-50717.384999999995,-12510.945,-17808.39,6719.94,-41534.369999999995,-2.3486318459226503,-2.542447074476843,-2.0745170731319855,-2.2614241672535,0.6271246780093439,2.5640506953842523,0.9249742740894282,-0.3373575124736879,0.949033215,0.026794365,0.38146875,-10.804079999999999,4.97476,-7.84364,69.0
1774822777.0637112,0.004236698150634766,2026-03-29T22:19:37.063,2026-03-29T18:19:37.063,-33182.82,-46372.68,-85839.20999999999,-50718.15,-12509.01,-17799.795,6712.5599999999995,-41530.725,-1.9220947285534489,-2.399531553897357,-1.7938876416197658,0.16561544908992284,0.9409765929484168,0.9096227293467223,0.7536232566674833,-1.6385638784817507,0.949033215,0.026794365,0.38146875,-10.804079999999999,4.97476,-7.84364,69.0
1774822777.0637324,2.1219253540039062e-05,2026-03-29T22:19:37.063,2026-03-29T18:19:37.063,-33189.75,-46367.64,-85827.23999999999,-50698.395,-12493.26,-17783.19,6719.8949999999995,-41537.924999999996,-0.6334391883317978,-1.1423502363386502,-0.5030417969499834,2.6142523770595982,0.9166936875435863,-1.0083890743865416,0.2975956654992459,-2.100325487261424,0.949033215,0.026794365,0.38146875,-10.804079999999999,4.97476,-7.84364,69.0
1774822777.063752,1.9550323486328125e-05,2026-03-29T22:19:37.063,2026-03-29T18:19:37.063,-33194.97,-46372.14,-85816.215,-50690.88,-12493.845,-17784.405,6729.165,-41537.295,0.9593639980368263,0.7356159637272993,1.1310540031830356,3.915976446310182,0.5221860116597821,-2.3689886706362846,-0.2573417760277854,-1.5100162093031093,0.9468359550000001,0.027648855,0.37890528,-10.01056,5.27996,-8.19462,69.0
1774822777.063762,1.0013580322265625e-05,2026-03-29T22:19:37.063,2026-03-29T18:19:37.063,-33191.369999999995,-46373.939999999995,-85828.815,-50711.13,-12509.955,-17796.149999999998,6728.355,-41533.29,2.154751717176411,2.4132738668476446,2.237284960429318,3.4104300723796017,-0.12723037570570256,-2.652897071603456,-0.6952025439493025,-0.18963777465582285,0.9468359550000001,0.027648855,0.37890528,-10.01056,5.27996,-8.19462,69.0
1774822777.0712037,0.00744175910949707,2026-03-29T22:19:37.071,2026-03-29T18:19:37.071,-33178.635,-46364.939999999995,-85825.575,-50698.619999999995,-12499.335,-17791.515,6725.115,-41527.53,2.4224855854601444,3.1036253578310062,2.2015028281297666,1.2826342776876105,-0.7899844665188639,-1.8318812876964004,-0.8498299994710687,1.1818098341432481,0.9468359550000001,0.027648855,0.37890528,-10.01056,5.27996,-8.19462,69.0
1774822777.071232,2.8371810913085938e-05,2026-03-29T22:19:37.071,2026-03-29T18:19:37.071,-33181.02,-46368.945,-85840.425,-50711.22,-12506.355,-17800.92,6718.094999999999,-41520.465,1.6414651708014842,2.4243928855813,0.9975165560496135,-1.5005866551717304,-1.182829562299132,-0.33346834846984696,-0.6656764753118122,1.9228335806998502,0.9468359550000001,0.027648855,0.37890528,-10.01056,5.27996,-8.19462,69.0
1774822777.076642,0.005409955978393555,2026-03-29T22:19:37.076,2026-03-29T18:19:37.076,-33184.034999999996,-46373.985,-85849.83,-50721.525,-12510.225,-17812.215,6712.785,-41519.564999999995,0.15269731966845052,0.6024709190001659,-0.7869298889087748,-3.6356484143139425,-1.102579219697045,1.179363093068766,-0.2183688896731847,1.6936701562638345,0.9468359550000001,0.027648855,0.37890528,-10.01056,5.27996,-8.19462,69.0
1774822777.0766633,2.1219253540039062e-05,2026-03-29T22:19:37.076,2026-03-29T18:19:37.076,-33191.415,-46382.805,-85853.79,-50749.515,-12528.314999999999,-17820.855,6712.425,-41523.479999999996,-1.3949019757933265,-1.5945662113818406,-2.2447740305161363,-4.10107240563983,-0.5323470166997047,2.1007355643990624,0.3132027697128076,0.6537692137053548,0.9468359550000001,0.027648855,0.37890528,-10.01056,5.27996,-8.19462,69.0
1774822777.0766833,2.002716064453125e-05,2026-03-29T22:19:37.076,2026-03-29T18:19:37.076,-33190.38,-46380.104999999996,-85846.185,-50749.064999999995,-12533.355,-17819.82,6712.11,-41525.595,-2.3338044411035086,-3.1835521426484084,-2.613678559606664,-2.652444983402105,0.32380997834822367,2.118214095560022,0.7150596958824492,-0.6415841645239329,0.9468359550000001,0.027648855,0.37890528,-10.01056,5.27996,-8.19462,69.0
1774822777.0766912,7.867813110351562e-06,2026-03-29T22:19:37.076,2026-03-29T18:19:37.076,-33190.965,-46375.515,-85831.2,-50718.645,-12510.72,-17798.219999999998,6718.545,-41529.33,-2.270463475586435,-3.4090251132280227,-1.670687745898377,0.049250431643972865,1.1075051902720632,1.3047478656249605,0.8227376341735274,-1.5417231305432908,0.9468359550000001,0.027648855,0.37890528,-10.01056,5.27996,-8.19462,69.0
1774822777.0814455,0.004754304885864258,2026-03-29T22:19:37.081,2026-03-29T18:19:37.081,-33179.625,-46371.06,-85826.295,-50718.869999999995,-12523.185,-17819.73,6711.929999999999,-41524.83,-1.2509156089415465,-2.1035106006352735,0.14537623345548442,2.743272011844436,1.456323713451928,0.04861885842769205,0.5897614700880939,-1.6343948658439211,0.9468359550000001,0.027648855,0.37890528,-10.01056,5.27996,-8.19462,69.0
1774822777.0814643,1.8835067749023438e-05,2026-03-29T22:19:37.081,2026-03-29T18:19:37.081,-33172.965,-46369.665,-85831.83,-50720.58,-12521.25,-17821.71,6708.87,-41517.72,0.27050358509349587,0.2073932899105374,1.9469281850138087,4.165373353957277,1.1746620903446499,-1.1295957763589244,0.1106941844859948,-0.9387205542427011,0.9468359550000001,0.027648855,0.37890528,-10.01056,5.27996,-8.19462,69.0
1774822777.0891452,0.0076808929443359375,2026-03-29T22:19:37.089,2026-03-29T18:19:37.089,-33180.615,-46368.854999999996,-85829.805,-50715.27,-12508.064999999999,-17799.524999999998,6720.165,-41519.52,1.6392737605543806,2.515881584519941,2.838422806458715,3.6488681277224537,0.3429578957255376,-1.787859621008125,-0.4142653928429122,0.13520643560986556,0.944272485,0.03039543,0.377379405,-10.89564,4.77638,-8.805019999999999,69.0
1774822777.0891783,3.314018249511719e-05,2026-03-29T22:19:37.089,2026-03-29T18:19:37.089,-33186.195,-46368.765,-85832.86499999999,-50719.095,-12510.359999999999,-17795.25,6725.205,-41526.27,2.2879102613968865,3.774619771017663,2.3628322802795623,1.4410816047826898,-0.6955409063162209,-1.719023766049734,-0.7618947623674944,1.0254528515257368,0.944272485,0.03039543,0.377379405,-10.89564,4.77638,-8.805019999999999,69.0
1774822777.0892084,3.0040740966796875e-05,2026-03-29T22:19:37.089,2026-03-29T18:19:37.089,-33182.505,-46366.784999999996,-85830.93,-50710.905,-12502.215,-17793.045,6715.8,-41528.88,1.9737560982923048,3.3755101752318017,0.7305652264851578,-1.416765698099606,-1.476156797709929,-1.0034249632047925,-0.7823588031631464,1.3183531552141967,0.944272485,0.03039543,0.377379405,-10.89564,4.77638,-8.805019999999999,69.0
1774822777.08922,1.1682510375976562e-05,2026-03-29T22:19:37.089,2026-03-29T18:19:37.089,-33183.18,-46372.229999999996,-85839.48,-50721.345,-12516.39,-17810.46,6713.955,-41531.85,0.8665942962072122,1.4442839271360326,-1.2815918969579319,-3.586976236525611,-1.6242606047470851,0.04703892170563072,-0.46690721083431386,0.9471534485915548,0.944272485,0.03039543,0.377379405,-10.89564,4.77638,-8.805019999999999,69.0
1774822777.0930953,0.003875255584716797,2026-03-29T22:19:37.093,2026-03-29T18:19:37.093,-33180.119999999995,-46371.6,-85845.285,-50736.015,-12528.494999999999,-17821.305,6718.094999999999,-41533.875,-0.5437157495775455,-1.1920175443382666,-2.708904572132319,-4.069346337156913,-1.0387785971526107,1.020459531049907,0.045532417415820606,0.19071012354959943,0.944272485,0.03039543,0.377379405,-10.89564,4.77638,-8.805019999999999,69.0
1774822777.093135,3.981590270996094e-05,2026-03-29T22:19:37.093,2026-03-29T18:19:37.093,-33182.055,-46375.335,-85846.95,-50733.72,-12524.355,-17809.335,6718.679999999999,-41536.575,-1.669377741209878,-3.3608909626131123,-2.866040604876788,-2.6675067215571193,0.043948521789593055,1.559215761821815,0.5286949655328996,-0.512026328023438,0.944272485,0.03039543,0.377379405,-10.89564,4.77638,-8.805019999999999,69.0
1774822777.109154,0.01601886749267578,2026-03-29T22:19:37.109,2026-03-29T18:19:37.109,-33186.24,-46377.765,-85841.955,-50717.115,-12506.895,-17789.579999999998,6723.495,-41541.885,-2.073525156714843,-4.069816394216874,-1.6747553161345186,-0.06774505222299783,1.1445869935353308,1.4837799509774354,0.7706475069943673,-0.8162128780179246,0.944272485,0.03039543,0.377379405,-10.89564,4.77638,-8.805019999999999,69.0
1774822777.1091805,2.6464462280273438e-05,2026-03-29T22:19:37.109,2026-03-29T18:19:37.109,-33188.04,-46376.64,-85835.97,-50712.705,-12499.56,-17785.44,6729.48,-41545.799999999996,-1.638677572909535,-2.9642492697424165,0.3040115415316418,2.5004721157275815,1.7563430599199386,0.8477968396358689,0.6702014942029196,-0.6477115024878835,0.944272485,0.03039543,0.377379405,-10.89564,4.77638,-8.805019999999999,69.0
1774822777.109207,2.6464462280273438e-05,2026-03-29T22:19:37.109,2026-03-29T18:19:37.109,-33185.43,-46375.74,-85836.87,-50723.685,-12518.279999999999,-17812.215,6721.425,-41545.845,-0.5904797886686302,-0.5053476134620191,2.1431137891284124,3.85254446557719,1.5829581033414355,-0.08997801322263467,0.28228754172219456,-0.20857656235109265,0.944272485,0.03039543,0.377379405,-10.89564,4.77638,-8.805019999999999,69.0
1774822777.1092176,1.0728836059570312e-05,2026-03-29T22:19:37.109,2026-03-29T18:19:37.109,-33178.635,-46376.955,-85844.565,-50727.465,-12525.75,-17820.09,6718.679999999999,-41540.805,0.6205739448191415,2.2216940194258763,2.990220596637793,3.4008905436422885,0.6850904234780926,-0.9650667691068546,-0.20995071166651239,0.17858814975887516,0.944272485,0.03039543,0.377379405,-10.89564,4.77638,-8.805019999999999,69.0
1774822777.1092305,1.2874603271484375e-05,2026-03-29T22:19:37.109,2026-03-29T18:19:37.109,-33176.43,-46381.68,-85851.94499999999,-50724.63,-12517.38,-17806.14,6716.295,-41537.115,1.5171683987851197,3.9894895426730073,2.4640128255761105,1.4111802487407985,-0.5385968194559285,-1.4435063616853816,-0.5831409094890152,0.28400081195658194,0.94164798,0.03259269,0.37329006,-14.207059999999998,4.59326,-11.368699999999999,69.0
1774822777.10924,9.5367431640625e-06,2026-03-29T22:19:37.109,2026-03-29T18:19:37.109,-33171.39,-46379.79,-85851.045,-50732.909999999996,-12527.505,-17808.434999999998,6714.179999999999,-41533.74,1.7839191391019766,3.9853955573307243,0.8210144550936211,-1.1492565143848903,-1.531216705200525,-1.3472718692762091,-0.6788304723274798,0.10878841422163152,0.94164798,0.03259269,0.37329006,-14.207059999999998,4.59326,-11.368699999999999,69.0
1774822777.1092513,1.1205673217773438e-05,2026-03-29T22:19:37.109,2026-03-29T18:19:37.109,-33178.635,-46372.5,-85838.715,-50721.884999999995,-12517.65,-17804.07,6713.82,-41543.595,1.3719475328164803,2.1890188002281943,-1.1771155586564792,-3.085813119624816,-1.8357659251711398,-0.7226825434579359,-0.4743692414589557,-0.13497806055249562,0.94164798,0.03259269,0.37329006,-14.207059999999998,4.59326,-11.368699999999999,69.0
1774822777.10926,8.821487426757812e-06,2026-03-29T22:19:37.109,2026-03-29T18:19:37.109,-33183.854999999996,-46365.705,-85821.56999999999,-50712.165,-12503.115,-17788.905,6715.62,-41553.494999999995,0.4883465988988273,-0.6066219240685777,-2.623836096719016,-3.5390681289766954,-1.3095742487183468,0.17630143566135503,-0.08566347818714783,-0.18564698056829276,0.94164798,0.03259269,0.37329006,-14.207059999999998,4.59326,-11.368699999999999,69.0
1774822777.1213903,0.012130260467529297,2026-03-29T22:19:37.121,2026-03-29T18:19:37.121,-33190.244999999995,-46378.799999999996,-85829.04,-50703.705,-12498.3,-17785.89,6718.815,-41556.645,-0.5095937633505029,-3.146084230861605,-2.8817046305006344,-2.3681078626841483,-0.19250199667097354,0.9870870982047784,0.2971698532396367,0.07090714161465828,0.94164798,0.03259269,0.37329006,-14.207059999999998,4.59326,-11.368699999999999,69.0
1774822777.1214051,1.4781951904296875e-05,2026-03-29T22:19:37.121,2026-03-29T18:19:37.121,-33195.825,-46401.075,-85854.735,-50703.03,-12501.18,-17795.52,6716.969999999999,-41556.915,-1.260817110534656,-4.27898121976269,-1.8599019099535303,-0.1830594329945228,1.0042935943701645,1.383694119815847,0.5061661146938196,0.4988118176218087,0.94164798,0.03259269,0.37329006,-14.207059999999998,4.59326,-11.368699999999999,69.0
1774822777.1214178,1.2636184692382812e-05,2026-03-29T22:19:37.121,2026-03-29T18:19:37.121,-33186.735,-46394.775,-85851.18,-50701.005,-12498.255,-17790.434999999998,6716.969999999999,-41552.415,-1.526632451727819,-3.485954609565743,-0.03658036607617051,1.9721887037002515,1.7364096393511093,1.2104669727278363,0.4735912270354362,0.7787959351031994,0.94164798,0.03259269,0.37329006,-14.207059999999998,4.59326,-11.368699999999999,69.0
1774822777.1214223,4.5299530029296875e-06,2026-03-29T22:19:37.121,2026-03-29T18:19:37.121,-33173.729999999996,-46371.465,-85837.59,-50723.369999999995,-12514.275,-17799.57,6717.42,-41549.354999999996,-1.2550592226419284,-1.1206983381726876,1.7717471332267183,3.122044704164633,1.6781035053518314,0.5476172126602425,0.25306519906936337,0.6132565981294482,0.94164798,0.03259269,0.37329006,-14.207059999999998,4.59326,-11.368699999999999,69.0
1774822777.1214273,5.0067901611328125e-06,2026-03-29T22:19:37.121,2026-03-29T18:19:37.121,-33176.79,-46361.564999999995,-85832.145,-50730.795,-12521.16,-17804.204999999998,6713.55,-41551.83,-0.5735022584569347,1.7463123221097396,2.779302540707496,2.802962694064657,0.8694018108841037,-0.32179595645573594,-0.022998869308744122,-0.05272188872913924,0.94164798,0.03259269,0.37329006,-14.207059999999998,4.59326,-11.368699999999999,69.0
1774822777.1214314,4.0531158447265625e-06,2026-03-29T22:19:37.121,2026-03-29T18:19:37.121,-33179.895,-46359.63,-85823.73,-50719.455,-12513.24,-17801.91,6714.9,-41559.435,0.27270014466281517,3.813998878652012,2.570176028270568,1.2462239021341956,-0.309026211993637,-1.0319960139559399,-0.2218327340736684,-0.9385971090469217,0.94164798,0.03259269,0.37329006,-14.207059999999998,4.59326,-11.368699999999999,69.0
1774822777.1276028,0.006171464920043945,2026-03-29T22:19:37.127,2026-03-29T18:19:37.127,-33172.695,-46356.345,-85816.575,-50706.494999999995,-12503.609999999999,-17797.5,6718.7699999999995,-41561.955,1.0055246744477675,4.145266919075143,1.2626793244037178,-0.7696484969776235,-1.318090872462092,-1.2910375178950215,-0.2788340313180635,-1.541628755295177,0.941953155,0.030944745,0.372618675,-19.27338,3.69292,-12.83366,69.0
1774822777.127627,2.4080276489257812e-05,2026-03-29T22:19:37.127,2026-03-29T18:19:37.127,-33173.505,-46363.455,-85825.75499999999,-50711.265,-12507.525,-17794.53,6729.705,-41564.744999999995,1.3954458219108519,2.5965891556808507,-0.5614272994227205,-2.3083860502967437,-1.7108336133732036,-1.0051340692673358,-0.21876965906708545,-1.4133438990386267,0.941953155,0.030944745,0.372618675,-19.27338,3.69292,-12.83366,69.0
1774822777.1276488,2.193450927734375e-05,2026-03-29T22:19:37.127,2026-03-29T18:19:37.127,-33171.525,-46370.88,-85844.06999999999,-50729.625,-12527.55,-17817.704999999998,6719.759999999999,-41562.0,1.3212363883938285,-0.11632719162328792,-2.119551171933974,-2.7122532985510137,-1.3329314841784923,-0.3152419404692203,-0.1218404857182986,-0.4501437504916041,0.941953155,0.030944745,0.372618675,-19.27338,3.69292,-12.83366,69.0
1774822777.1276588,1.0013580322265625e-05,2026-03-29T22:19:37.127,2026-03-29T18:19:37.127,-33168.735,-46376.549999999996,-85844.06999999999,-50729.715,-12524.895,-17809.829999999998,6717.33,-41556.51,0.8008031729418816,-2.7482970712541945,-2.762326035310123,-1.8812579424127922,-0.38203305617775307,0.4702861131589075,-0.06010929138187003,0.9779010325547631,0.941953155,0.030944745,0.372618675,-19.27338,3.69292,-12.83366,69.0
1774822777.1335282,0.005869388580322266,2026-03-29T22:19:37.133,2026-03-29T18:19:37.133,-33177.915,-46378.845,-85835.87999999999,-50725.305,-12522.15,-17800.739999999998,6723.405,-41554.53,-0.010185624381047488,-4.098268980273018,-2.237677508126776,-0.2781599275875402,0.6959923620946836,1.015549519498335,-0.04708304454944103,2.160465579560794,0.941953155,0.030944745,0.372618675,-19.27338,3.69292,-12.83366,69.0
1774822777.133541,1.2874603271484375e-05,2026-03-29T22:19:37.133,2026-03-29T18:19:37.133,-33202.619999999995,-46376.729999999996,-85825.53,-50703.795,-12496.455,-17780.175,6726.285,-41572.08,-0.8542240338572947,-3.561681754887615,-0.7815445862186353,1.3229438833305998,1.4191266006945409,1.1048163149994348,-0.033946482102804466,2.4000967251624234,0.941953155,0.030944745,0.372618675,-19.27338,3.69292,-12.83366,69.0
1774822777.1370368,0.0034956932067871094,2026-03-29T22:19:37.137,2026-03-29T18:19:37.137,-33195.33,-46372.32,-85828.31999999999,-50707.259999999995,-12498.795,-17782.065,6726.285,-41572.215,-1.441498680611354,-1.4058074555024118,0.9920746448535807,2.210024419977833,1.4872524433029868,0.7308314779638875,0.04472558794507945,1.4093877366128729,0.941953155,0.030944745,0.372618675,-19.27338,3.69292,-12.83366,69.0
1774822777.1370535,1.6689300537109375e-05,2026-03-29T22:19:37.137,2026-03-29T18:19:37.137,-33180.84,-46370.97,-85842.62999999999,-50728.005,-12523.185,-17807.04,6718.7699999999995,-41567.625,-1.5422593321745772,1.3592066435882924,2.3486221250462327,2.0485584305718625,0.906368495253543,0.08568787246764248,0.20656289540443878,-0.46911654487840587,0.941953155,0.030944745,0.372618675,-19.27338,3.69292,-12.83366,69.0
1774822777.1409948,0.00394129753112793,2026-03-29T22:19:37.140,2026-03-29T18:19:37.140,-33188.354999999996,-46385.775,-85859.28,-50742.9,-12541.05,-17826.165,6711.884999999999,-41569.92,-1.0769524006896296,3.452817741537395,2.7309705141740865,1.0001596769807681,-0.03208499992673526,-0.5370644565980051,0.384508471119904,-2.3656576075362037,0.941953155,0.030944745,0.372618675,-19.27338,3.69292,-12.83366,69.0
1774822777.1410148,2.002716064453125e-05,2026-03-29T22:19:37.141,2026-03-29T18:19:37.141,-33189.615,-46385.729999999996,-85856.265,-50733.99,-12529.395,-17813.925,6715.53,-41573.43,-0.16866395645078075,3.9193681443640256,1.9808239897035536,-0.3928367520551848,-0.898390692117913,-0.8792363748772122,0.44973851871984855,-3.288563569889897,0.941953155,0.030944745,0.372618675,-19.27338,3.69292,-12.83366,69.0
1774822777.14509,0.004075288772583008,2026-03-29T22:19:37.145,2026-03-29T18:19:37.145,-33183.405,-46379.88,-85852.53,-50728.814999999995,-12526.92,-17813.835,6717.78,-41570.775,0.8739945434760975,2.5685265243343443,0.40006251778868546,-1.4840770820964841,-1.3233730362915572,-0.8282313377727828,0.2897690838327269,-2.6420667661986816,0.94018314,0.03674307,0.37200832500000003,-25.636799999999997,4.2270199999999996,-16.023,69.0
1774822777.1451116,2.1457672119140625e-05,2026-03-29T22:19:37.145,2026-03-29T18:19:37.145,-33193.979999999996,-46383.84,-85848.56999999999,-50719.905,-12518.145,-17807.489999999998,6719.13,-41575.14,1.653332071657685,0.056190425147505774,-1.369196643998376,-1.821468512117386,-1.1559376345462744,-0.45176990897124775,-0.10155797574711889,-0.5862667047101101,0.94018314,0.03674307,0.37200832500000003,-25.636799999999997,4.2270199999999996,-16.023,69.0
1774822777.149329,0.004217386245727539,2026-03-29T22:19:37.149,2026-03-29T18:19:37.149,-33193.034999999996,-46381.32,-85836.95999999999,-50703.795,-12505.455,-17802.045,6714.224999999999,-41576.354999999996,1.8334326159156311,-2.430092912131896,-2.5991342362412184,-1.3303318517458795,-0.5121679681342004,0.05250281241249803,-0.5815037635021127,1.970183350698775,0.94018314,0.03674307,0.37200832500000003,-25.636799999999997,4.2270199999999996,-16.023,69.0
1774822777.149361,3.1948089599609375e-05,2026-03-29T22:19:37.149,2026-03-29T18:19:37.149,-33186.915,-46383.075,-85838.84999999999,-50707.53,-12503.475,-17800.559999999998,6710.04,-41570.235,1.2887204200934639,-3.731714100810503,-2.7683196116452327,-0.30980906928633245,0.2969140400001059,0.46071971666343764,-0.9028145392221026,3.7741315398409614,0.94018314,0.03674307,0.37200832500000003,-25.636799999999997,4.2270199999999996,-16.023,69.0
1774822777.1530206,0.0036597251892089844,2026-03-29T22:19:37.153,2026-03-29T18:19:37.153,-33177.555,-46382.805,-85850.45999999999,-50733.945,-12523.05,-17812.035,6709.545,-41564.52,0.18273831268869958,-3.261208625663438,-1.77854206117544,0.7376383825416222,0.9163821840197552,0.6252314085812796,-0.8365447302542475,3.848087820881336,0.94018314,0.03674307,0.37200832500000003,-25.636799999999997,4.2270199999999996,-16.023,69.0
1774822777.153041,2.0265579223632812e-05,2026-03-29T22:19:37.153,2026-03-29T18:19:37.153,-33184.89,-46383.705,-85855.905,-50740.02,-12539.07,-17832.105,6708.87,-41572.08,-1.0696724539708964,-1.2713881178591295,-0.008647433725350762,1.3503285759846297,1.1035336071969222,0.5273130164607791,-0.3140896855914395,2.016866179441488,0.94018314,0.03674307,0.37200832500000003,-25.636799999999997,4.2270199999999996,-16.023,69.0
1774822777.1570323,0.003991365432739258,2026-03-29T22:19:37.157,2026-03-29T18:19:37.157,-33201.72,-46382.895,-85848.25499999999,-50717.205,-12524.265,-17825.355,6713.37,-41590.799999999996,-1.9559672843509748,1.2735806439609134,1.823205048526457,1.3079449389722675,0.8203692945453172,0.2614824787535138,0.49371504229637575,-0.9420719290283944,0.94018314,0.03674307,0.37200832500000003,-25.636799999999997,4.2270199999999996,-16.023,69.0
1774822777.1570554,2.3126602172851562e-05,2026-03-29T22:19:37.157,2026-03-29T18:19:37.157,-33190.38,-46372.77,-85832.415,-50689.845,-12490.785,-17787.645,6714.945,-41587.335,-2.079604477740254,3.161676137525056,2.9433775720296858,0.7031631871251801,0.2288474627358424,-0.03081042547798801,1.2199073699981005,-3.628959826168882,0.94018314,0.03674307,0.37200832500000003,-25.636799999999997,4.2270199999999996,-16.023,69.0
1774822777.1612575,0.004202127456665039,2026-03-29T22:19:37.161,2026-03-29T18:19:37.161,-33182.28,-46358.909999999996,-85808.87999999999,-50687.64,-12479.805,-17762.715,6720.12,-41587.02,-1.3427984313635777,3.5096234877633625,2.8450831077458747,-0.13409332581505587,-0.3984038678877453,-0.23681867129702006,1.4652186451383586,-4.692618075346556,0.94018314,0.03674307,0.37200832500000003,-25.636799999999997,4.2270199999999996,-16.023,69.0
1774822777.1612923,3.4809112548828125e-05,2026-03-29T22:19:37.161,2026-03-29T18:19:37.161,-33184.034999999996,-46363.77,-85822.56,-50719.95,-12508.56,-17786.475,6724.304999999999,-41590.665,-0.011607786046316106,2.1784372551320756,1.5174485553147115,-0.8098711600660963,-0.8038731546955841,-0.31684808296284245,1.0107118007434808,-3.5163944474799935,0.94018314,0.03674307,0.37200832500000003,-25.636799999999997,4.2270199999999996,-16.023,69.0
1774822777.1664264,0.005134105682373047,2026-03-29T22:19:37.166,2026-03-29T18:19:37.166,-33178.905,-46369.979999999996,-85844.47499999999,-50737.14,-12529.755,-17810.954999999998,6723.63,-41589.674999999996,1.3767351590038983,-0.16861385563421333,-0.5222327159843977,-1.0484707370396726,-0.8494530989207135,-0.2992670864159048,-0.031629626465017005,-0.5679876850569406,0.94018314,0.037902735,0.370909695,-31.64924,2.12114,-20.2195,69.0
1774822777.1664472,2.0742416381835938e-05,2026-03-29T22:19:37.166,2026-03-29T18:19:37.166,-33176.34,-46373.895,-85851.135,-50743.305,-12533.58,-17813.655,6717.285,-41587.65,2.2340434081678118,-2.3911175767567996,-2.4215156794692327,-0.800957292709306,-0.5579223659310384,-0.23837144514668718,-1.2234421906525526,2.7825675470436884,0.94018314,0.037902735,0.370909695,-31.64924,2.12114,-20.2195,69.0
1774822777.1694856,0.0030384063720703125,2026-03-29T22:19:37.169,2026-03-29T18:19:37.169,-33169.68,-46370.159999999996,-85847.4,-50734.575,-12523.185,-17805.195,6719.67,-41581.395,2.176974184397123,-3.4222979491833683,-3.3443768098554547,-0.23947731834762673,-0.08275360746115715,-0.1676496388982895,-1.9805901002156918,4.908529415379022,0.94018314,0.037902735,0.370909695,-31.64924,2.12114,-20.2195,69.0
1774822777.1695187,3.314018249511719e-05,2026-03-29T22:19:37.169,2026-03-29T18:19:37.169,-33171.435,-46370.97,-85843.34999999999,-50728.905,-12525.029999999999,-17811.495,6716.969999999999,-41577.93,1.2039186342053734,-2.780620101714562,-2.839089799752753,0.3469375937733495,0.3709171988934737,-0.08031712561095657,-1.8575661587614272,4.727389573232628,0.94018314,0.037902735,0.370909695,-31.64924,2.12114,-20.2195,69.0
1774822777.1751924,0.005673646926879883,2026-03-29T22:19:37.175,2026-03-29T18:19:37.175,-33187.725,-46376.595,-85838.4,-50718.645,-12518.369999999999,-17806.905,6718.094999999999,-41588.145,-0.29123403613221377,-0.7968688109534169,-1.060542444254699,0.696536648382913,0.6341958178340472,0.05133188405486272,-0.7978668591561798,2.2577739726354347,0.94018314,0.037902735,0.370909695,-31.64924,2.12114,-20.2195,69.0
1774822777.1752143,2.193450927734375e-05,2026-03-29T22:19:37.175,2026-03-29T18:19:37.175,-33186.42,-46378.53,-85842.09,-50724.765,-12523.41,-17813.114999999998,6715.98,-41592.465,-1.6811163803250737,1.5514322692746099,1.2632395343481144,0.6889091070563755,0.633978855069944,0.23334481598069118,0.7864516048850914,-1.3567518514886872,0.94018314,0.037902735,0.370909695,-31.64924,2.12114,-20.2195,69.0
1774822777.1797533,0.004539012908935547,2026-03-29T22:19:37.179,2026-03-29T18:19:37.179,-33185.744999999995,-46380.869999999995,-85842.405,-50722.47,-12518.775,-17803.62,6718.41,-41594.22,-2.374779977174124,3.117191084635669,3.1238148061569393,0.380588412911514,0.40511487805328067,0.41707987987769013,2.168415632388868,-4.38456776484884,0.94018314,0.037902735,0.370909695,-31.64924,2.12114,-20.2195,69.0
1774822777.1797764,2.3126602172851562e-05,2026-03-29T22:19:37.179,2026-03-29T18:19:37.179,-33199.244999999995,-46382.04,-85838.48999999999,-50717.25,-12513.24,-17792.28,6724.62,-41604.255,-2.076065477773166,3.141210099213791,3.669765565344262,-0.044625098363120945,0.05919761912568885,0.504729893156081,2.639638945538405,-5.34827487909762,0.94018314,0.037902735,0.370909695,-31.64924,2.12114,-20.2195,69.0
1774822777.1797986,2.2172927856445312e-05,2026-03-29T22:19:37.179,2026-03-29T18:19:37.179,-33198.705,-46381.905,-85841.955,-50721.255,-12517.109999999999,-17794.395,6726.735,-41607.09,-0.9139586925077128,1.6199192229825443,2.5992346497339414,-0.37732257073201825,-0.26908124411535733,0.3989638059533335,1.8706782018921182,-3.7569875861306956,0.94018314,0.037902735,0.370909695,-31.64924,2.12114,-20.2195,69.0
1774822777.17981,1.1444091796875e-05,2026-03-29T22:19:37.179,2026-03-29T18:19:37.179,-33187.905,-46373.04,-85828.185,-50704.244999999995,-12504.33,-17789.85,6721.5599999999995,-41603.445,0.6144168879823814,-0.6948461220673394,0.3249593494278953,-0.48253332330384174,-0.47259722449221125,0.0723725483633072,0.1157739890776381,-0.36055988221388824,0.94018314,0.037902735,0.370909695,-31.64924,2.12114,-20.2195,69.0
1774822777.1930037,0.013193607330322266,2026-03-29T22:19:37.193,2026-03-29T18:19:37.193,-33178.229999999996,-46364.939999999995,-85818.105,-50692.86,-12498.029999999999,-17792.37,6714.405,-41597.369999999995,1.8623952813766183,-2.663917405727215,-2.1779591634866637,-0.3515409939994786,-0.5013969562570746,-0.3858785236282505,-1.8577785978387726,3.2077630224566795,0.94335696,0.034484775,0.36779691000000003,-34.06032,2.0448399999999998,-22.99682,69.0
1774822777.193022,1.8358230590820312e-05,2026-03-29T22:19:37.193,2026-03-29T18:19:37.193,-33181.875,-46371.104999999996,-85831.73999999999,-50713.11,-12511.08,-17796.015,6718.5,-41598.135,2.314950554380748,-3.3178632331399576,-3.789734856233942,-0.08706118831426829,-0.36638794714160555,-0.7828789887413974,-3.105083120521861,5.228295482365695,0.94335696,0.034484775,0.36779691000000003,-34.06032,2.0448399999999998,-22.99682,69.0
1774822777.1930475,2.5510787963867188e-05,2026-03-29T22:19:37.193,2026-03-29T18:19:37.193,-33177.24,-46366.56,-85829.265,-50716.439999999995,-12505.14,-17780.94,6728.219999999999,-41599.08,1.8064380589929772,-2.331815321965682,-3.750447408421354,0.16266769091546115,-0.12385330800851042,-0.9013884971616587,-2.957349324747203,4.737469248617364,0.94335696,0.034484775,0.36779691000000003,-34.06032,2.0448399999999998,-22.99682,69.0
1774822777.1930544,6.9141387939453125e-06,2026-03-29T22:19:37.193,2026-03-29T18:19:37.193,-33177.33,-46368.18,-85826.34,-50710.049999999996,-12508.47,-17793.27,6719.04,-41602.814999999995,0.5801488132966647,-0.18609847786037062,-2.022239352161253,0.28245422638864354,0.14759682323472206,-0.6141135735137284,-1.375221901702755,1.9970143620929328,0.94335696,0.034484775,0.36779691000000003,-34.06032,2.0448399999999998,-22.99682,69.0
1774822777.1930633,8.821487426757812e-06,2026-03-29T22:19:37.193,2026-03-29T18:19:37.193,-33178.545,-46368.99,-85822.33499999999,-50702.354999999996,-12503.07,-17790.21,6722.1449999999995,-41605.38,-0.8311977503792093,2.0667881559194656,0.6655891427557344,0.2412053536651392,0.3683652073280494,0.025545728278866336,0.983178455782768,-1.6431208817617633,0.94335696,0.034484775,0.36779691000000003,-34.06032,2.0448399999999998,-22.99682,69.0
1774822777.1930687,5.4836273193359375e-06,2026-03-29T22:19:37.193,2026-03-29T18:19:37.193,-33186.284999999996,-46373.895,-85830.56999999999,-50703.479999999996,-12501.27,-17789.67,6719.985,-41614.29,-1.84397636692904,3.3163296244364844,3.123443015843048,0.09356165562527469,0.4742177244053209,0.7721677588572203,3.034488245587766,-4.4173054226717765,0.94335696,0.034484775,0.36779691000000003,-34.06032,2.0448399999999998,-22.99682,69.0
1774822777.197482,0.0044133663177490234,2026-03-29T22:19:37.197,2026-03-29T18:19:37.197,-33185.43,-46377.854999999996,-85840.83,-50713.83,-12518.145,-17814.465,6709.86,-41617.305,-2.070962765964211,2.9388418888938523,4.231817324352376,-0.062350447803902684,0.42905068610870895,1.2779141289933496,3.7709372371546186,-5.013888795971611,0.94335696,0.034484775,0.36779691000000003,-34.06032,2.0448399999999998,-22.99682,69.0
1774822777.1974988,1.6689300537109375e-05,2026-03-29T22:19:37.197,2026-03-29T18:19:37.197,-33181.604999999996,-46375.784999999996,-85839.61499999999,-50716.53,-12520.755,-17818.965,6706.755,-41613.93,-1.4695644064856013,1.106352874074766,3.456774103569636,-0.1435789607727606,0.2356825274435628,1.252949786761373,2.756702382542889,-3.207764163251547,0.94335696,0.034484775,0.36779691000000003,-34.06032,2.0448399999999998,-22.99682,69.0
1774822777.20938,0.011881113052368164,2026-03-29T22:19:37.209,2026-03-29T18:19:37.209,-33182.19,-46380.195,-85841.955,-50724.0,-12527.01,-17819.594999999998,6708.24,-41608.575,-0.33406712161063346,-1.2929522699621585,1.1102520422596005,-0.1243220780832324,-0.05753855714018495,0.6235132831323551,0.3745087708918885,0.054898250427586934,0.94335696,0.034484775,0.36779691000000003,-34.06032,2.0448399999999998,-22.99682,69.0
1774822777.209407,2.7179718017578125e-05,2026-03-29T22:19:37.209,2026-03-29T18:19:37.209,-33189.57,-46382.67,-85835.97,-50705.28,-12503.295,-17789.805,6711.705,-41608.53,0.8520839622815848,-3.085745387137033,-1.7734027374813892,-0.04050149783313357,-0.36063998503257455,-0.39561460676308974,-2.3133166191667374,3.151788273640553,0.94335696,0.034484775,0.36779691000000003,-34.06032,2.0448399999999998,-22.99682,69.0
1774822777.2094295,2.2411346435546875e-05,2026-03-29T22:19:37.209,2026-03-29T18:19:37.209,-33195.24,-46385.009999999995,-85835.34,-50706.225,-12506.175,-17787.825,6712.245,-41608.799999999996,1.628231097829596,-3.386710999763132,-3.897213309499362,0.04125648576003158,-0.5627134063789188,-1.3648899081667945,-4.04215950405646,4.600479556214384,0.94860597,0.02905266,0.3674307,-33.38888,2.10588,-25.362119999999997,69.0
1774822777.209437,7.3909759521484375e-06,2026-03-29T22:19:37.209,2026-03-29T18:19:37.209,-33187.14,-46376.325,-85829.625,-50713.965,-12521.88,-17805.329999999998,6720.705,-41603.895,1.736717086639677,-2.033863578329084,-4.291438231136891,0.0686062914951926,-0.5692847886882137,-1.8070663870083001,-3.9446527448125015,3.780791949735659,0.94860597,0.02905266,0.3674307,-33.38888,2.10588,-25.362119999999997,69.0
1774822777.209445,8.106231689453125e-06,2026-03-29T22:19:37.209,2026-03-29T18:19:37.209,-33199.875,-46389.42,-85841.73,-50706.54,-12518.64,-17811.855,6720.389999999999,-41614.02,1.2000970268677065,0.32773818624178386,-2.761942589555577,0.03451218914116632,-0.3457343206636396,-1.4392963385429405,-1.9859880988805962,1.2057616828202862,0.94860597,0.02905266,0.3674307,-33.38888,2.10588,-25.362119999999997,69.0
1774822777.2094512,6.198883056640625e-06,2026-03-29T22:19:37.209,2026-03-29T18:19:37.209,-33205.68,-46393.02,-85846.905,-50695.47,-12501.539999999999,-17794.98,6717.78,-41622.659999999996,0.27739871188190107,2.5563628927347537,0.013166573824522337,-0.023450481959037348,0.052655232589778424,-0.33873245767271515,0.9838035459185158,-1.7799827749732822,0.94860597,0.02905266,0.3674307,-33.38888,2.10588,-25.362119999999997,69.0
1774822777.2137363,0.004285097122192383,2026-03-29T22:19:37.213,2026-03-29T18:19:37.213,-33185.835,-46380.645,-85849.73999999999,-50722.244999999995,-12514.185,-17797.905,6725.7,-41615.865,-0.6646120456775405,3.5677872279279654,2.787443374016002,-0.053109883839539226,0.4838878589663171,1.0502384386702686,3.6015298888771565,-3.703480879607022,0.94860597,0.02905266,0.3674307,-33.38888,2.10588,-25.362119999999997,69.0
1774822777.2137663,3.0040740966796875e-05,2026-03-29T22:19:37.213,2026-03-29T18:19:37.213,-33177.465,-46372.545,-85846.36499999999,-50752.034999999996,-12543.705,-17822.655,6721.65,-41610.51,-1.2995717550270236,2.8632908329749465,4.312854845421612,-0.02645564468104711,0.7644132249819198,2.090219999164595,4.622664960277418,-3.6999033774304735,0.94860597,0.02905266,0.3674307,-33.38888,2.10588,-25.362119999999997,69.0
1774822777.2168837,0.0031173229217529297,2026-03-29T22:19:37.216,2026-03-29T18:19:37.216,-33190.38,-46388.295,-85851.0,-50738.895,-12534.39,-17817.614999999998,6720.165,-41611.095,-1.447938036614346,0.7737505090193553,3.9082647100907475,0.03874985746668,0.7452650651385311,2.2410785804557243,3.517578005444003,-1.90966565115295,0.94860597,0.02905266,0.3674307,-33.38888,2.10588,-25.362119999999997,69.0
1774822777.2169013,1.7642974853515625e-05,2026-03-29T22:19:37.216,2026-03-29T18:19:37.216,-33190.244999999995,-46396.53,-85852.75499999999,-50729.715,-12529.664999999999,-17817.66,6716.07,-41610.33,-1.1109374899539337,-1.6993847967700684,1.7670967776287874,0.08956175893644328,0.38881099319052903,1.3352570514513233,0.7442887803582128,0.650111625023053,0.94860597,0.02905266,0.3674307,-33.38888,2.10588,-25.362119999999997,69.0
1774822777.2215543,0.004652976989746094,2026-03-29T22:19:37.221,2026-03-29T18:19:37.221,-33188.49,-46403.505,-85856.67,-50717.835,-12518.685,-17807.265,6711.48,-41609.79,-0.4380590399607824,-3.368605739104881,-1.136715811054363,0.07500881606801241,-0.192265182299002,-0.29997708401807016,-2.442165126270533,2.650577403766457,0.94860597,0.02905266,0.3674307,-33.38888,2.10588,-25.362119999999997,69.0
1774822777.221583,2.86102294921875e-05,2026-03-29T22:19:37.221,2026-03-29T18:19:37.221,-33172.92,-46402.604999999996,-85876.065,-50729.49,-12529.98,-17818.425,6708.33,-41601.915,0.34180861026903203,-3.434092394652298,-3.4981710932790335,-0.013878352289687104,-0.7615320153004057,-1.9502530914407317,-4.564048198637465,3.1432995793607517,0.94860597,0.02905266,0.3674307,-33.38888,2.10588,-25.362119999999997,69.0
1774822777.2252488,0.003665924072265625,2026-03-29T22:19:37.225,2026-03-29T18:19:37.225,-33161.445,-46387.215,-85882.23,-50754.96,-12555.675,-17851.23,6691.1849999999995,-41600.7,0.9926499384278916,-1.867773096632458,-4.275518835627913,-0.1288041635475206,-1.0509873993135743,-2.8227159132092474,-4.6130959448867,2.017936806783004,0.951962895,0.02624505,0.36669828,-31.32878,3.18934,-26.613439999999997,69.0
1774822777.225266,1.71661376953125e-05,2026-03-29T22:19:37.225,2026-03-29T18:19:37.225,-33170.805,-46371.33,-85853.655,-50747.715,-12544.56,-17832.825,6698.7,-41614.515,1.327535234806057,0.5774729295411295,-3.154865640559981,-0.18767616798956027,-0.8852540932990489,-2.424088698017514,-2.5330415040295753,0.0009189486588419162,0.951962895,0.02624505,0.36669828,-31.32878,3.18934,-26.613439999999997,69.0
1774822777.2306097,0.00534367561340332,2026-03-29T22:19:37.230,2026-03-29T18:19:37.230,-33181.02,-46356.479999999996,-85811.12999999999,-50699.07,-12500.145,-17783.415,6726.285,-41626.439999999995,1.2458554478413686,2.7350796688309202,-0.6752286194232403,-0.1266154835389441,-0.2813656226427647,-0.829311684772895,0.7401239479715709,-1.7804404497171973,0.951962895,0.02624505,0.36669828,-31.32878,3.18934,-26.613439999999997,69.0
1774822777.230648,3.838539123535156e-05,2026-03-29T22:19:37.230,2026-03-29T18:19:37.230,-33186.24,-46356.93,-85802.715,-50681.295,-12489.885,-17774.46,6735.735,-41633.549999999996,0.7562081105455726,3.5873068973940385,2.0348925889054543,0.05007595792732417,0.5301270462371398,1.301600463846318,3.704917484612069,-2.4173920974467236,0.951962895,0.02624505,0.36669828,-31.32878,3.18934,-26.613439999999997,69.0
1774822777.2333593,0.0027112960815429688,2026-03-29T22:19:37.233,2026-03-29T18:19:37.233,-33186.24,-46364.49,-85819.00499999999,-50708.43,-12509.324999999999,-17789.67,6732.495,-41632.92,-0.015029686860019603,2.749145051585041,3.7787760837842073,0.25591770962747,1.1863575708820633,2.9904757454491784,4.990897044648558,-1.6861002320747207,0.951962895,0.02624505,0.36669828,-31.32878,3.18934,-26.613439999999997,69.0
1774822777.2333767,1.7404556274414062e-05,2026-03-29T22:19:37.233,2026-03-29T18:19:37.233,-33182.145,-46357.244999999995,-85802.94,-50700.78,-12503.07,-17786.295,6730.5599999999995,-41627.34,-0.8389392777646728,0.6416029145543084,3.82601559235542,0.36025794921086907,1.3511766252166513,3.3871741119163197,3.998132982544859,-0.12024972279331124,0.951962895,0.02624505,0.36669828,-31.32878,3.18934,-26.613439999999997,69.0
1774822777.2372036,0.0038268566131591797,2026-03-29T22:19:37.237,2026-03-29T18:19:37.237,-33185.835,-46365.165,-85815.135,-50702.354999999996,-12505.365,-17793.719999999998,6724.98,-41624.369999999995,-1.435242789922463,-1.7235703256127304,2.2184792145983225,0.26361276396361527,0.884091572783664,2.1930220191628025,1.178352861567604,1.3299005809217235,0.951962895,0.02624505,0.36669828,-31.32878,3.18934,-26.613439999999997,69.0
1774822777.2372317,2.8133392333984375e-05,2026-03-29T22:19:37.237,2026-03-29T18:19:37.237,-33188.625,-46365.795,-85819.05,-50699.655,-12504.6,-17793.585,6720.3,-41626.17,-1.559816292702318,-3.236443374777557,-0.2804560610372807,-0.03056800102415017,-0.06425380254645612,-0.1473901058376973,-2.1746231028772414,1.848083716780018,0.951962895,0.02624505,0.36669828,-31.32878,3.18934,-26.613439999999997,69.0
1774822777.2415397,0.004307985305786133,2026-03-29T22:19:37.241,2026-03-29T18:19:37.241,-33185.115,-46370.655,-85831.065,-50707.755,-12512.789999999999,-17801.684999999998,6715.9349999999995,-41624.865,-1.1060907276399987,-3.216082514940716,-2.5541706546105933,-0.39359706498733865,-1.088481962925907,-2.5996729608278075,-4.525999838560917,1.2019781661738618,0.951962895,0.02624505,0.36669828,-31.32878,3.18934,-26.613439999999997,69.0
1774822777.241564,2.4318695068359375e-05,2026-03-29T22:19:37.241,2026-03-29T18:19:37.241,-33185.34,-46372.59,-85831.83,-50703.705,-12510.99,-17803.71,6712.0199999999995,-41627.295,-0.17750865199696944,-1.7190615579110093,-3.6381396768525334,-0.6221927036783687,-1.696653028778095,-3.992655109113836,-4.809814654639057,-0.15222932556651705,0.951962895,0.02624505,0.36669828,-31.32878,3.18934,-26.613439999999997,69.0
1774822777.2453918,0.003827810287475586,2026-03-29T22:19:37.245,2026-03-29T18:19:37.245,-33190.29,-46379.97,-85843.035,-50716.665,-12523.365,-17812.44,6711.12,-41632.02,0.9137440264161009,0.5115784973973626,-3.130439598540524,-0.54524168525612,-1.5432736533275682,-3.5747981365278854,-2.915682719180339,-1.3579423817938021,0.94567629,0.03210441,0.36334135500000003,-34.44182,1.526,-26.36928,69.0
1774822777.2454112,1.9311904907226562e-05,2026-03-29T22:19:37.245,2026-03-29T18:19:37.245,-33190.83,-46378.89,-85844.295,-50726.384999999995,-12530.34,-17819.055,6709.23,-41635.845,1.7421273987816575,2.4204472654737335,-1.3320891347476709,-0.13310046823294622,-0.618380502883216,-1.4111077860355263,0.27142682614002756,-1.6671941033522344,0.94567629,0.03210441,0.36334135500000003,-34.44182,1.526,-26.36928,69.0
1774822777.249272,0.003860950469970703,2026-03-29T22:19:37.249,2026-03-29T18:19:37.249,-33184.034999999996,-46375.604999999996,-85839.48,-50723.64,-12521.43,-17810.055,6713.28,-41633.369999999995,1.9350896439209897,3.146605247833521,0.9263509831309454,0.4549982687463264,0.7079534781206811,1.5856321422909583,3.2906616707920473,-0.8788286168997848,0.94567629,0.03210441,0.36334135500000003,-34.44182,1.526,-26.36928,69.0
1774822777.249303,3.0994415283203125e-05,2026-03-29T22:19:37.249,2026-03-29T18:19:37.249,-33180.299999999996,-46375.244999999995,-85834.215,-50722.56,-12523.455,-17804.43,6717.285,-41628.555,1.3451420687726314,2.4163850488686895,2.6737899111993646,0.9245498678795209,1.825818904852774,4.03308568700119,4.78229855636967,0.5424880296922339,0.94567629,0.03210441,0.36334135500000003,-34.44182,1.526,-26.36928,69.0
1774822777.253522,0.0042188167572021484,2026-03-29T22:19:37.253,2026-03-29T18:19:37.253,-33180.255,-46378.935,-85836.645,-50710.185,-12518.73,-17802.0,6725.7,-41624.955,0.14606810666382203,0.6408152939704246,3.2183116493397246,0.9873931821396363,2.161890733122778,4.714131558067084,4.1049701805132415,1.733404771308115,0.94567629,0.03210441,0.36334135500000003,-34.44182,1.526,-26.36928,69.0
1774822777.2535481,2.6226043701171875e-05,2026-03-29T22:19:37.253,2026-03-29T18:19:37.253,-33185.88,-46382.985,-85842.98999999999,-50712.57,-12519.765,-17806.32,6718.7699999999995,-41628.465,-1.2050375110246263,-1.3136698369508772,2.4151254382914993,0.525581469420826,1.4688259975498041,3.1782076492976916,1.6106225103168368,1.9341979656859705,0.94567629,0.03210441,0.36334135500000003,-34.44182,1.526,-26.36928,69.0
1774822777.257063,0.0035147666931152344,2026-03-29T22:19:37.257,2026-03-29T18:19:37.257,-33191.775,-46377.405,-85836.87,-50708.655,-12510.494999999999,-17794.89,6717.509999999999,-41635.755,-2.140967729029935,-2.554469085802616,0.6826290668694516,-0.31152151095439123,-0.016500073804728985,0.013849308013851907,-1.5400528627869494,0.9416277185141678,0.94567629,0.03210441,0.36334135500000003,-34.44182,1.526,-26.36928,69.0
1774822777.257088,2.5033950805664062e-05,2026-03-29T22:19:37.257,2026-03-29T18:19:37.257,-33195.555,-46381.994999999995,-85842.045,-50710.634999999995,-12509.01,-17790.21,6723.179999999999,-41642.64,-2.2277643507706197,-2.5766540219714877,-1.2160238514219746,-1.142311317632517,-1.6400130862515643,-3.3640735856743857,-3.9241453864046325,-0.7474054230480577,0.94567629,0.03210441,0.36334135500000003,-34.44182,1.526,-26.36928,69.0
1774822777.2611969,0.004108905792236328,2026-03-29T22:19:37.261,2026-03-29T18:19:37.261,-33189.075,-46380.735,-85835.655,-50704.515,-12513.285,-17799.614999999998,6719.985,-41645.52,-1.371183905760307,-1.4666474799029077,-2.5113612355458304,-1.5217619980734503,-2.613268009382016,-5.343160350190212,-4.504544794358773,-2.1907650570689157,0.94567629,0.03210441,0.36334135500000003,-34.44182,1.526,-26.36928,69.0
1774822777.2612228,2.5987625122070312e-05,2026-03-29T22:19:37.261,2026-03-29T18:19:37.261,-33176.744999999995,-46369.619999999995,-85834.305,-50705.955,-12511.89,-17795.295,6718.634999999999,-41642.505,0.1143568881321405,0.18542191992766227,-2.734753757203309,-1.171764798549806,-2.3925551387155446,-4.880968288464328,-3.0817392035007876,-2.5213503210844843,0.94567629,0.03210441,0.36334135500000003,-34.44182,1.526,-26.36928,69.0
1774822777.2649696,0.0037467479705810547,2026-03-29T22:19:37.264,2026-03-29T18:19:37.264,-33174.09,-46367.775,-85840.02,-50704.155,-12500.279999999999,-17785.8,6718.139999999999,-41640.03,1.6184249216452076,1.600443749779833,-1.8744847134339608,-0.15655465284671805,-0.9736314424766892,-2.0468862933028062,-0.3524642490128381,-1.4475090170375102,0.94067142,0.037292385,0.358580625,-37.44804,0.10682,-26.79656,69.0
1774822777.2649832,1.3589859008789062e-05,2026-03-29T22:19:37.264,2026-03-29T18:19:37.264,-33168.6,-46366.47,-85849.37999999999,-50728.545,-12519.225,-17799.57,6725.745,-41637.78,2.4899379496197844,2.184062013716225,-0.3374468962281138,1.0995801440446142,1.0543627275329708,1.940445293528607,2.4351383447281894,0.5481246448880723,0.94067142,0.037292385,0.358580625,-37.44804,0.10682,-26.79656,69.0
1774822777.2690735,0.004090309143066406,2026-03-29T22:19:37.269,2026-03-29T18:19:37.269,-33169.815,-46368.314999999995,-85838.48999999999,-50721.39,-12520.619999999999,-17797.32,6735.87,-41637.42,2.3260435513997604,1.7773030067677698,1.2443431328298993,1.983756582801005,2.7462670252837627,5.231198749163837,4.057366470110614,2.433515279515254,0.94067142,0.037292385,0.358580625,-37.44804,0.10682,-26.79656,69.0
1774822777.269091,1.7404556274414062e-05,2026-03-29T22:19:37.269,2026-03-29T18:19:37.269,-33176.34,-46372.634999999995,-85830.795,-50707.485,-12513.015,-17790.704999999998,6731.775,-41641.604999999996,1.1629001840686912,0.6779401584509395,2.2696878602044928,1.989141953325661,3.238070660828628,6.201039791629696,3.8536563646067026,3.167353412212125,0.94067142,0.037292385,0.358580625,-37.44804,0.10682,-26.79656,69.0
1774822777.2730381,0.003947257995605469,2026-03-29T22:19:37.273,2026-03-29T18:19:37.273,-33177.915,-46378.034999999996,-85841.37,-50718.509999999995,-12519.539999999999,-17802.0,6722.009999999999,-41643.54,-0.5240291496042498,-0.5523846775244183,2.3852226564516754,0.9927789586391743,2.1832261148151115,4.250492020400449,1.990409383493567,2.2692902025384396,0.94067142,0.037292385,0.358580625,-37.44804,0.10682,-26.79656,69.0
1774822777.273056,1.7881393432617188e-05,2026-03-29T22:19:37.273,2026-03-29T18:19:37.273,-33179.265,-46382.805,-85850.19,-50727.15,-12526.965,-17811.27,6715.17,-41646.465,-2.0176899496000558,-1.3780843579293443,1.5923033091134515,-0.6315769070784837,-0.03041549310061727,0.15450441967039433,-0.6522299039431368,0.10994133903008795,0.94067142,0.037292385,0.358580625,-37.44804,0.10682,-26.79656,69.0
1774822777.2776852,0.0046291351318359375,2026-03-29T22:19:37.277,2026-03-29T18:19:37.277,-33183.27,-46377.134999999995,-85832.955,-50702.759999999995,-12499.154999999999,-17783.505,6725.25,-41653.35,-2.671083686693489,-1.525729462287437,0.22147487144829645,-2.1443109967390757,-2.410674038540717,-4.234452708460494,-2.8996835672758308,-2.2467500336604815,0.94067142,0.037292385,0.358580625,-37.44804,0.10682,-26.79656,69.0
1774822777.277707,2.193450927734375e-05,2026-03-29T22:19:37.277,2026-03-29T18:19:37.277,-33178.905,-46380.195,-85846.14,-50718.15,-12519.585,-17806.184999999998,6718.679999999999,-41656.005,-2.1939467147057723,-1.0607869932313585,-1.2018905358954513,-2.7745302342483305,-3.8025143428379424,-6.82256862085204,-3.8067585925085363,-3.579246658632437,0.94067142,0.037292385,0.358580625,-37.44804,0.10682,-26.79656,69.0
1774822777.2866974,0.008990287780761719,2026-03-29T22:19:37.286,2026-03-29T18:19:37.286,-33174.27,-46377.18,-85850.685,-50725.53,-12531.06,-17818.965,6712.38,-41656.275,-0.784357786257026,-0.29268105143387574,-2.1480013326065377,-2.1080085230684253,-3.4461980019178906,-6.273718940157704,-3.05160893122275,-3.1477076768031282,0.94067142,0.037292385,0.358580625,-37.44804,0.10682,-26.79656,69.0
1774822777.2867155,1.811981201171875e-05,2026-03-29T22:19:37.286,2026-03-29T18:19:37.286,-33181.695,-46380.33,-85845.23999999999,-50713.604999999996,-12522.42,-17814.105,6713.37,-41659.604999999996,0.9555207284980026,0.41618552183294943,-2.2668266250866433,-0.3348082032130786,-1.383194053231112,-2.694493111401513,-1.0378860923101867,-1.0999345151409086,0.94067142,0.037292385,0.358580625,-37.44804,0.10682,-26.79656,69.0
1774822777.2867289,1.33514404296875e-05,2026-03-29T22:19:37.286,2026-03-29T18:19:37.286,-33177.735,-46372.32,-85835.655,-50699.295,-12512.115,-17805.42,6719.58,-41660.685,2.2824999729551254,0.8246123543037785,-1.5102747098671248,1.7842043721743013,1.5039851598119363,2.3443355693034538,1.3192815568881138,1.5768688666613828,0.939755895,0.035339265,0.359435115,-37.325959999999995,-0.07629999999999999,-25.636799999999997,69.0
1774822777.2867332,4.291534423828125e-06,2026-03-29T22:19:37.286,2026-03-29T18:19:37.286,-33166.619999999995,-46370.52,-85833.765,-50690.205,-12500.414999999999,-17790.03,6724.8,-41651.955,2.636296822890963,0.8847822231038296,-0.1544089021172325,3.2421087304486362,3.8651809944211184,6.494356297881004,3.010449274511836,3.543911067716947,0.939755895,0.035339265,0.359435115,-37.325959999999995,-0.07629999999999999,-25.636799999999997,69.0
1774822777.2893703,0.002637147903442383,2026-03-29T22:19:37.289,2026-03-29T18:19:37.289,-33166.665,-46371.825,-85835.34,-50706.09,-12509.055,-17791.155,6723.54,-41649.075,1.8799523668033162,0.6972279955107141,1.289787556869039,3.2644107223237158,4.513665578482068,7.7257876283871845,3.3613675079164476,3.7920325940497643,0.939755895,0.035339265,0.359435115,-37.325959999999995,-0.07629999999999999,-25.636799999999997,69.0
1774822777.2893887,1.8358230590820312e-05,2026-03-29T22:19:37.289,2026-03-29T18:19:37.289,-33189.705,-46375.335,-85834.08,-50713.38,-12511.08,-17793.585,6712.38,-41669.369999999995,0.3518088098377176,0.4018852904175487,2.255743311409148,1.7135964555928234,3.0199728739435763,5.320908184226907,2.293868866631307,2.164983091138106,0.939755895,0.035339265,0.359435115,-37.325959999999995,-0.07629999999999999,-25.636799999999997,69.0
1774822777.2937226,0.004333972930908203,2026-03-29T22:19:37.293,2026-03-29T18:19:37.293,-33190.065,-46367.28,-85821.61499999999,-50697.494999999995,-12498.885,-17791.829999999998,6708.87,-41679.494999999995,-1.2898200763904466,0.08646226544623684,2.336095957066611,-0.7894770401613966,-0.027998887664032284,0.2778165386047143,0.3221192038750972,-0.5486640155099358,0.939755895,0.035339265,0.359435115,-37.325959999999995,-0.07629999999999999,-25.636799999999997,69.0
1774822777.29374,1.7404556274414062e-05,2026-03-29T22:19:37.293,2026-03-29T18:19:37.293,-33175.215,-46357.74,-85815.855,-50704.92,-12509.369999999999,-17797.545,6722.37,-41675.939999999995,-2.3558767013034267,-0.2317093342312215,1.4560964413173012,-3.110541308792096,-3.2487386470829245,-5.097608989118645,-1.694615201932517,-3.0068100130456594,0.939755895,0.035339265,0.359435115,-37.325959999999995,-0.07629999999999999,-25.636799999999997,69.0
1774822777.2983575,0.004617452621459961,2026-03-29T22:19:37.298,2026-03-29T18:19:37.298,-33176.924999999996,-46364.58,-85825.08,-50717.61,-12522.06,-17800.965,6729.12,-41676.03,-2.4197655795034967,-0.5523460801493846,-0.06882439771161081,-4.118869168943083,-5.094299524365473,-8.24854068403231,-2.9238386705511306,-3.9901904238339543,0.939755895,0.035339265,0.359435115,-37.325959999999995,-0.07629999999999999,-25.636799999999997,69.0
1774822777.2983742,1.6689300537109375e-05,2026-03-29T22:19:37.298,2026-03-29T18:19:37.298,-33171.615,-46367.505,-85829.985,-50711.22,-12513.42,-17793.27,6737.13,-41668.38,-1.4878924334833457,-0.8217667426923952,-1.631146660235803,-3.239208433291112,-4.595815260523776,-7.587453547530231,-2.8969854803419612,-3.0176950206146667,0.939755895,0.035339265,0.359435115,-37.325959999999995,-0.07629999999999999,-25.636799999999997,69.0
1774822777.3072371,0.008862972259521484,2026-03-29T22:19:37.307,2026-03-29T18:19:37.307,-33166.17,-46365.615,-85830.795,-50712.03,-12514.904999999999,-17796.105,6731.82,-41660.729999999996,0.020239250592057053,-0.9123317129223961,-2.5644613102462714,-0.7683366101819861,-1.867288523088432,-3.295350339734733,-1.6793360694856347,-0.5858571018756435,0.939755895,0.035339265,0.359435115,-37.325959999999995,-0.07629999999999999,-25.636799999999997,69.0
1774822777.3072536,1.6450881958007812e-05,2026-03-29T22:19:37.307,2026-03-29T18:19:37.307,-33162.255,-46371.195,-85844.205,-50727.375,-12530.88,-17810.145,6724.844999999999,-41652.314999999995,1.4647074391238937,-0.6834139135970623,-2.4274955806591105,2.2144374958036916,1.8929165393756242,2.7026147280657002,0.18343282732751612,2.0882296006803776,0.939755895,0.035339265,0.359435115,-37.325959999999995,-0.07629999999999999,-25.636799999999997,69.0
1774822777.307269,1.5497207641601562e-05,2026-03-29T22:19:37.307,2026-03-29T18:19:37.307,-33169.185,-46376.909999999996,-85848.56999999999,-50726.159999999996,-12526.875,-17806.5,6722.955,-41653.53,2.2601144188197395,-0.09460561613915049,-1.2181942686082485,4.322848405525569,4.929513257092576,7.602740065618268,1.906878160842763,3.685838264700691,0.9362769,0.040222065,0.356261295,-36.13568,-0.41202,-27.30014,69.0
1774822777.3072736,4.5299530029296875e-06,2026-03-29T22:19:37.307,2026-03-29T18:19:37.307,-33172.244999999995,-46379.61,-85851.22499999999,-50726.295,-12525.57,-17807.04,6723.134999999999,-41655.645,2.112984363535297,0.7049314854020089,0.5882472235301162,4.513984945984161,5.7542976739602185,9.039748715678508,2.792212409991601,3.448514054780553,0.9362769,0.040222065,0.356261295,-36.13568,-0.41202,-27.30014,69.0
1774822777.3310475,0.023773908615112305,2026-03-29T22:19:37.331,2026-03-29T18:19:37.331,-33170.445,-46373.805,-85837.995,-50717.52,-12524.175,-17807.085,6724.17,-41656.409999999996,1.1255454799087168,1.3868531942084261,2.215328409171411,2.605297688691079,3.8776579729795677,6.233503388669756,2.502980987543129,1.545949607884891,0.9362769,0.040222065,0.356261295,-36.13568,-0.41202,-27.30014,69.0
1774822777.3310776,3.0040740966796875e-05,2026-03-29T22:19:37.331,2026-03-29T18:19:37.331,-33170.67,-46372.409999999996,-85828.455,-50716.665,-12529.664999999999,-17812.575,6718.86,-41659.244999999995,-0.26779534363304996,1.5772363524219077,2.9164247008697046,-0.5990945127543754,0.08659032133035642,0.4068873497062406,1.1885812402542648,-1.0317821317532594,0.9362769,0.040222065,0.356261295,-36.13568,-0.41202,-27.30014,69.0
1774822777.3311028,2.5272369384765625e-05,2026-03-29T22:19:37.331,2026-03-29T18:19:37.331,-33170.174999999996,-46368.045,-85823.055,-50710.455,-12525.57,-17819.1,6710.67,-41661.18,-1.4937065415512127,1.0597941075166104,2.3213254177587044,-3.650681692238297,-3.884729230196127,-5.74723611697154,-0.5881142367767139,-2.992929898097254,0.9362769,0.040222065,0.356261295,-36.13568,-0.41202,-27.30014,69.0
1774822777.331113,1.0251998901367188e-05,2026-03-29T22:19:37.331,2026-03-29T18:19:37.331,-33188.715,-46376.28,-85825.08,-50700.33,-12509.64,-17807.175,6717.42,-41673.104999999996,-2.0757718229654283,-0.06091722366538308,0.6354722683329284,-5.120328261031976,-6.154705045599476,-9.318053011838296,-2.085929863521785,-3.4003727624490065,0.9362769,0.040222065,0.356261295,-36.13568,-0.41202,-27.30014,69.0
1774822777.3311267,1.3589859008789062e-05,2026-03-29T22:19:37.331,2026-03-29T18:19:37.331,-33204.869999999995,-46393.965,-85840.73999999999,-50702.625,-12510.855,-17810.64,6721.065,-41677.064999999995,-1.8161259555655365,-1.3431480813717525,-1.4163266959455014,-4.275181290101599,-5.592661216072676,-8.562328851715302,-2.6886253198582604,-2.1283259024926617,0.9362769,0.040222065,0.356261295,-36.13568,-0.41202,-27.30014,69.0
1774822777.3311365,9.775161743164062e-06,2026-03-29T22:19:37.331,2026-03-29T18:19:37.331,-33195.33,-46396.755,-85849.37999999999,-50702.04,-12512.744999999999,-17810.19,6722.415,-41668.335,-0.8559697142086214,-2.1774258389285155,-2.896511144756348,-1.4442796214045615,-2.3834699710163774,-3.7596937448403063,-2.155820430348293,0.10683141107517,0.9362769,0.040222065,0.356261295,-36.13568,-0.41202,-27.30014,69.0
1774822777.3311484,1.1920928955078125e-05,2026-03-29T22:19:37.331,2026-03-29T18:19:37.331,-33193.125,-46389.195,-85842.62999999999,-50688.674999999996,-12490.425,-17779.95,6717.509999999999,-41666.67,0.39894158318148804,-2.079515993924355,-3.084487026528645,2.110287862662529,2.0246804265760265,2.8843053202970035,-0.721060738055918,2.143325076332702,0.9362769,0.040222065,0.356261295,-36.13568,-0.41202,-27.30014,69.0
1774822777.3311577,9.298324584960938e-06,2026-03-29T22:19:37.331,2026-03-29T18:19:37.331,-33191.955,-46376.595,-85822.69499999999,-50677.064999999995,-12475.529999999999,-17750.34,6721.29,-41665.725,1.4489812155662851,-0.9646074438613559,-1.8317148688131832,4.766172499379302,5.58063675782921,8.258152240604055,1.004409955694101,2.980755884240686,0.9362769,0.040222065,0.356261295,-36.13568,-0.41202,-27.30014,69.0
1774822777.3311684,1.0728836059570312e-05,2026-03-29T22:19:37.331,2026-03-29T18:19:37.331,-33182.415,-46362.24,-85815.315,-50682.015,-12490.92,-17771.805,6719.849999999999,-41662.485,1.8961194314602838,0.7497357086555759,0.3346291835956035,5.292974623971084,6.594693773208835,9.812575031997136,2.286130210853239,2.278601455887614,0.932431695,0.04199208,0.35449128,-36.33406,-3.2045999999999997,-28.97874,69.0
1774822777.331177,8.58306884765625e-06,2026-03-29T22:19:37.331,2026-03-29T18:19:37.331,-33179.985,-46368.45,-85838.44499999999,-50702.354999999996,-12513.914999999999,-17798.085,6724.8,-41662.53,1.5898911994155915,2.290869822931281,2.4264623549845643,3.429504954870045,4.548948570309561,6.779068039626425,2.5768072218735996,0.4950857403503158,0.932431695,0.04199208,0.35449128,-36.33406,-3.2045999999999997,-28.97874,69.0
1774822777.334187,0.0030100345611572266,2026-03-29T22:19:37.334,2026-03-29T18:19:37.334,-33180.299999999996,-46373.445,-85846.59,-50721.884999999995,-12524.805,-17809.02,6721.65,-41661.945,0.6735401300365056,2.8820809153612603,3.444149133862101,0.01147162173908374,0.361202546681572,0.551751991486871,1.7528766326204466,-1.3900632206154462,0.932431695,0.04199208,0.35449128,-36.33406,-3.2045999999999997,-28.97874,69.0
1774822777.3341959,8.821487426757812e-06,2026-03-29T22:19:37.334,2026-03-29T18:19:37.334,-33176.34,-46369.215,-85833.72,-50730.165,-12521.07,-17795.16,6725.969999999999,-41660.1,-0.48077577960964835,2.136502644972668,2.8563398785496927,-3.412704276440354,-4.032379340806522,-5.958440271433178,0.17343809795635723,-2.4078478645774153,0.932431695,0.04199208,0.35449128,-36.33406,-3.2045999999999997,-28.97874,69.0
1774822777.3342042,8.344650268554688e-06,2026-03-29T22:19:37.334,2026-03-29T18:19:37.334,-33174.945,-46371.195,-85836.33,-50734.575,-12536.369999999999,-17815.995,6725.25,-41655.375,-1.4191680520708223,0.29319950294493496,0.8787749619974087,-5.297290311285154,-6.5838175466146645,-9.696008096873905,-1.4699288080544972,-2.0999757672343593,0.932431695,0.04199208,0.35449128,-36.33406,-3.2045999999999997,-28.97874,69.0
1774822777.3342083,4.0531158447265625e-06,2026-03-29T22:19:37.334,2026-03-29T18:19:37.334,-33172.065,-46366.784999999996,-85825.08,-50712.75,-12525.795,-17819.415,6715.8,-41652.674999999996,-1.7796797405810065,-1.8425759948295632,-1.5945687233461392,-4.808880781480941,-6.0994611452541685,-8.90739689277864,-2.4533876865284627,-0.7276500166672376,0.932431695,0.04199208,0.35449128,-36.33406,-3.2045999999999997,-28.97874,69.0
1774822777.3372493,0.0030410289764404297,2026-03-29T22:19:37.337,2026-03-29T18:19:37.337,-33168.78,-46364.715,-85816.98,-50711.805,-12522.285,-17802.945,6708.87,-41650.604999999996,-1.4290150173535725,-3.2518371511598896,-3.392553749580854,-2.19862771782732,-2.8044409905950496,-3.9710522432946243,-2.342350691258131,0.9068614261436664,0.932431695,0.04199208,0.35449128,-36.33406,-3.2045999999999997,-28.97874,69.0
1774822777.3372643,1.5020370483398438e-05,2026-03-29T22:19:37.337,2026-03-29T18:19:37.337,-33168.42,-46365.795,-85818.375,-50706.9,-12509.01,-17776.17,6723.8099999999995,-41646.284999999996,-0.5126570109209843,-3.192375156278328,-3.6213173293140866,1.3314066913936753,1.7646712140668332,2.785625437849477,-1.1900969811491124,1.9145244091216507,0.932431695,0.04199208,0.35449128,-36.33406,-3.2045999999999997,-28.97874,69.0
1774822777.3413856,0.004121303558349609,2026-03-29T22:19:37.341,2026-03-29T18:19:37.341,-33174.315,-46373.939999999995,-85837.23,-50722.65,-12519.63,-17791.515,6726.735,-41647.77,0.6008247483567153,-1.5892241514089502,-2.1091778985839107,4.1955459575397995,5.4870197842900446,8.193560231347147,0.48073342698191035,1.7972485696910483,0.932431695,0.04199208,0.35449128,-36.33406,-3.2045999999999997,-28.97874,69.0
1774822777.3414052,1.9550323486328125e-05,2026-03-29T22:19:37.341,2026-03-29T18:19:37.341,-33167.97,-46374.255,-85842.135,-50727.104999999996,-12528.539999999999,-17808.344999999998,6718.1849999999995,-41649.255,1.4625071230300304,0.8799834479042931,0.47986359028979897,5.151675864559866,6.655702459232773,9.742288247284762,1.911622232326855,0.6941385840198563,0.932431695,0.04199208,0.35449128,-36.33406,-3.2045999999999997,-28.97874,69.0
1774822777.3472521,0.005846977233886719,2026-03-29T22:19:37.347,2026-03-29T18:19:37.347,-33156.674999999996,-46365.57,-85830.97499999999,-50707.619999999995,-12504.15,-17782.065,6725.5199999999995,-41644.71,1.720882429081899,3.0693050901304053,2.9339606077632387,3.847699523562607,4.7708335711928616,6.756493804034123,2.4542660502860514,-0.7255541311166783,0.93114996,0.038513085,0.354003,-33.98402,-4.5017,-28.49042,69.0
1774822777.3472688,1.6689300537109375e-05,2026-03-29T22:19:37.347,2026-03-29T18:19:37.347,-33165.18,-46357.695,-85810.77,-50684.67,-12482.55,-17764.739999999998,6732.2699999999995,-41652.36,1.2663484023822396,3.900179682763274,4.0593857772491555,0.9427178453822431,0.7538357887257534,0.691972824850937,1.8704793640006332,-1.6512325275829882,0.93114996,0.038513085,0.354003,-33.98402,-4.5017,-28.49042,69.0
1774822777.3495057,0.0022368431091308594,2026-03-29T22:19:37.349,2026-03-29T18:19:37.349,-33183.63,-46362.015,-85805.415,-50679.63,-12483.045,-17772.57,6737.8949999999995,-41663.655,0.2827308479830785,2.8961880790608263,3.260338488526735,-2.233941071203032,-3.5094635418764253,-5.579677595563162,0.44398796438480825,-1.5812449369348707,0.93114996,0.038513085,0.354003,-33.98402,-4.5017,-28.49042,69.0
1774822777.3495224,1.6689300537109375e-05,2026-03-29T22:19:37.349,2026-03-29T18:19:37.349,-33184.26,-46376.189999999995,-85835.205,-50717.34,-12526.289999999999,-17818.065,6721.83,-41661.854999999996,-0.8205333977543541,0.4502587306148808,0.8508644054656033,-4.306755074667521,-6.067857990365566,-9.143870401995507,-1.1521545149171166,-0.5885614769955967,0.93114996,0.038513085,0.354003,-33.98402,-4.5017,-28.49042,69.0
1774822777.3544729,0.004950523376464844,2026-03-29T22:19:37.354,2026-03-29T18:19:37.354,-33165.99,-46370.744999999995,-85845.735,-50731.244999999995,-12539.295,-17824.68,6710.445,-41650.604999999996,-1.5743468673678618,-2.3230080671286,-2.0631378947531047,-4.460957112491101,-5.811129952783406,-8.411013371620951,-2.1730400123315263,0.7369117604203761,0.93114996,0.038513085,0.354003,-33.98402,-4.5017,-28.49042,69.0
1774822777.3544896,1.6689300537109375e-05,2026-03-29T22:19:37.354,2026-03-29T18:19:37.354,-33171.345,-46374.119999999995,-85851.18,-50729.13,-12533.22,-17813.43,6715.17,-41647.14,-1.6493461797672244,-4.0977784116202995,-4.090442051476059,-2.758779078121032,-2.9563149318180506,-3.83111288906737,-2.1544412603697367,1.6289205206092916,0.93114996,0.038513085,0.354003,-33.98402,-4.5017,-28.49042,69.0
1774822777.3578372,0.003347635269165039,2026-03-29T22:19:37.357,2026-03-29T18:19:37.357,-33185.744999999995,-46379.384999999995,-85847.985,-50712.75,-12517.02,-17803.44,6713.82,-41655.375,-1.0042561658925706,-3.975050955030039,-4.217590586449148,-0.04418443192174979,1.1015831337324495,2.369191949469535,-1.1310395877140393,1.5752090915539179,0.93114996,0.038513085,0.354003,-33.98402,-4.5017,-28.49042,69.0
1774822777.357868,3.075599670410156e-05,2026-03-29T22:19:37.357,2026-03-29T18:19:37.357,-33184.26,-46370.52,-85828.545,-50686.47,-12497.58,-17791.38,6717.33,-41661.72,0.0855235007966478,-1.9392476615916114,-2.3124346045864894,2.4866557249479015,4.481046241812079,7.278371596098528,0.3859000375867292,0.6000500100604855,0.93114996,0.038513085,0.354003,-33.98402,-4.5017,-28.49042,69.0
1774822777.3613513,0.003483295440673828,2026-03-29T22:19:37.361,2026-03-29T18:19:37.361,-33180.705,-46372.5,-85832.235,-50692.095,-12502.26,-17794.575,6720.929999999999,-41662.08,1.1394365201298802,1.0990328521066837,0.781185626401719,3.8261785772848267,5.7007570557832,8.681058750326622,1.661000606603196,-0.753264475522731,0.93114996,0.038513085,0.354003,-33.98402,-4.5017,-28.49042,69.0
1774822777.3613698,1.8596649169921875e-05,2026-03-29T22:19:37.361,2026-03-29T18:19:37.361,-33181.92,-46377.045,-85839.12,-50703.345,-12505.32,-17789.579999999998,6732.315,-41659.515,1.681447312522377,3.711287443320705,3.6168749849775272,3.5562566284521657,4.336958239594757,6.066735119146265,2.0937605463864926,-1.7259581048535937,0.93114996,0.038513085,0.354003,-33.98402,-4.5017,-28.49042,69.0
1774822777.3665893,0.005219459533691406,2026-03-29T22:19:37.366,2026-03-29T18:19:37.366,-33169.005,-46368.765,-85831.92,-50714.64,-12519.18,-17800.335,6729.12,-41648.13,1.4575420725666084,4.626700541597125,4.821877612045655,1.949463029995732,1.155622808221439,0.8023222460780933,1.507375098650049,-1.7637401855168426,0.932065485,0.03271476,0.35705475000000003,-28.688799999999997,-4.2270199999999996,-28.52094,69.0
1774822777.3666084,1.9073486328125e-05,2026-03-29T22:19:37.366,2026-03-29T18:19:37.366,-33172.02,-46369.485,-85837.5,-50726.115,-12530.97,-17810.594999999998,6721.695,-41645.7,0.560631623039713,3.353513299780601,3.759460003231993,-0.2333131159482744,-2.3123544020556985,-4.58166673427245,0.2254158142863455,-0.8226480421227759,0.932065485,0.03271476,0.35705475000000003,-28.688799999999997,-4.2270199999999996,-28.52094,69.0
1774822777.372051,0.005442619323730469,2026-03-29T22:19:37.372,2026-03-29T18:19:37.372,-33175.08,-46371.104999999996,-85837.995,-50718.689999999995,-12519.539999999999,-17801.1,6723.0,-41642.28,-0.6008394659865478,0.4408433546536255,0.8583162665564865,-2.1157198827004042,-4.5196045001626395,-7.618877681365972,-1.0995841783026228,0.6048529809234919,0.932065485,0.03271476,0.35705475000000003,-28.688799999999997,-4.2270199999999996,-28.52094,69.0
1774822777.3720644,1.33514404296875e-05,2026-03-29T22:19:37.372,2026-03-29T18:19:37.372,-33183.09,-46370.97,-85836.555,-50720.534999999996,-12522.105,-17808.12,6717.24,-41647.59,-1.484242206940093,-2.7574126851594345,-2.5589789850733125,-3.0610237660846833,-4.603127445515895,-7.047707576071844,-1.8172593714770808,1.755495145177462,0.932065485,0.03271476,0.35705475000000003,-28.688799999999997,-4.2270199999999996,-28.52094,69.0
1774822777.376346,0.004281759262084961,2026-03-29T22:19:37.376,2026-03-29T18:19:37.376,-33181.965,-46372.049999999996,-85836.42,-50722.424999999996,-12525.48,-17810.864999999998,6721.65,-41645.205,-1.6656008091009133,-4.715327567533592,-4.880474337586734,-2.8635197718735954,-2.7149429793413726,-3.331964249115921,-1.6022503455547443,2.0066302562803933,0.932065485,0.03271476,0.35705475000000003,-28.688799999999997,-4.2270199999999996,-28.52094,69.0
1774822777.376367,2.09808349609375e-05,2026-03-29T22:19:37.376,2026-03-29T18:19:37.376,-33184.44,-46381.14,-85843.26,-50721.479999999996,-12524.625,-17808.39,6724.44,-41644.08,-1.0462880588894443,-4.466807406743606,-4.965024754652165,-1.7339200644343513,0.14033508773889442,1.6514113153472902,-0.6065415413863627,1.210561161809579,0.932065485,0.03271476,0.35705475000000003,-28.688799999999997,-4.2270199999999996,-28.52094,69.0
1774822777.376386,1.8835067749023438e-05,2026-03-29T22:19:37.376,2026-03-29T18:19:37.376,-33189.435,-46385.415,-85844.34,-50714.28,-12515.984999999999,-17797.995,6720.795,-41648.22,0.08851048134243063,-2.0836138125100137,-2.6993575412402673,-0.13848988399337891,2.640655653365879,5.56465484179638,0.6325823326676641,-0.22696717193385363,0.932065485,0.03271476,0.35705475000000003,-28.688799999999997,-4.2270199999999996,-28.52094,69.0
1774822777.3763928,6.9141387939453125e-06,2026-03-29T22:19:37.376,2026-03-29T18:19:37.376,-33182.775,-46375.47,-85829.12999999999,-50699.295,-12503.564999999999,-17781.48,6724.9349999999995,-41650.695,1.1951354047890193,1.3376545749793776,0.918662138486901,1.3998799335118894,3.769024316926787,6.716218900155232,1.4773924636335733,-1.5633776789816347,0.932065485,0.03271476,0.35705475000000003,-28.688799999999997,-4.2270199999999996,-28.52094,69.0
1774822777.383764,0.007371187210083008,2026-03-29T22:19:37.383,2026-03-29T18:19:37.383,-33178.95,-46369.799999999996,-85826.52,-50702.13,-12510.27,-17789.489999999998,6727.41,-41651.595,1.728093182932935,4.183031320408798,4.222020566098415,2.4501749724415474,3.2252672846248767,4.793227967213253,1.5179307596242357,-2.1119419543383255,0.932065485,0.03271476,0.35705475000000003,-28.688799999999997,-4.2270199999999996,-28.52094,69.0
1774822777.3837829,1.8835067749023438e-05,2026-03-29T22:19:37.383,2026-03-29T18:19:37.383,-33177.195,-46373.04,-85841.37,-50715.314999999995,-12520.17,-17801.28,6725.565,-41648.58,1.4081544406073396,5.086734270425393,5.644797197308337,2.7438585380414713,1.461432125349655,0.9016084789057673,0.7742194414888941,-1.5996358523042495,0.932065485,0.03271476,0.35705475000000003,-28.688799999999997,-4.2270199999999996,-28.52094,69.0
1774822777.3837998,1.6927719116210938e-05,2026-03-29T22:19:37.383,2026-03-29T18:19:37.383,-33164.685,-46362.6,-85833.09,-50713.29,-12518.82,-17802.315,6715.665,-41637.915,0.37024867878988704,3.5895403688257064,4.463635543629938,2.1953242111093516,-0.6263240162461714,-3.0541319125986437,-0.3290177167083962,-0.3017487424624757,0.9295630500000001,0.034973055,0.35998443,-26.308239999999998,-4.577999999999999,-30.04694,69.0
1774822777.383807,7.152557373046875e-06,2026-03-29T22:19:37.383,2026-03-29T18:19:37.383,-33157.575,-46357.29,-85822.29,-50706.405,-12516.84,-17803.035,6713.55,-41630.22,-0.8875987231132001,0.3711709766824176,1.1594671523251294,0.9133957620481268,-2.157083549882784,-5.309333127510578,-1.196891972077836,1.1127595319374355,0.9295630500000001,0.034973055,0.35998443,-26.308239999999998,-4.577999999999999,-30.04694,69.0
1774822777.389841,0.006034135818481445,2026-03-29T22:19:37.389,2026-03-29T18:19:37.389,-33165.854999999996,-46368.27,-85828.905,-50707.08,-12516.029999999999,-17799.614999999998,6724.575,-41629.994999999995,-1.738105386485926,-3.0605771742464563,-2.7792786338024023,-0.78579274890049,-2.638391196461073,-5.030172832539814,-1.3812510475063655,1.9364778774708986,0.9295630500000001,0.034973055,0.35998443,-26.308239999999998,-4.577999999999999,-30.04694,69.0
1774822777.3898635,2.2411346435546875e-05,2026-03-29T22:19:37.389,2026-03-29T18:19:37.389,-33171.165,-46374.705,-85839.84,-50713.424999999996,-12520.395,-17807.265,6717.96,-41634.225,-1.733342996939693,-5.080617356854934,-5.530978072391425,-2.398574583335899,-2.0944815722781596,-2.6007709729049697,-0.8121955856319346,1.7871323382711226,0.9295630500000001,0.034973055,0.35998443,-26.308239999999998,-4.577999999999999,-30.04694,69.0
1774822777.3957677,0.005904197692871094,2026-03-29T22:19:37.395,2026-03-29T18:19:37.395,-33178.455,-46364.13,-85818.23999999999,-50685.75,-12494.16,-17785.665,6710.085,-41645.564999999995,-0.8375436920317368,-4.7200185953048495,-5.785469726843002,-3.3361689655241915,-0.93716437099372,0.6792295886213254,0.17580993316313676,0.7889188743493385,0.9295630500000001,0.034973055,0.35998443,-26.308239999999998,-4.577999999999999,-30.04694,69.0
1774822777.395818,5.030632019042969e-05,2026-03-29T22:19:37.395,2026-03-29T18:19:37.395,-33177.42,-46360.259999999995,-85812.56999999999,-50681.61,-12492.404999999999,-17786.655,6714.495,-41649.84,0.5358967217565471,-2.1320374670495075,-3.3664129690359643,-3.1242674283243317,0.30335305664785667,3.2847174388080203,1.0329548878620527,-0.5161654340792141,0.9295630500000001,0.034973055,0.35998443,-26.308239999999998,-4.577999999999999,-30.04694,69.0
1774822777.3993807,0.0035626888275146484,2026-03-29T22:19:37.399,2026-03-29T18:19:37.399,-33176.385,-46367.595,-85822.245,-50690.115,-12498.615,-17791.829999999998,6731.91,-41643.585,1.7110826658551321,1.474122479913695,0.6638289229616351,-1.642067458754917,1.2237177313887848,4.178032533561229,1.2939474363798167,-1.4686669077261465,0.9295630500000001,0.034973055,0.35998443,-26.308239999999998,-4.577999999999999,-30.04694,69.0
1774822777.399418,3.743171691894531e-05,2026-03-29T22:19:37.399,2026-03-29T18:19:37.399,-33181.965,-46377.54,-85831.155,-50693.895,-12504.6,-17800.695,6730.785,-41637.104999999996,2.0772280005456136,4.402611854679697,4.474656467862163,0.71943072512009,1.654108256601868,3.209495921412577,0.8271119410869846,-1.635767193324874,0.9295630500000001,0.034973055,0.35998443,-26.308239999999998,-4.577999999999999,-30.04694,69.0
1774822777.4025412,0.003123044967651367,2026-03-29T22:19:37.402,2026-03-29T18:19:37.402,-33180.57,-46383.84,-85846.14,-50710.725,-12527.595,-17823.645,6713.594999999999,-41630.445,1.3999477036390795,5.2732119371082575,6.303089153253087,3.102184671085328,1.615265265322086,1.0585309634188604,-0.09969277833514265,-1.0156797237824924,0.9295630500000001,0.034973055,0.35998443,-26.308239999999998,-4.577999999999999,-30.04694,69.0
1774822777.402562,2.0742416381835938e-05,2026-03-29T22:19:37.402,2026-03-29T18:19:37.402,-33179.265,-46386.945,-85858.515,-50728.095,-12545.595,-17833.77,6707.61,-41623.02,-0.040491074224097715,3.674742613318633,5.271583298115094,4.472745471706109,1.2047994719343909,-1.194074122491902,-0.9693427961047992,-0.00246682447588103,0.9295630500000001,0.034973055,0.35998443,-26.308239999999998,-4.577999999999999,-30.04694,69.0
1774822777.4055483,0.002986431121826172,2026-03-29T22:19:37.405,2026-03-29T18:19:37.405,-33192.09,-46385.729999999996,-85839.97499999999,-50680.53,-12505.185,-17808.3,6709.545,-41627.88,-1.561803815651437,0.3588360943062692,1.8075105541102994,4.0744521698332035,0.5158803725412168,-2.6082943870394413,-1.2988798836408724,0.8548636491383094,0.928037175,0.04101552,0.36413481000000003,-29.3755,-6.2566,-30.031679999999998,69.0
1774822777.4055688,2.0503997802734375e-05,2026-03-29T22:19:37.405,2026-03-29T18:19:37.405,-33183.63,-46386.045,-85844.565,-50663.43,-12489.75,-17790.66,6717.105,-41621.939999999995,-2.399604161442403,-3.117119702383304,-2.5356793514994718,1.8405958001638438,-0.3571910350911763,-2.7694105424884192,-0.9024481818959632,1.1558245876412,0.928037175,0.04101552,0.36413481000000003,-29.3755,-6.2566,-30.031679999999998,69.0
1774822777.409635,0.0040662288665771484,2026-03-29T22:19:37.409,2026-03-29T18:19:37.409,-33191.685,-46407.869999999995,-85876.69499999999,-50693.265,-12500.189999999999,-17785.395,6727.41,-41619.689999999995,-2.085573875638403,-5.126624436314092,-5.780122145572029,-1.4554872638198617,-1.2539678486212607,-1.8621639664132215,0.007773270554358997,0.8453098956235466,0.928037175,0.04101552,0.36413481000000003,-29.3755,-6.2566,-30.031679999999998,69.0
1774822777.409664,2.8848648071289062e-05,2026-03-29T22:19:37.409,2026-03-29T18:19:37.409,-33174.674999999996,-46390.185,-85864.815,-50723.955,-12513.6,-17786.295,6726.554999999999,-41616.494999999995,-0.6986306389959888,-4.739484540420778,-6.429172593866758,-4.4409205165621835,-1.907236567119862,-0.45894839290422207,0.9363149343079197,0.20311894756022827,0.928037175,0.04101552,0.36413481000000003,-29.3755,-6.2566,-30.031679999999998,69.0
1774822777.413898,0.0042340755462646484,2026-03-29T22:19:37.413,2026-03-29T18:19:37.413,-33152.354999999996,-46361.79,-85839.93,-50742.765,-12532.904999999999,-17800.065,6721.965,-41610.78,1.1421619382257997,-2.1537932886203386,-4.160393592233348,-5.717444767668166,-2.001103050696479,0.8173280525972562,1.3724497084099787,-0.35314858049486786,0.928037175,0.04101552,0.36413481000000003,-29.3755,-6.2566,-30.031679999999998,69.0
1774822777.4139233,2.5272369384765625e-05,2026-03-29T22:19:37.413,2026-03-29T18:19:37.413,-33153.39,-46356.39,-85828.41,-50724.494999999995,-12519.63,-17790.434999999998,6725.429999999999,-41608.08,2.552764529590684,1.4068122149388558,0.01609165907519102,-4.528283606727965,-1.330725334251028,1.5647475354126303,1.0670768798387256,-0.5265022957307982,0.928037175,0.04101552,0.36413481000000003,-29.3755,-6.2566,-30.031679999999998,69.0
1774822777.424125,0.010201692581176758,2026-03-29T22:19:37.424,2026-03-29T18:19:37.424,-33154.784999999996,-46342.979999999996,-85812.075,-50707.665,-12518.595,-17796.735,6725.5199999999995,-41609.475,2.8054186421076848,4.2768787318689645,4.211187606993474,-1.1941278701835314,0.020024451993949376,1.692581026470642,0.16964964600913143,-0.3057570031085607,0.928037175,0.04101552,0.36413481000000003,-29.3755,-6.2566,-30.031679999999998,69.0
1774822777.4241517,2.6702880859375e-05,2026-03-29T22:19:37.424,2026-03-29T18:19:37.424,-33182.145,-46365.345,-85832.64,-50717.384999999995,-12527.91,-17809.965,6710.13,-41622.659999999996,1.6962396194199054,5.1333506282102475,6.517325112256572,2.9284338394279104,1.6083109415712695,1.3376028247562919,-0.8484409728515787,0.056067010724105915,0.928037175,0.04101552,0.36413481000000003,-29.3755,-6.2566,-30.031679999999998,69.0
1774822777.4241745,2.288818359375e-05,2026-03-29T22:19:37.424,2026-03-29T18:19:37.424,-33202.485,-46375.064999999995,-85828.23,-50699.025,-12505.095,-17790.255,6703.5599999999995,-41632.965,-0.32387522134093216,3.6087014997949716,5.881614670088805,5.997866083440083,2.755760158621211,0.7081224864194873,-1.4433722882870819,0.2295534877641875,0.928037175,0.04101552,0.36413481000000003,-29.3755,-6.2566,-30.031679999999998,69.0
1774822777.4241807,6.198883056640625e-06,2026-03-29T22:19:37.424,2026-03-29T18:19:37.424,-33186.555,-46363.229999999996,-85823.415,-50700.689999999995,-12506.13,-17791.2,6718.41,-41625.54,-2.3310929327409227,0.4474171834409347,2.5896352383624874,6.525233114829927,2.8457754855831277,-0.027415030920397248,-1.2884749699330251,0.04199606296036,0.928037175,0.04101552,0.36413481000000003,-29.3755,-6.2566,-30.031679999999998,69.0
1774822777.424189,8.344650268554688e-06,2026-03-29T22:19:37.424,2026-03-29T18:19:37.424,-33177.69,-46368.674999999996,-85836.105,-50712.795,-12519.135,-17804.52,6729.974999999999,-41617.979999999996,-3.3505735569213155,-2.8601162233330766,-1.8638934023718225,4.110305182827576,1.6605440773222997,-0.7511692476597632,-0.4499375697681988,-0.3927641577471172,0.929379945,0.04089345,0.36913968,-29.87908,-7.84364,-28.36834,69.0
1774822777.424195,5.9604644775390625e-06,2026-03-29T22:19:37.424,2026-03-29T18:19:37.424,-33174.72,-46370.159999999996,-85835.34,-50709.645,-12515.445,-17798.085,6731.82,-41615.055,-2.825842505100799,-4.785256183852179,-5.458879748799573,-0.29392440438919293,-0.4283628391395568,-1.3376079713387814,0.6446514625070882,-0.7344882420975559,0.929379945,0.04089345,0.36913968,-29.87908,-7.84364,-28.36834,69.0
1774822777.4327545,0.008559465408325195,2026-03-29T22:19:37.432,2026-03-29T18:19:37.432,-33169.5,-46365.84,-85828.995,-50708.7,-12516.164999999999,-17793.54,6729.75,-41613.615,-0.9110256688702416,-4.472172846868513,-6.573471017974055,-4.751671505309442,-2.5504419601280306,-1.6110017996716959,1.4284053156697025,-0.637315072267471,0.929379945,0.04089345,0.36913968,-29.87908,-7.84364,-28.36834,69.0
1774822777.4327743,1.9788742065429688e-05,2026-03-29T22:19:37.432,2026-03-29T18:19:37.432,-33168.015,-46368.63,-85835.745,-50715.54,-12519.494999999999,-17796.285,6723.134999999999,-41611.905,1.5636140684583615,-2.1196320043708643,-4.7223071202724975,-7.209277386704979,-3.704336246409082,-1.3875199133328666,1.4908877962133344,0.0007215086805501153,0.929379945,0.04089345,0.36913968,-29.87908,-7.84364,-28.36834,69.0
1774822777.436734,0.00395965576171875,2026-03-29T22:19:37.436,2026-03-29T18:19:37.436,-33170.174999999996,-46376.369999999995,-85848.56999999999,-50727.465,-12527.055,-17800.335,6722.865,-41609.07,3.452249509296249,1.1373321731466974,-0.7704945132963962,-6.461402131473433,-3.2450878650393835,-0.5984925489760378,0.7923211767178802,0.9184731642969202,0.929379945,0.04089345,0.36913968,-29.87908,-7.84364,-28.36834,69.0
1774822777.4367547,2.0742416381835938e-05,2026-03-29T22:19:37.436,2026-03-29T18:19:37.436,-33169.32,-46369.215,-85835.11499999999,-50714.505,-12520.529999999999,-17799.03,6715.98,-41604.795,3.8233260511142593,3.7781838703009147,3.472500826067063,-2.7545343258286676,-1.2467826141662801,0.5857783074838154,-0.31530923725918153,1.593731108073837,0.929379945,0.04089345,0.36913968,-29.87908,-7.84364,-28.36834,69.0
1774822777.4367757,2.09808349609375e-05,2026-03-29T22:19:37.436,2026-03-29T18:19:37.436,-33168.375,-46361.655,-85819.36499999999,-50696.369999999995,-12505.14,-17787.285,6716.205,-41602.59,2.4139206546410032,4.611600533426645,6.0880211615123505,2.279769423928059,1.4636149269905847,1.7381960075638963,-1.2701489876426209,1.529356924265064,0.929379945,0.04089345,0.36913968,-29.87908,-7.84364,-28.36834,69.0
1774822777.4367855,9.775161743164062e-06,2026-03-29T22:19:37.436,2026-03-29T18:19:37.436,-33172.515,-46366.244999999995,-85820.265,-50692.545,-12496.904999999999,-17778.105,6723.134999999999,-41600.88,-0.211068334903891,3.316195730745094,5.924421203679331,6.354026564387532,3.650987533482253,2.319802276729064,-1.589518759973894,0.5700831238462102,0.929379945,0.04089345,0.36913968,-29.87908,-7.84364,-28.36834,69.0
1774822777.4414227,0.004637241363525391,2026-03-29T22:19:37.441,2026-03-29T18:19:37.441,-33180.345,-46372.455,-85820.985,-50693.939999999995,-12500.01,-17779.59,6729.795,-41601.645,-2.884078521055831,0.5604612406101718,3.110496917074251,7.585208415118495,4.250311062838484,1.9435545409575992,-1.1157635151827423,-0.9384174375124074,0.929379945,0.04089345,0.36913968,-29.87908,-7.84364,-28.36834,69.0
1774822777.4414418,1.9073486328125e-05,2026-03-29T22:19:37.441,2026-03-29T18:19:37.441,-33179.76,-46376.865,-85835.205,-50707.979999999996,-12513.42,-17793.765,6722.6849999999995,-41601.195,-4.355373964598518,-2.340524376997813,-1.0257966002686005,5.384886303756529,2.9003455539276883,0.6224239174650648,-0.09293918705056244,-2.2638114984733466,0.929379945,0.04089345,0.36913968,-29.87908,-7.84364,-28.36834,69.0
1774822777.4455392,0.004097461700439453,2026-03-29T22:19:37.445,2026-03-29T18:19:37.445,-33172.74,-46378.619999999995,-85842.94499999999,-50715.99,-12520.484999999999,-17800.695,6719.759999999999,-41598.81,-3.8764561851350536,-4.056090193890653,-4.587159516882033,0.7491418263053184,0.15882348312271735,-1.1523610571137322,0.9624055662416848,-2.643441141711473,0.9348120600000001,0.040466205,0.371520045,-23.8056,-6.53128,-29.26868,69.0
1774822777.4455595,2.0265579223632812e-05,2026-03-29T22:19:37.445,2026-03-29T18:19:37.445,-33168.96,-46383.84,-85854.42,-50729.085,-12534.435,-17815.23,6713.55,-41593.86,-1.5744563736433177,-3.854567190492917,-5.98556014732031,-4.198364106964641,-2.7273534497429,-2.5832897822995076,1.526559837516726,-1.708627206798664,0.9348120600000001,0.040466205,0.371520045,-23.8056,-6.53128,-29.26868,69.0
1774822777.4520807,0.0065212249755859375,2026-03-29T22:19:37.452,2026-03-29T18:19:37.452,-33167.655,-46377.765,-85844.205,-50716.305,-12520.529999999999,-17805.42,6716.655,-41587.424999999996,1.5674282383282412,-1.915886077300432,-4.6592932740864565,-7.197655786571917,-4.402525261699184,-2.9349124581820227,1.331980740091163,0.25443558112781955,0.9348120600000001,0.040466205,0.371520045,-23.8056,-6.53128,-29.26868,69.0
1774822777.4521084,2.765655517578125e-05,2026-03-29T22:19:37.452,2026-03-29T18:19:37.452,-33192.315,-46376.549999999996,-85829.44499999999,-50699.564999999995,-12508.56,-17802.18,6718.32,-41602.14,4.130932931031138,0.791491735785469,-1.3006143673190242,-6.906658924315448,-4.056675308211711,-1.9233340818235471,0.49481801870862135,2.3712185563980106,0.9348120600000001,0.040466205,0.371520045,-23.8056,-6.53128,-29.26868,69.0
1774822777.4539115,0.0018031597137451172,2026-03-29T22:19:37.453,2026-03-29T18:19:37.453,-33187.365,-46374.479999999996,-85834.035,-50706.81,-12519.18,-17817.795,6711.57,-41599.17,4.904668773137545,2.9939043120019884,2.4996372051272466,-3.5163393474921762,-1.8298830150639651,0.08385277231945225,-0.5543127757995285,3.5723821095726036,0.9348120600000001,0.040466205,0.371520045,-23.8056,-6.53128,-29.26868,69.0
1774822777.4539206,9.059906005859375e-06,2026-03-29T22:19:37.453,2026-03-29T18:19:37.453,-33166.89,-46369.845,-85835.43,-50701.005,-12505.68,-17790.614999999998,6713.775,-41584.905,3.455889276459447,3.715118279673617,5.010389088366239,1.362086483197996,1.2404975819576687,2.1878087161160455,-1.2952606126497255,3.1352778542518047,0.9348120600000001,0.040466205,0.371520045,-23.8056,-6.53128,-29.26868,69.0
1774822777.4582312,0.00431060791015625,2026-03-29T22:19:37.458,2026-03-29T18:19:37.458,-33157.35,-46366.02,-85829.58,-50692.275,-12495.105,-17777.024999999998,6720.929999999999,-41576.76,0.36247415441031955,2.711732080367011,5.158194327314338,5.474710414922386,3.7122036822539504,3.3680053274305246,-1.3801106090728774,1.098236520750191,0.9348120600000001,0.040466205,0.371520045,-23.8056,-6.53128,-29.26868,69.0
1774822777.458262,3.075599670410156e-05,2026-03-29T22:19:37.458,2026-03-29T18:19:37.458,-33182.145,-46373.22,-85817.16,-50678.865,-12487.005,-17779.725,6719.219999999999,-41589.405,-3.01596642918001,0.5460552050585142,2.9926956403025264,6.986431555231331,4.431799805921707,2.990703413477535,-0.7984666935996136,-1.6832918209964445,0.9348120600000001,0.040466205,0.371520045,-23.8056,-6.53128,-29.26868,69.0
1774822777.4616349,0.0033729076385498047,2026-03-29T22:19:37.461,2026-03-29T18:19:37.461,-33199.424999999996,-46381.409999999996,-85823.055,-50675.49,-12489.119999999999,-17785.305,6719.355,-41599.305,-5.138343813139971,-1.7195480748185052,-0.38541448431816683,5.317038147409957,3.0885594891263217,1.1569192011535425,0.13300385434645481,-3.8988872771911534,0.9348120600000001,0.040466205,0.371520045,-23.8056,-6.53128,-29.26868,69.0
1774822777.4616432,8.344650268554688e-06,2026-03-29T22:19:37.461,2026-03-29T18:19:37.461,-33192.315,-46384.155,-85841.50499999999,-50689.71,-12509.73,-17806.14,6714.585,-41599.215,-4.987803031652958,-3.044142900961257,-3.380207897938387,1.362770950427656,0.35548170221788156,-1.3035592930268216,0.9436743014576058,-4.408919043945437,0.9348120600000001,0.040466205,0.371520045,-23.8056,-6.53128,-29.26868,69.0
1774822777.4668164,0.005173206329345703,2026-03-29T22:19:37.466,2026-03-29T18:19:37.466,-33190.065,-46386.09,-85843.98,-50705.595,-12525.164999999999,-17819.864999999998,6709.7699999999995,-41591.88,-2.5586332128727074,-2.8894194343771726,-4.6608275267443044,-2.9805690999238137,-2.4497129511582867,-3.211408730333163,1.2498661376828901,-2.8311201089163665,0.943784205,0.043640025,0.376036635,-20.89094,-3.95234,-27.42222,69.0
1774822777.4668422,2.574920654296875e-05,2026-03-29T22:19:37.466,2026-03-29T18:19:37.466,-33188.94,-46394.145,-85859.19,-50722.65,-12526.74,-17807.94,6715.98,-41582.475,1.108853422977823,-1.4369102935789326,-3.7612460454904264,-5.7403437745843755,-4.011585211106718,-3.614719496438266,0.9389805889043742,0.21454944257014696,0.943784205,0.043640025,0.376036635,-20.89094,-3.95234,-27.42222,69.0
1774822777.4699783,0.003136157989501953,2026-03-29T22:19:37.469,2026-03-29T18:19:37.469,-33179.58,-46392.03,-85865.12999999999,-50729.939999999995,-12530.744999999999,-17810.19,6716.655,-41572.575,4.375842650141689,0.5455117909012015,-1.2452180334511775,-5.780059479013963,-3.6488353727906295,-2.27579976655055,0.207458744234535,3.3485351407346764,0.943784205,0.043640025,0.376036635,-20.89094,-3.95234,-27.42222,69.0
1774822777.4700055,2.7179718017578125e-05,2026-03-29T22:19:37.470,2026-03-29T18:19:37.470,-33169.455,-46379.7,-85844.34,-50718.42,-12523.365,-17805.555,6714.585,-41567.715,5.741886764778277,2.103515870987986,1.619723079121617,-3.2720244568773844,-1.6206707830414562,0.18608943792433916,-0.5578387463592808,5.067488172681158,0.943784205,0.043640025,0.376036635,-20.89094,-3.95234,-27.42222,69.0
1774822777.4765947,0.006589174270629883,2026-03-29T22:19:37.476,2026-03-29T18:19:37.476,-33173.82,-46372.275,-85837.14,-50715.945,-12523.455,-17806.23,6714.63,-41572.89,4.537957478735219,2.556566831491225,3.4991916139764134,0.4690949008909104,1.0343863013067018,2.5816000009929296,-0.9851806887219606,4.475069239578208,0.943784205,0.043640025,0.376036635,-20.89094,-3.95234,-27.42222,69.0
1774822777.4766147,2.002716064453125e-05,2026-03-29T22:19:37.476,2026-03-29T18:19:37.476,-33174.81,-46371.104999999996,-85838.04,-50711.04,-12519.09,-17803.89,6718.32,-41576.445,1.2537479259650919,1.7961579754615926,3.620129129591261,3.6741511275058674,3.0332294707193137,3.7342170160384245,-0.9008729980302993,1.747974365434963,0.943784205,0.043640025,0.376036635,-20.89094,-3.95234,-27.42222,69.0
1774822777.4793043,0.0026895999908447266,2026-03-29T22:19:37.479,2026-03-29T18:19:37.479,-33166.395,-46368.27,-85843.44,-50718.465,-12527.01,-17813.88,6713.009999999999,-41570.82,-2.661107840172874,0.29091561554954126,2.091343835618769,4.968787885128528,3.4793782397325685,3.0693133809412187,-0.39856359920256823,-1.9049943214143195,0.943784205,0.043640025,0.376036635,-20.89094,-3.95234,-27.42222,69.0
1774822777.4793336,2.9325485229492188e-05,2026-03-29T22:19:37.479,2026-03-29T18:19:37.479,-33159.645,-46363.14,-85840.605,-50722.02,-12529.26,-17816.895,6708.915,-41568.39,-5.441829051486392,-1.1834164788371773,-0.21796513656481017,3.9704711098427707,2.275067004013667,0.9093305753803672,0.23179088753695468,-4.78939785740651,0.943784205,0.043640025,0.376036635,-20.89094,-3.95234,-27.42222,69.0
1774822777.4817522,0.00241851806640625,2026-03-29T22:19:37.481,2026-03-29T18:19:37.481,-33161.265,-46368.18,-85846.995,-50724.99,-12526.02,-17810.64,6720.4349999999995,-41563.08,-5.810523208686346,-1.939614228064152,-2.154359607715356,1.3702809399412137,0.12015719460311236,-1.6799724216477183,0.6681192843468577,-5.525088782825208,0.943784205,0.043640025,0.376036635,-20.89094,-3.95234,-27.42222,69.0
1774822777.481779,2.6941299438476562e-05,2026-03-29T22:19:37.481,2026-03-29T18:19:37.481,-33179.265,-46368.54,-85830.3,-50706.674999999996,-12504.42,-17786.745,6731.009999999999,-41573.43,-3.5680504353001368,-1.6998952238904579,-2.8561429622992667,-1.4953267271103676,-1.8811815779395893,-3.4196069823278124,0.7218240076574348,-3.715475171425856,0.943784205,0.043640025,0.376036635,-20.89094,-3.95234,-27.42222,69.0
1774822777.489257,0.007477998733520508,2026-03-29T22:19:37.489,2026-03-29T18:19:37.489,-33173.865,-46369.08,-85835.97,-50719.365,-12517.965,-17800.695,6723.45,-41567.715,0.3007261472862928,-0.6918975795322668,-2.1411647578889847,-3.3318297831321866,-2.789154205239178,-3.457689513075059,0.41920996332897525,-0.15738481268986634,0.946591815,0.05053698,0.38299462500000003,-22.813699999999997,-1.70912,-24.934839999999998,69.0
