unix_time_s,dt_s,UTC,LOCAL,EMG1_Raw,EMG2_Raw,EMG3_Raw,EMG4_Raw,EMG5_Raw,EMG6_Raw,EMG7_Raw,EMG8_Raw,EMG1_Filtered,EMG2_Filtered,EMG3_Filtered,EMG4_Filtered,EMG5_Filtered,EMG6_Filtered,EMG7_Filtered,EMG8_Filtered,Accel1_Raw,Accel2_Raw,Accel3_Raw,Gyro1_Raw,Gyro2_Raw,Gyro3_Raw,Battery
1774822291.7324624,,2026-03-29T22:11:31.732,2026-03-29T18:11:31.732,-33234.21,-47872.305,-85436.145,-50288.534999999996,-14622.525,-19499.67,5579.054999999999,-64169.729999999996,-0.06936630195996328,-0.10026035526355534,-0.013870276685176241,0.22665369691204332,0.08869559267438569,0.024967196301324983,0.10954895070177717,-0.17003486636276371,0.202575165,-0.995663955,0.07067853,2.76206,1.2055399999999998,-1.31236,71.0
1774822291.7325015,3.910064697265625e-05,2026-03-29T22:11:31.732,2026-03-29T18:11:31.732,-33227.955,-47863.485,-85425.48,-50281.965,-14615.369999999999,-19493.325,5572.575,-64168.56,0.3165301014614409,0.8087683457618527,0.6794741860221694,3.0913042457795155,3.132861656265634,2.5830073964785494,-0.951075269064282,-1.1709941597513804,0.202575165,-0.995663955,0.07067853,2.76206,1.2055399999999998,-1.31236,71.0
1774822291.7343931,0.0018916130065917969,2026-03-29T22:11:31.734,2026-03-29T18:11:31.734,-33234.39,-47865.33,-85423.815,-50272.695,-14606.775,-19485.855,5576.445,-64174.86,0.6093614728683975,1.2904232871288672,0.9569370241374786,4.422306357124154,4.6288006161489275,3.842035693048611,-1.6072019400965605,-1.5210940811225786,0.202575165,-0.995663955,0.07067853,2.76206,1.2055399999999998,-1.31236,71.0
1774822291.7344253,3.218650817871094e-05,2026-03-29T22:11:31.734,2026-03-29T18:11:31.734,-33231.42,-47865.555,-85423.31999999999,-50272.604999999996,-14606.955,-19483.155,5589.855,-64169.1,0.6734085462178877,1.1527162223854872,0.7537757506379804,3.627963459748426,3.899964903482114,3.2396858868113547,-1.553581705391982,-1.0779838941907307,0.202575165,-0.995663955,0.07067853,2.76206,1.2055399999999998,-1.31236,71.0
1774822291.7401195,0.005694150924682617,2026-03-29T22:11:31.740,2026-03-29T18:11:31.740,-33232.815,-47870.189999999995,-85431.105,-50278.275,-14613.615,-19489.545,5606.6849999999995,-64167.21,0.455292937480211,0.5055155410826012,0.25255559676728956,1.1493691279888103,1.3501558727351033,1.124198032684065,-0.8017310286500997,-0.11311531612154871,0.200255835,-0.99230703,0.0720213,-1.15976,-0.15259999999999999,-0.6409199999999999,71.0
1774822291.740138,1.8596649169921875e-05,2026-03-29T22:11:31.740,2026-03-29T18:11:31.740,-33232.185,-47871.99,-85436.955,-50278.59,-14613.975,-19490.309999999998,5614.245,-64164.689999999995,0.019934722713086783,-0.3107290029232132,-0.24103299249578006,-1.7787426898806744,-1.7550142711608454,-1.4389828050056237,0.32109240230381714,0.8458651169834239,0.200255835,-0.99230703,0.0720213,-1.15976,-0.15259999999999999,-0.6409199999999999,71.0
1774822291.7425897,0.002451658248901367,2026-03-29T22:11:31.742,2026-03-29T18:11:31.742,-33233.625,-47872.305,-85437.58499999999,-50279.67,-14612.67,-19489.815,5606.6849999999995,-64165.814999999995,-0.4630059348055627,-0.9030975649417111,-0.4761993752964017,-3.746573058395098,-3.9198670836561242,-3.2053065697550767,1.3166476125703304,1.3002343288630427,0.200255835,-0.99230703,0.0720213,-1.15976,-0.15259999999999999,-0.6409199999999999,71.0
1774822291.7426057,1.5974044799804688e-05,2026-03-29T22:11:31.742,2026-03-29T18:11:31.742,-33234.479999999996,-47866.994999999995,-85421.47499999999,-50274.405,-14610.51,-19488.239999999998,5599.844999999999,-64165.59,-0.7835653195042152,-1.0182962246027272,-0.3882014563338105,-3.855811982881823,-4.146679943620893,-3.361437822113228,1.7389004439666103,1.0400577825141029,0.200255835,-0.99230703,0.0720213,-1.15976,-0.15259999999999999,-0.6409199999999999,71.0
1774822291.7492943,0.006688594818115234,2026-03-29T22:11:31.749,2026-03-29T18:11:31.749,-33235.47,-47865.24,-85417.47,-50281.02,-14618.88,-19495.079999999998,5595.929999999999,-64169.369999999995,-0.7833083685550768,-0.6535654389707285,-0.11269163237634124,-2.1363223257364754,-2.4021993730440445,-1.9058241804649427,1.394581902862302,0.24314032969534194,0.200255835,-0.99230703,0.0720213,-1.15976,-0.15259999999999999,-0.6409199999999999,71.0
1774822291.7494185,0.00012421607971191406,2026-03-29T22:11:31.749,2026-03-29T18:11:31.749,-33233.94,-47866.275,-85424.44499999999,-50277.42,-14613.119999999999,-19491.795,5598.179999999999,-64171.53,-0.43420032035361883,-0.036601567181183174,0.118128835023233,0.5034656623443237,0.3986233184486804,0.3813522536671013,0.43062030561440884,-0.6345467986417171,0.200255835,-0.99230703,0.0720213,-1.15976,-0.15259999999999999,-0.6409199999999999,71.0
1774822291.7514591,0.0020406246185302734,2026-03-29T22:11:31.751,2026-03-29T18:11:31.751,-33232.005,-47866.185,-85428.27,-50275.665,-14609.744999999999,-19488.465,5600.16,-64171.439999999995,0.13491278738412738,0.5069951490309692,0.13134267894594068,2.753370621962146,2.8700162119456314,2.351365055930961,-0.7305083706240808,-1.1131468065923877,0.200255835,-0.99230703,0.0720213,-1.15976,-0.15259999999999999,-0.6409199999999999,71.0
1774822291.7514725,1.33514404296875e-05,2026-03-29T22:11:31.751,2026-03-29T18:11:31.751,-33227.055,-47862.854999999996,-85419.045,-50270.895,-14607.765,-19485.225,5599.304999999999,-64165.454999999994,0.6829635714476642,0.7245685443674164,-0.07382540483162925,3.5563458264577075,3.8457096693502613,3.0662404253587874,-1.5779300659119906,-0.9485586575346985,0.200255835,-0.99230703,0.0720213,-1.15976,-0.15259999999999999,-0.6409199999999999,71.0
1774822291.7550764,0.0036039352416992188,2026-03-29T22:11:31.755,2026-03-29T18:11:31.755,-33226.29,-47860.695,-85412.87999999999,-50273.189999999995,-14611.545,-19487.565,5598.8099999999995,-64164.555,0.9587239482312331,0.5562373248736443,-0.32487903998671497,2.6120094315015434,2.9362053209623067,2.2509257741552995,-1.7380707571415352,-0.2579932981975775,0.200255835,-0.99230703,0.0720213,-1.15976,-0.15259999999999999,-0.6409199999999999,71.0
1774822291.7550983,2.193450927734375e-05,2026-03-29T22:11:31.755,2026-03-29T18:11:31.755,-33232.185,-47871.81,-85425.56999999999,-50280.165,-14616.314999999999,-19492.155,5597.235,-64167.479999999996,0.8171595332959445,0.14585248017115865,-0.3889551845136063,0.4857665266944874,0.6835554818589572,0.3978470904984238,-1.1387965528362143,0.5536075366693617,0.200255835,-0.99230703,0.0720213,-1.15976,-0.15259999999999999,-0.6409199999999999,71.0
1774822291.7600143,0.004915952682495117,2026-03-29T22:11:31.760,2026-03-29T18:11:31.760,-33232.229999999996,-47872.71,-85432.455,-50284.89,-14619.555,-19495.8,5596.29,-64168.829999999994,0.29572831737798916,-0.25494994134086063,-0.1330753871631154,-1.714368253843714,-1.7475127039448115,-1.5152401938006008,-0.040304423234871205,1.0230394828947704,0.196959945,-0.99157461,0.070983705,-2.1516599999999997,-0.04578,0.03052,71.0
1774822291.7600362,2.193450927734375e-05,2026-03-29T22:11:31.760,2026-03-29T18:11:31.760,-33230.295,-47869.965,-85430.655,-50281.38,-14614.199999999999,-19492.29,5598.45,-64168.649999999994,-0.3894038262504447,-0.43175733412880624,0.36662078029179396,-2.913784075929552,-3.171011079142112,-2.5375282219077704,1.079501046453639,0.8870736058707936,0.196959945,-0.99157461,0.070983705,-2.1516599999999997,-0.04578,0.03052,71.0
1774822291.7701683,0.010132074356079102,2026-03-29T22:11:31.770,2026-03-29T18:11:31.770,-33230.205,-47870.685,-85431.23999999999,-50280.435,-14613.66,-19492.335,5597.73,-64167.435,-0.9320271899415048,-0.32081999965503605,0.8397436217795594,-2.601080104739592,-2.963285654750261,-2.220423187816306,1.7337429807856903,0.2278063354834621,0.196959945,-0.99157461,0.070983705,-2.1516599999999997,-0.04578,0.03052,71.0
1774822291.7701871,1.8835067749023438e-05,2026-03-29T22:11:31.770,2026-03-29T18:11:31.770,-33227.729999999996,-47871.63,-85430.25,-50279.445,-14615.055,-19492.829999999998,5594.219999999999,-64164.509999999995,-1.0736115573151566,-0.03136743093713119,0.9637191837393074,-1.0482059565515152,-1.3393501739815519,-0.8169887057990274,1.637897147041105,-0.5742562535688368,0.196959945,-0.99157461,0.070983705,-2.1516599999999997,-0.04578,0.03052,71.0
1774822291.770205,1.7881393432617188e-05,2026-03-29T22:11:31.770,2026-03-29T18:11:31.770,-33226.065,-47875.095,-85438.62,-50279.174999999996,-14614.335,-19493.46,5592.195,-64164.869999999995,-0.7278135380676806,0.2305750991637836,0.5597629738969961,0.8748969959504763,0.8019870346255775,0.8843421944191909,0.832343101019211,-1.0534782273056431,0.196959945,-0.99157461,0.070983705,-2.1516599999999997,-0.04578,0.03052,71.0
1774822291.7702107,5.7220458984375e-06,2026-03-29T22:11:31.770,2026-03-29T18:11:31.770,-33230.88,-47878.064999999995,-85444.33499999999,-50276.25,-14607.765,-19488.059999999998,5595.66,-64169.1,-0.031323039501077954,0.28991718782810727,-0.2695369200867938,2.177092750350381,2.3663277814294785,1.9916722104923295,-0.33583973512351945,-0.9215331622990252,0.196959945,-0.99157461,0.070983705,-2.1516599999999997,-0.04578,0.03052,71.0
1774822291.7702177,6.9141387939453125e-06,2026-03-29T22:11:31.770,2026-03-29T18:11:31.770,-33238.44,-47877.075,-85439.25,-50267.835,-14599.35,-19481.715,5598.0,-64180.619999999995,0.7080507513578422,0.10772755418069672,-1.1501086682418313,2.256760218322642,2.623409919215305,1.974450871048248,-1.3629097295799553,-0.2340225027005968,0.196959945,-0.99157461,0.070983705,-2.1516599999999997,-0.04578,0.03052,71.0
1774822291.770223,5.245208740234375e-06,2026-03-29T22:11:31.770,2026-03-29T18:11:31.770,-33235.604999999996,-47875.049999999996,-85438.26,-50269.229999999996,-14601.824999999999,-19484.415,5597.054999999999,-64175.985,1.1475340920529324,-0.19585681998972826,-1.6063312201743025,1.183135226561343,1.55177752873949,0.9198783546831828,-1.8052584226237336,0.6325058024899742,0.196959945,-0.99157461,0.070983705,-2.1516599999999997,-0.04578,0.03052,71.0
1774822291.774321,0.004098176956176758,2026-03-29T22:11:31.774,2026-03-29T18:11:31.774,-33229.215,-47868.795,-85424.22,-50268.195,-14605.244999999999,-19487.655,5593.545,-64169.46,1.069544773100103,-0.41370328326509526,-1.3132480915872837,-0.38489216676498783,-0.19602312432931057,-0.544019825412666,-1.4700519127184053,1.1838826079723173,0.196959945,-0.99157461,0.070983705,-2.1516599999999997,-0.04578,0.03052,71.0
1774822291.7743506,2.956390380859375e-05,2026-03-29T22:11:31.774,2026-03-29T18:11:31.774,-33226.784999999996,-47867.13,-85420.845,-50286.78,-14626.845,-19502.64,5588.054999999999,-64167.255,0.4905312779556077,-0.37754151129990743,-0.298811637690922,-1.5817952660184869,-1.6707468470544131,-1.605852930281002,-0.49849844774055135,1.0832921119312533,0.196959945,-0.99157461,0.070983705,-2.1516599999999997,-0.04578,0.03052,71.0
1774822291.7792768,0.004926204681396484,2026-03-29T22:11:31.779,2026-03-29T18:11:31.779,-33223.86,-47872.439999999995,-85432.095,-50290.424999999996,-14625.765,-19501.11,5591.61,-64161.314999999995,-0.3362890561363192,-0.06546300344830494,1.0216888186727222,-1.8047839969001203,-2.134892645783865,-1.7110111737153904,0.6936650324133545,0.34746325668309674,0.195373035,-0.992245995,0.07067853,0.85456,0.13734,0.51884,71.0
1774822291.7793124,3.552436828613281e-05,2026-03-29T22:11:31.779,2026-03-29T18:11:31.779,-33231.24,-47876.445,-85432.36499999999,-50283.54,-14620.005,-19498.364999999998,5591.429999999999,-64168.38,-1.0308728157655567,0.3720234592317528,2.0163002918057362,-1.0180003187510211,-1.432528080856764,-0.849123573617236,1.5933664299096242,-0.646770635445563,0.195373035,-0.992245995,0.07067853,0.85456,0.13734,0.51884,71.0
1774822291.7822652,0.0029528141021728516,2026-03-29T22:11:31.782,2026-03-29T18:11:31.782,-33240.869999999995,-47869.56,-85418.86499999999,-50274.54,-14611.095,-19488.69,5597.325,-64183.59,-1.2616216381106764,0.6860570889913475,2.1417818420828216,0.2623570680143352,-0.03452886903071127,0.4594086189937427,1.8100588256392869,-1.3554596002616675,0.195373035,-0.992245995,0.07067853,0.85456,0.13734,0.51884,71.0
1774822291.7822807,1.5497207641601562e-05,2026-03-29T22:11:31.782,2026-03-29T18:11:31.782,-33236.729999999996,-47869.244999999995,-85425.56999999999,-50282.46,-14619.105,-19493.684999999998,5595.255,-64181.52,-0.9049039497135724,0.666454167770146,1.2347354838132463,1.2801569798669263,1.2491633894067387,1.4627038343315633,1.2447341502915072,-1.3611454343977907,0.195373035,-0.992245995,0.07067853,0.85456,0.13734,0.51884,71.0
1774822291.7863543,0.004073619842529297,2026-03-29T22:11:31.786,2026-03-29T18:11:31.786,-33234.885,-47873.07,-85429.665,-50282.415,-14618.34,-19493.28,5596.29,-64176.255,-0.11163860838036371,0.26768082226127593,-0.36570334936498144,1.468470308431653,1.723156486511013,1.5954487445989303,0.13537631350636448,-0.610122054813416,0.195373035,-0.992245995,0.07067853,0.85456,0.13734,0.51884,71.0
1774822291.7863882,3.3855438232421875e-05,2026-03-29T22:11:31.786,2026-03-29T18:11:31.786,-33230.79,-47875.005,-85434.525,-50287.455,-14622.345,-19497.329999999998,5594.49,-64170.0,0.7548402272654483,-0.3475818395576468,-1.9419755718163259,0.7582040058046978,1.1775539679214988,0.7881372397419396,-1.0420799048921408,0.5383051624831499,0.195373035,-0.992245995,0.07067853,0.85456,0.13734,0.51884,71.0
1774822291.7938693,0.007481098175048828,2026-03-29T22:11:31.793,2026-03-29T18:11:31.793,-33227.64,-47875.545,-85438.125,-50290.965,-14626.439999999999,-19502.055,5592.33,-64166.759999999995,1.284890977644359,-0.8768443302276824,-2.7251264957045214,-0.39925996403761616,-0.0195555270695015,-0.4984244379789259,-1.776776614392031,1.4850520887818657,0.195373035,-0.992245995,0.07067853,0.85456,0.13734,0.51884,71.0
1774822291.79389,2.0742416381835938e-05,2026-03-29T22:11:31.793,2026-03-29T18:11:31.793,-33227.729999999996,-47875.275,-85435.83,-50288.445,-14623.56,-19498.86,5594.58,-64166.04,1.2168005904430779,-1.0282847963129351,-2.2732554851039244,-1.3010577203256526,-1.1485197219647054,-1.5297537114275255,-1.7441221968588747,1.702725335514678,0.195373035,-0.992245995,0.07067853,0.85456,0.13734,0.51884,71.0
1774822291.7939107,2.0742416381835938e-05,2026-03-29T22:11:31.793,2026-03-29T18:11:31.793,-33235.56,-47874.915,-85428.495,-50280.255,-14613.75,-19490.579999999998,5593.23,-64181.43,0.5668175793218607,-0.6775989339184054,-0.7135884852134068,-1.3991604857637585,-1.5510742578528327,-1.7048746195815223,-0.9497716298423939,1.023707158397175,0.195373035,-0.992245995,0.07067853,0.85456,0.13734,0.51884,71.0
1774822291.7939196,8.821487426757812e-06,2026-03-29T22:11:31.793,2026-03-29T18:11:31.793,-33234.119999999995,-47867.22,-85415.22,-50270.22,-14606.505,-19483.829999999998,5592.78,-64183.77,-0.36984107175828457,0.05179188524311238,1.2820182991262032,-0.6161474265175892,-0.9996362739962052,-0.8926131235974499,0.26768492714751774,-0.25032689175280237,0.195373035,-0.992245995,0.07067853,0.85456,0.13734,0.51884,71.0
1774822291.7983427,0.0044231414794921875,2026-03-29T22:11:31.798,2026-03-29T18:11:31.798,-33233.445,-47868.165,-85415.12999999999,-50271.299999999996,-14609.609999999999,-19485.54,5595.3,-64175.805,-1.1519641855355196,0.8319752269961018,2.7915189117869255,0.6057128372687682,0.17917130322223393,0.4864046180591469,1.3795170451188632,-1.4834426480976646,0.19335888,-0.990903225,0.06848127,1.526,-0.10682,1.4497,71.0
1774822291.7983615,1.8835067749023438e-05,2026-03-29T22:11:31.798,2026-03-29T18:11:31.798,-33234.615,-47872.755,-85426.245,-50278.32,-14612.4,-19489.184999999998,5595.165,-64179.854999999996,-1.3998208772832583,1.2819267013426787,3.0756347141364704,1.550282853710056,1.2920134152851925,1.67910736696687,1.8958583972020409,-2.0239312626374533,0.19335888,-0.990903225,0.06848127,1.526,-0.10682,1.4497,71.0
1774822291.8071053,0.008743762969970703,2026-03-29T22:11:31.807,2026-03-29T18:11:31.807,-33231.33,-47872.305,-85427.325,-50279.715,-14613.345,-19490.715,5595.929999999999,-64178.82,-0.9796784278293951,1.1552693567983905,1.9428946344044935,1.6332197481817412,1.6719353046146097,2.005698045407316,1.5821980612211743,-1.5461110771378037,0.19335888,-0.990903225,0.06848127,1.526,-0.10682,1.4497,71.0
1774822291.8072026,9.72747802734375e-05,2026-03-29T22:11:31.807,2026-03-29T18:11:31.807,-33233.174999999996,-47874.015,-85428.58499999999,-50282.415,-14616.539999999999,-19494.989999999998,5590.9349999999995,-64179.494999999995,-0.07569255557854244,0.47107447225861027,-0.13484126583277758,0.7427352925114022,1.0594024926200096,1.2352205336603947,0.5674326927171484,-0.23716630675176945,0.19335888,-0.990903225,0.06848127,1.526,-0.10682,1.4497,71.0
1774822291.8073192,0.00011658668518066406,2026-03-29T22:11:31.807,2026-03-29T18:11:31.807,-33226.335,-47872.439999999995,-85429.845,-50280.479999999996,-14615.324999999999,-19494.765,5589.315,-64171.619999999995,0.8891505127754694,-0.48041612817149876,-2.2221819591566265,-0.6763253074242245,-0.23999041772129315,-0.2722917714572636,-0.7070530654110464,1.2747688770046264,0.19335888,-0.990903225,0.06848127,1.526,-0.10682,1.4497,71.0
1774822291.8073835,6.437301635742188e-05,2026-03-29T22:11:31.807,2026-03-29T18:11:31.807,-33224.715,-47875.005,-85437.09,-50283.854999999996,-14618.43,-19499.13,5586.255,-64169.1,1.4497976605670049,-1.264997644650092,-3.3491075290998085,-1.8484139642930295,-1.51119862775257,-1.7386269101795553,-1.678417304083205,2.224206200205472,0.19335888,-0.990903225,0.06848127,1.526,-0.10682,1.4497,71.0
1774822291.8102746,0.002891063690185547,2026-03-29T22:11:31.810,2026-03-29T18:11:31.810,-33221.07,-47870.865,-85433.84999999999,-50282.189999999995,-14615.955,-19496.88,5587.335,-64165.229999999996,1.3224743188428951,-1.5068171119144826,-2.968738182803657,-2.0869152589540025,-2.0181196755146757,-2.370131470274607,-1.9114272965773598,2.095650162683204,0.19335888,-0.990903225,0.06848127,1.526,-0.10682,1.4497,71.0
1774822291.810295,2.0503997802734375e-05,2026-03-29T22:11:31.810,2026-03-29T18:11:31.810,-33236.1,-47871.494999999995,-85421.745,-50272.965,-14605.83,-19485.0,5592.96,-64181.34,0.5476760219208268,-1.0695879986860317,-1.2248284331126402,-1.182065664398441,-1.4156673327968732,-1.7815367757864087,-1.2951613026147006,0.8986373671877566,0.19335888,-0.990903225,0.06848127,1.526,-0.10682,1.4497,71.0
1774822291.8150876,0.004792451858520508,2026-03-29T22:11:31.815,2026-03-29T18:11:31.815,-33236.325,-47871.854999999996,-85419.495,-50275.665,-14607.269999999999,-19483.29,5598.585,-64181.475,-0.5188734454180494,-0.12875113431285387,1.1027729020588608,0.45691856158705785,0.04009513036705929,-0.21670724304317257,-0.09761941589275136,-0.8143802256145293,0.19335888,-0.990903225,0.06848127,1.526,-0.10682,1.4497,71.0
1774822291.8151045,1.6927719116210938e-05,2026-03-29T22:11:31.815,2026-03-29T18:11:31.815,-33231.69,-47873.115,-85426.155,-50282.685,-14614.74,-19490.67,5594.985,-64178.549999999996,-1.3679904543859613,0.9021389080978218,2.95376666934674,1.9919576994030392,1.6042955974300799,1.5554376795989235,1.1494668990826677,-2.2054120506808035,0.19335888,-0.990903225,0.06848127,1.526,-0.10682,1.4497,71.0
1774822291.818467,0.003362417221069336,2026-03-29T22:11:31.818,2026-03-29T18:11:31.818,-33237.63,-47875.229999999996,-85427.325,-50281.695,-14616.0,-19493.415,5589.945,-64188.945,-1.5785455912218875,1.5581166883832578,3.4787566765672646,2.5876758820089,2.426854461119528,2.623679121127802,1.8868935197151644,-2.562287662442515,0.192199215,-0.989438385,0.065734695,0.32045999999999997,-1.3734,2.33478,71.0
1774822291.8184931,2.6226043701171875e-05,2026-03-29T22:11:31.818,2026-03-29T18:11:31.818,-33232.185,-47868.975,-85418.81999999999,-50271.03,-14605.605,-19485.495,5593.635,-64185.21,-1.0247782437940165,1.5359449479002751,2.4348424726781723,1.8609029365911185,2.0087351328839587,2.4032803797785816,1.7802926483279093,-1.6612468450610012,0.192199215,-0.989438385,0.065734695,0.32045999999999997,-1.3734,2.33478,71.0
1774822291.8225489,0.00405573844909668,2026-03-29T22:11:31.822,2026-03-29T18:11:31.822,-33230.295,-47871.99,-85420.89,-50267.744999999995,-14601.465,-19481.219999999998,5596.425,-64179.494999999995,0.05197791691061202,0.8343925869349589,0.29863951564569874,0.10818059722270734,0.4881231702890808,0.9495176201525943,0.8738721662086018,0.10307226569924782,0.192199215,-0.989438385,0.065734695,0.32045999999999997,-1.3734,2.33478,71.0
1774822291.8225713,2.2411346435546875e-05,2026-03-29T22:11:31.822,2026-03-29T18:11:31.822,-33233.49,-47880.585,-85432.77,-50280.119999999995,-14610.195,-19488.6,5594.715,-64177.47,1.1467063856204782,-0.2432897596689022,-1.9560764947071867,-1.8177306612729267,-1.4019781464837053,-1.0496985898591502,-0.42617094333530775,1.8922508749559714,0.192199215,-0.989438385,0.065734695,0.32045999999999997,-1.3734,2.33478,71.0
1774822291.8263285,0.0037572383880615234,2026-03-29T22:11:31.826,2026-03-29T18:11:31.826,-33238.89,-47885.354999999996,-85440.555,-50291.64,-14620.365,-19497.555,5589.63,-64182.195,1.7257272826276941,-1.2251927724768779,-3.3101585334471086,-2.929367423094183,-2.6932313065980953,-2.605554759092789,-1.5334249546583472,2.824904879879062,0.192199215,-0.989438385,0.065734695,0.32045999999999997,-1.3734,2.33478,71.0
1774822291.8263495,2.09808349609375e-05,2026-03-29T22:11:31.826,2026-03-29T18:11:31.826,-33238.53,-47884.185,-85442.31,-50290.604999999996,-14619.689999999999,-19497.78,5585.535,-64186.155,1.4846872259040393,-1.6816976469082825,-3.1671046974030284,-2.612763816526384,-2.6794310953092313,-2.921611304637943,-1.9470079635914121,2.4107840276234564,0.192199215,-0.989438385,0.065734695,0.32045999999999997,-1.3734,2.33478,71.0
1774822291.833532,0.007182598114013672,2026-03-29T22:11:31.833,2026-03-29T18:11:31.833,-33236.19,-47884.455,-85442.04,-50291.28,-14621.13,-19500.704999999998,5580.855,-64184.805,0.5056884789217378,-1.4151945745575736,-1.61906831337506,-0.9599205758990395,-1.2957406905414217,-1.8007387561316843,-1.4802017491334032,0.8042784482475299,0.192199215,-0.989438385,0.065734695,0.32045999999999997,-1.3734,2.33478,71.0
1774822291.8335629,3.075599670410156e-05,2026-03-29T22:11:31.833,2026-03-29T18:11:31.833,-33235.02,-47880.045,-85433.895,-50288.085,-14619.06,-19498.68,5585.4,-64183.59,-0.7664100374252496,-0.5440165307052238,0.609158425007987,1.2520421245883975,0.821360636013428,0.24189665276094388,-0.3465434378020879,-1.2520499978344308,0.192199215,-0.989438385,0.065734695,0.32045999999999997,-1.3734,2.33478,71.0
1774822291.8335972,3.4332275390625e-05,2026-03-29T22:11:31.833,2026-03-29T18:11:31.833,-33236.1,-47873.97,-85425.48,-50275.755,-14605.244999999999,-19485.045,5597.865,-64187.415,-1.7244161820991977,0.5541299254564149,2.505244838340505,2.9338497727250408,2.6336892384183974,2.2213289776610403,0.9372297038371256,-2.7734855965658705,0.192199215,-0.989438385,0.065734695,0.32045999999999997,-1.3734,2.33478,71.0
1774822291.8336065,9.298324584960938e-06,2026-03-29T22:11:31.833,2026-03-29T18:11:31.833,-33236.865,-47874.195,-85425.39,-50266.665,-14597.865,-19477.755,5598.675,-64188.36,-1.886416398721146,1.410308121839873,3.236575425237976,3.2265601826798895,3.2161657123318728,3.1638539398885865,1.7875487263123155,-3.0059750441115978,0.192199215,-0.989438385,0.065734695,0.32045999999999997,-1.3734,2.33478,71.0
1774822291.8384075,0.004801034927368164,2026-03-29T22:11:31.838,2026-03-29T18:11:31.838,-33233.67,-47873.61,-85426.155,-50270.354999999996,-14603.085,-19482.3,5594.67,-64181.115,-1.1352528934661315,1.6670658399160676,2.5206590948143117,1.9406330758480028,2.2289478318122202,2.5889592686761382,1.821080497106486,-1.7980236014850397,0.194274405,-0.99010977,0.06420882,-0.62566,-1.7549,3.41824,71.0
1774822291.8384264,1.8835067749023438e-05,2026-03-29T22:11:31.838,2026-03-29T18:11:31.838,-33233.04,-47872.395,-85425.435,-50279.445,-14608.98,-19486.305,5595.705,-64180.53,0.20797446327602914,1.2269360414642714,0.7317736111937948,-0.333124024507854,0.10584590613440296,0.7523191648157348,1.029286636204584,0.3109766436041549,0.194274405,-0.99010977,0.06420882,-0.62566,-1.7549,3.41824,71.0
1774822291.8424652,0.004038810729980469,2026-03-29T22:11:31.842,2026-03-29T18:11:31.842,-33232.095,-47871.945,-85427.775,-50279.715,-14610.51,-19488.059999999998,5595.4349999999995,-64180.845,1.5192383612729357,0.28558644966963836,-1.294828731081997,-2.502035552171775,-2.1420378944061405,-1.4721740193715331,-0.21995182871397687,2.334202658293715,0.194274405,-0.99010977,0.06420882,-0.62566,-1.7549,3.41824,71.0
1774822291.842478,1.2874603271484375e-05,2026-03-29T22:11:31.842,2026-03-29T18:11:31.842,-33234.75,-47876.265,-85433.67,-50277.915,-14607.494999999999,-19487.204999999998,5593.679999999999,-64184.67,2.159728293009407,-0.7590734674499205,-2.658565331616306,-3.504728087062261,-3.415547539232877,-3.014675922358735,-1.3537305737525827,3.3013000077293326,0.194274405,-0.99010977,0.06420882,-0.62566,-1.7549,3.41824,71.0
1774822291.8466337,0.004155635833740234,2026-03-29T22:11:31.846,2026-03-29T18:11:31.846,-33238.44,-47880.99,-85439.295,-50282.055,-14608.439999999999,-19489.454999999998,5591.385,-64189.259999999995,1.7845500209079248,-1.4777297003014038,-2.7990266209134873,-2.835051978730736,-3.069249231205226,-3.128908170528031,-1.8583529107451542,2.723546368119712,0.194274405,-0.99010977,0.06420882,-0.62566,-1.7549,3.41824,71.0
1774822291.8466604,2.6702880859375e-05,2026-03-29T22:11:31.846,2026-03-29T18:11:31.846,-33236.055,-47879.82,-85436.145,-50275.08,-14603.715,-19485.855,5593.724999999999,-64188.854999999996,0.5238048611138542,-1.5858003264503822,-1.72634644199707,-0.7960101924812684,-1.2366957037745285,-1.7543951057585143,-1.5136514952976252,0.8373692437548695,0.194274405,-0.99010977,0.06420882,-0.62566,-1.7549,3.41824,71.0
1774822291.8504653,0.003804922103881836,2026-03-29T22:11:31.850,2026-03-29T18:11:31.850,-33234.795,-47880.134999999995,-85439.47499999999,-50270.13,-14602.32,-19485.54,5592.96,-64189.53,-1.0573451989442693,-1.0529309967328084,0.01807388214686431,1.6430945573368627,1.2240371141621635,0.4548771778171487,-0.48960997970353604,-1.4936448320742906,0.194274405,-0.99010977,0.06420882,-0.62566,-1.7549,3.41824,71.0
1774822291.8505273,6.198883056640625e-05,2026-03-29T22:11:31.850,2026-03-29T18:11:31.850,-33235.74,-47879.009999999995,-85436.775,-50269.95,-14601.375,-19486.485,5591.025,-64188.99,-2.2107025423019366,-0.10574964780783154,1.6359479486390889,3.3160461577739504,3.1402786923226804,2.4474443286569985,0.7374598221788274,-3.1767353060906287,0.194274405,-0.99010977,0.06420882,-0.62566,-1.7549,3.41824,71.0
1774822291.857534,0.007006645202636719,2026-03-29T22:11:31.857,2026-03-29T18:11:31.857,-33230.205,-47868.39,-85423.185,-50280.479999999996,-14609.97,-19488.825,5595.21,-64182.78,-2.357477911943648,0.8709908832485743,2.441919983503055,3.4242518207649892,3.5904239427094304,3.280586276494886,1.6077664987860192,-3.40323632329962,0.194274405,-0.99010977,0.06420882,-0.62566,-1.7549,3.41824,71.0
1774822291.8575537,1.9788742065429688e-05,2026-03-29T22:11:31.857,2026-03-29T18:11:31.857,-33234.525,-47876.805,-85435.29,-50287.32,-14612.355,-19490.219999999998,5595.255,-64182.465,-1.3758113385136104,1.4904955454451094,2.1554207846742477,1.9198584338980862,2.34925239436319,2.5693607811507513,1.7348637563145775,-2.0355896516573218,0.194274405,-0.99010977,0.06420882,-0.62566,-1.7549,3.41824,71.0
1774822291.857584,3.0279159545898438e-05,2026-03-29T22:11:31.857,2026-03-29T18:11:31.857,-33236.235,-47879.369999999995,-85438.53,-50286.869999999995,-14613.57,-19492.605,5592.15,-64185.479999999996,0.3183922766854895,1.514148692046699,0.9896918141269334,-0.4772722499154461,-0.003269354898638125,0.6632070371996283,1.0777341228090227,0.316408158925134,0.19799754,-0.994321185,0.06359847,-1.43444,-1.15976,3.7386999999999997,71.0
1774822291.8575957,1.1682510375976562e-05,2026-03-29T22:11:31.857,2026-03-29T18:11:31.857,-33233.534999999996,-47874.15,-85423.31999999999,-50276.25,-14607.045,-19484.82,5592.15,-64184.04,1.9460012104078372,0.9394096935039721,-0.48473776525765716,-2.632088427448544,-2.3605616110588374,-1.5301467622372529,-0.048861438504140556,2.5699963174597684,0.19799754,-0.994321185,0.06359847,-1.43444,-1.15976,3.7386999999999997,71.0
1774822291.8724883,0.014892578125,2026-03-29T22:11:31.872,2026-03-29T18:11:31.872,-33229.215,-47867.174999999996,-85407.345,-50275.17,-14609.789999999999,-19485.045,5596.875,-64178.729999999996,2.722352846373982,-0.004421373220371609,-1.620750325478549,-3.5399756127932087,-3.617959355482543,-2.9827221180877763,-1.1263476191361523,3.6697570866766127,0.19799754,-0.994321185,0.06359847,-1.43444,-1.15976,3.7386999999999997,71.0
1774822291.872506,1.7642974853515625e-05,2026-03-29T22:11:31.872,2026-03-29T18:11:31.872,-33234.165,-47873.61,-85424.04,-50287.095,-14617.619999999999,-19493.594999999998,5595.21,-64185.57,2.234231257642007,-0.94730550913878,-1.9806447637016884,-2.7992914261651722,-3.194931865343442,-3.0321448866981893,-1.6725699371498233,3.0818353439395576,0.19799754,-0.994321185,0.06359847,-1.43444,-1.15976,3.7386999999999997,71.0
1774822291.8725219,1.5974044799804688e-05,2026-03-29T22:11:31.872,2026-03-29T18:11:31.872,-33235.244999999995,-47877.255,-85429.8,-50286.195,-14615.369999999999,-19491.75,5595.344999999999,-64186.02,0.655460028330914,-1.5204925349172054,-1.5001593183416218,-0.7865136888436701,-1.3019322461307319,-1.6837596158593422,-1.4580697711931168,1.050721585850209,0.19799754,-0.994321185,0.06359847,-1.43444,-1.15976,3.7386999999999997,71.0
1774822291.8725276,5.7220458984375e-06,2026-03-29T22:11:31.872,2026-03-29T18:11:31.872,-33235.604999999996,-47877.165,-85428.0,-50279.58,-14609.07,-19487.16,5593.094999999999,-64186.74,-1.309921530221525,-1.496874027692869,-0.4718392740140895,1.5409500677390175,1.1701594315559642,0.40871577121111685,-0.6009468029917315,-1.5038832538089928,0.19799754,-0.994321185,0.06359847,-1.43444,-1.15976,3.7386999999999997,71.0
1774822291.8725345,6.9141387939453125e-06,2026-03-29T22:11:31.872,2026-03-29T18:11:31.872,-33234.75,-47875.185,-85428.18,-50277.509999999995,-14603.939999999999,-19482.12,5595.57,-64187.46,-2.7415957964864397,-0.8786828456534886,0.6230394202837507,3.1086483699684835,3.0775372770905554,2.265187794369584,0.49815320540078994,-3.405791363899904,0.19799754,-0.994321185,0.06359847,-1.43444,-1.15976,3.7386999999999997,71.0
1774822291.8725395,5.0067901611328125e-06,2026-03-29T22:11:31.872,2026-03-29T18:11:31.872,-33234.39,-47874.869999999995,-85430.52,-50283.045,-14606.1,-19482.75,5599.62,-64185.345,-2.934204201954822,0.09985763285801526,1.3406153587982332,3.2269101517267758,3.558865632826645,3.0428549743377844,1.3451838144684125,-3.764998485758865,0.19799754,-0.994321185,0.06359847,-1.43444,-1.15976,3.7386999999999997,71.0
1774822291.8743694,0.0018298625946044922,2026-03-29T22:11:31.874,2026-03-29T18:11:31.874,-33235.155,-47876.759999999995,-85434.12,-50286.689999999995,-14610.105,-19486.395,5596.965,-64185.075,-1.7436475695161793,1.0577260297396134,1.4519138415578967,1.8933751198311446,2.424959231292314,2.4199497213092047,1.575637081259232,-2.3934826691215516,0.19799754,-0.994321185,0.06359847,-1.43444,-1.15976,3.7386999999999997,71.0
1774822291.874386,1.6689300537109375e-05,2026-03-29T22:11:31.874,2026-03-29T18:11:31.874,-33236.145,-47878.064999999995,-85435.56,-50287.229999999996,-14612.715,-19490.219999999998,5592.6449999999995,-64187.82,0.3212885322128929,1.6113615302674977,1.0021568175831201,-0.2359509750432164,0.2261452434338417,0.7243225617799943,1.110039688230582,0.0997949412830658,0.19799754,-0.994321185,0.06359847,-1.43444,-1.15976,3.7386999999999997,71.0
1774822291.88128,0.00689387321472168,2026-03-29T22:11:31.881,2026-03-29T18:11:31.881,-33234.705,-47875.905,-85430.925,-50282.955,-14609.744999999999,-19487.88,5592.599999999999,-64187.64,2.316046462822966,1.5259427835592638,0.24600053844647665,-2.1768114225298283,-2.0221262848217547,-1.2417575213159386,0.17624614338489847,2.581454667495066,0.202208955,-0.999203985,0.06359847,-0.4578,-0.19838,4.303319999999999,71.0
1774822291.8812945,1.4543533325195312e-05,2026-03-29T22:11:31.881,2026-03-29T18:11:31.881,-33231.6,-47872.665,-85427.415,-50281.29,-14607.269999999999,-19483.965,5597.01,-64186.29,3.2938972789845806,0.8155158172165062,-0.49103345734450593,-3.078616633490215,-3.3153706324629018,-2.5859402118856774,-0.8041850519748778,3.9108827505470853,0.202208955,-0.999203985,0.06359847,-0.4578,-0.19838,4.303319999999999,71.0
1774822291.88131,1.5497207641601562e-05,2026-03-29T22:11:31.881,2026-03-29T18:11:31.881,-33227.82,-47872.935,-85427.91,-50283.27,-14608.845,-19484.73,5598.2699999999995,-64182.645,2.7563310672372605,-0.25090453866126605,-0.9513386711984928,-2.5979991756419647,-3.111176185055785,-2.732838266640821,-1.4078943768886871,3.4652264745376664,0.202208955,-0.999203985,0.06359847,-0.4578,-0.19838,4.303319999999999,71.0
1774822291.881318,8.106231689453125e-06,2026-03-29T22:11:31.881,2026-03-29T18:11:31.881,-33224.625,-47872.665,-85426.73999999999,-50279.04,-14608.305,-19485.719999999998,5594.355,-64175.895,0.9053261117269943,-1.2464255702227898,-1.0257723710275208,-1.0195926355731535,-1.5516055016931904,-1.6670903165052477,-1.391584603091339,1.430259734365238,0.202208955,-0.999203985,0.06359847,-0.4578,-0.19838,4.303319999999999,71.0
1774822291.8865867,0.005268573760986328,2026-03-29T22:11:31.886,2026-03-29T18:11:31.886,-33225.705,-47874.104999999996,-85427.64,-50282.46,-14612.715,-19490.579999999998,5590.53,-64173.329999999994,-1.4297161937499292,-1.7545291870585848,-0.7568880607687664,0.9121060035242792,0.6313275745186369,0.08838305198956159,-0.7860340451400087,-1.278355718624084,0.202208955,-0.999203985,0.06359847,-0.4578,-0.19838,4.303319999999999,71.0
1774822291.886629,4.2438507080078125e-05,2026-03-29T22:11:31.886,2026-03-29T18:11:31.886,-33234.255,-47875.59,-85430.11499999999,-50287.14,-14613.3,-19489.95,5593.905,-64184.625,-3.1657748659231597,-1.5438485741961725,-0.2852647365882449,2.3512215274428425,2.4665936467084646,1.733141607221868,0.13183683784893474,-3.429457171822216,0.202208955,-0.999203985,0.06359847,-0.4578,-0.19838,4.303319999999999,71.0
1774822291.8905811,0.0039520263671875,2026-03-29T22:11:31.890,2026-03-29T18:11:31.890,-33246.315,-47873.655,-85422.465,-50274.494999999995,-14599.935,-19477.62,5599.035,-64202.04,-3.4713961685515335,-0.6760027858453103,0.22093204976520386,2.7232962798785874,3.179791573603813,2.5570645143227497,0.9681664120949146,-4.037910045359012,0.202208955,-0.999203985,0.06359847,-0.4578,-0.19838,4.303319999999999,71.0
1774822291.8906176,3.647804260253906e-05,2026-03-29T22:11:31.890,2026-03-29T18:11:31.890,-33241.905,-47878.29,-85432.77,-50281.74,-14605.56,-19483.469999999998,5595.795,-64196.1,-2.166221487554334,0.5049185003958074,0.6188928732482782,1.946890414238213,2.516194581784692,2.244771728174341,1.3810169332143734,-2.8163490061118814,0.202208955,-0.999203985,0.06359847,-0.4578,-0.19838,4.303319999999999,71.0
1774822291.8946526,0.004034996032714844,2026-03-29T22:11:31.894,2026-03-29T18:11:31.894,-33234.93,-47872.305,-85428.315,-50277.689999999995,-14602.545,-19481.085,5597.1449999999995,-64192.229999999996,0.1779754401668538,1.5055351418200291,0.8145069553107755,0.4230915281086744,0.8185753919201836,0.9873295377983288,1.216404227140955,-0.3096712087626283,0.202208955,-0.999203985,0.06359847,-0.4578,-0.19838,4.303319999999999,71.0
1774822291.8946738,2.1219253540039062e-05,2026-03-29T22:11:31.894,2026-03-29T18:11:31.894,-33233.22,-47870.055,-85423.86,-50278.409999999996,-14603.939999999999,-19480.995,5598.09,-64191.195,2.4897867324918534,1.8894929842310957,0.7655558311712687,-1.1766442881329224,-1.154921249580972,-0.6326209995072599,0.5593525556960764,2.350270008144662,0.202208955,-0.999203985,0.06359847,-0.4578,-0.19838,4.303319999999999,71.0
1774822291.9005804,0.005906581878662109,2026-03-29T22:11:31.900,2026-03-29T18:11:31.900,-33230.744999999995,-47872.35,-85432.815,-50291.369999999995,-14613.84,-19488.375,5597.82,-64187.46,3.6919051913511542,1.470695262617666,0.4816694801027827,-2.210230421249835,-2.574186590165013,-1.914374570694613,-0.3128987551454919,3.9584237838829655,0.20556588,-0.999692265,0.06378157500000001,-0.27468,-1.57178,6.01244,71.0
1774822291.9006152,3.4809112548828125e-05,2026-03-29T22:11:31.900,2026-03-29T18:11:31.900,-33231.645,-47876.445,-85437.135,-50293.259999999995,-14616.539999999999,-19492.155,5593.635,-64187.595,3.2066888936562705,0.4064708083612195,0.029075808426707386,-2.316513365236465,-2.883865784633781,-2.3411671090149375,-1.048826914270488,3.784395067552647,0.20556588,-0.999692265,0.06378157500000001,-0.27468,-1.57178,6.01244,71.0
1774822291.9024954,0.0018801689147949219,2026-03-29T22:11:31.902,2026-03-29T18:11:31.902,-33231.375,-47875.905,-85434.39,-50284.845,-14609.654999999999,-19487.79,5593.86,-64186.515,1.2345043665805129,-0.8572302846917518,-0.4677288992525572,-1.5237013812116234,-2.009980281857247,-1.7810985509829367,-1.360888583939024,1.9044187798153547,0.20556588,-0.999692265,0.06378157500000001,-0.27468,-1.57178,6.01244,71.0
1774822291.9025085,1.3113021850585938e-05,2026-03-29T22:11:31.902,2026-03-29T18:11:31.902,-33247.44,-47882.88,-85433.715,-50279.67,-14602.14,-19482.12,5594.219999999999,-64203.57,-1.3299020590817503,-1.7722967471993933,-0.8442441217414773,-0.1941862494539651,-0.35611872393997124,-0.5132341375721893,-1.131497038792009,-0.8336496480703011,0.20556588,-0.999692265,0.06378157500000001,-0.27468,-1.57178,6.01244,71.0
1774822291.9066615,0.004153013229370117,2026-03-29T22:11:31.906,2026-03-29T18:11:31.906,-33243.84,-47879.595,-85428.495,-50278.814999999995,-14603.355,-19482.84,5595.66,-64201.994999999995,-3.307803653329317,-1.9289588784102343,-0.9441672898706003,1.145918869772147,1.3883295859200433,0.9146402896174961,-0.4513635959999131,-3.1956249216095185,0.20556588,-0.999692265,0.06378157500000001,-0.27468,-1.57178,6.01244,71.0
1774822291.9066813,1.9788742065429688e-05,2026-03-29T22:11:31.906,2026-03-29T18:11:31.906,-33235.65,-47872.215,-85423.455,-50278.5,-14603.49,-19480.995,5597.594999999999,-64193.49,-3.7833918038558902,-1.2434820599953667,-0.6872941817030715,2.01005201364589,2.5342307874404217,1.9227544373894245,0.4184014087923547,-4.120223923011787,0.20556588,-0.999692265,0.06378157500000001,-0.27468,-1.57178,6.01244,71.0
1774822291.912068,0.0053865909576416016,2026-03-29T22:11:31.912,2026-03-29T18:11:31.912,-33235.515,-47872.259999999995,-85425.795,-50283.81,-14606.505,-19482.57,5596.38,-64194.165,-2.5309675160041056,-0.005067615444890997,-0.12609136378682162,2.111620579634301,2.655108914108746,2.1282412020858543,1.1433468422515651,-3.1974991621953737,0.20556588,-0.999692265,0.06378157500000001,-0.27468,-1.57178,6.01244,71.0
1774822291.9120882,2.0265579223632812e-05,2026-03-29T22:11:31.912,2026-03-29T18:11:31.912,-33234.119999999995,-47873.34,-85433.12999999999,-50288.805,-14610.51,-19486.485,5595.03,-64191.24,-0.12150131180250903,1.2449609693725596,0.5459726201415505,1.43916872131583,1.7318795953117136,1.4796065988850342,1.437506566300391,-0.849993052204732,0.20556588,-0.999692265,0.06378157500000001,-0.27468,-1.57178,6.01244,71.0
1774822291.9148884,0.0028002262115478516,2026-03-29T22:11:31.914,2026-03-29T18:11:31.914,-33236.595,-47877.435,-85438.53,-50292.314999999995,-14613.21,-19490.489999999998,5591.655,-64192.68,2.3417140260655067,1.9519435278351494,1.0542658984732365,0.2409174485510691,0.13985180099185204,0.2564543316646328,1.1695557535592656,1.863242397410267,0.20556588,-0.999692265,0.06378157500000001,-0.27468,-1.57178,6.01244,71.0
1774822291.9149108,2.2411346435546875e-05,2026-03-29T22:11:31.914,2026-03-29T18:11:31.914,-33230.52,-47873.924999999996,-85431.78,-50286.645,-14609.88,-19487.204999999998,5593.005,-64184.985,3.734140732839844,1.7982721500963632,1.1567640784784263,-1.062370615178361,-1.50345080706999,-1.052242866410203,0.41780635686643003,3.7278326884424255,0.20556588,-0.999692265,0.06378157500000001,-0.27468,-1.57178,6.01244,71.0
1774822291.9192643,0.004353523254394531,2026-03-29T22:11:31.919,2026-03-29T18:11:31.919,-33233.94,-47872.89,-85428.62999999999,-50281.38,-14604.66,-19482.84,5593.724999999999,-64193.805,3.4282892871120287,0.8502686658388539,0.7637706086880512,-2.0082889519485474,-2.5681325092180853,-1.937701094198749,-0.547122026779404,3.920300170748425,0.205016565,-0.99877674,0.06481917,0.41202,-2.6857599999999997,7.2485,71.0
1774822291.9192853,2.09808349609375e-05,2026-03-29T22:11:31.919,2026-03-29T18:11:31.919,-33237.63,-47874.15,-85429.8,-50280.57,-14602.994999999999,-19481.715,5593.995,-64200.6,1.5779289064638102,-0.46838202523019035,0.002551240905363005,-2.2378515792622804,-2.639736983970919,-2.058709064908401,-1.3517375689109432,2.37234285979814,0.205016565,-0.99877674,0.06481917,0.41202,-2.6857599999999997,7.2485,71.0
1774822291.922459,0.0031735897064208984,2026-03-29T22:11:31.922,2026-03-29T18:11:31.922,-33233.715,-47872.665,-85427.775,-50278.59,-14600.789999999999,-19479.51,5594.849999999999,-64195.784999999996,-0.9613297355880827,-1.5671584280968214,-0.8154012305704587,-1.6218639186919084,-1.6711175019060922,-1.3641991851442854,-1.656521711531186,-0.20830549226416675,0.205016565,-0.99877674,0.06481917,0.41202,-2.6857599999999997,7.2485,71.0
1774822291.9224741,1.52587890625e-05,2026-03-29T22:11:31.922,2026-03-29T18:11:31.922,-33238.575,-47877.795,-85432.31999999999,-50282.415,-14604.164999999999,-19482.255,5594.219999999999,-64202.579999999994,-3.03336417420101,-1.956931230524387,-1.3219026174369903,-0.3304056615708979,-0.008638950828832207,-0.11255020047342935,-1.294600999029185,-2.6646463693934987,0.205016565,-0.99877674,0.06481917,0.41202,-2.6857599999999997,7.2485,71.0
1774822291.9279497,0.005475521087646484,2026-03-29T22:11:31.927,2026-03-29T18:11:31.927,-33239.115,-47879.1,-85435.56,-50287.59,-14610.33,-19487.79,5591.745,-64203.975,-3.7139210118053576,-1.4721981967155997,-1.2620962448183517,1.1908873337819528,1.7204909177579872,1.2183396708871566,-0.35809777648019253,-3.9125262625096937,0.205016565,-0.99877674,0.06481917,0.41202,-2.6857599999999997,7.2485,71.0
1774822291.9279735,2.384185791015625e-05,2026-03-29T22:11:31.927,2026-03-29T18:11:31.927,-33235.604999999996,-47875.634999999995,-85430.34,-50282.145,-14604.795,-19483.02,5593.545,-64202.31,-2.7260075103900085,-0.3441424687315278,-0.6264315156278132,2.3535661127076177,2.8302824811583127,2.102768423309407,0.8108427043501651,-3.4208965068865456,0.205016565,-0.99877674,0.06481917,0.41202,-2.6857599999999997,7.2485,71.0
1774822291.9338975,0.0059239864349365234,2026-03-29T22:11:31.933,2026-03-29T18:11:31.933,-33237.09,-47877.03,-85430.925,-50283.045,-14605.109999999999,-19483.065,5593.724999999999,-64204.155,-0.5500303635809497,0.9091748748087471,0.3250735164258607,2.642868118733998,2.837932466258494,2.165709833384035,1.7354072333818116,-1.4366388803963852,0.205016565,-0.99877674,0.06481917,0.41202,-2.6857599999999997,7.2485,71.0
1774822291.9339132,1.5735626220703125e-05,2026-03-29T22:11:31.933,2026-03-29T18:11:31.933,-33230.7,-47871.63,-85424.67,-50279.49,-14602.005,-19480.23,5595.21,-64197.27,1.8136793485688025,1.723438197940896,1.1678927273219697,1.8452227835960278,1.6718652186045786,1.3386831961194503,1.9928907727450462,1.140622598997985,0.205016565,-0.99877674,0.06481917,0.41202,-2.6857599999999997,7.2485,71.0
1774822291.9357889,0.0018756389617919922,2026-03-29T22:11:31.935,2026-03-29T18:11:31.935,-33228.18,-47873.34,-85430.87999999999,-50285.52,-14607.045,-19484.235,5591.7,-64194.255,3.310929656223891,1.7463841898784458,1.5055408089577693,0.1864837280234462,-0.2626459566684578,-0.08999497173008783,1.4053716110078474,3.1698207806314076,0.205016565,-0.99877674,0.06481917,0.41202,-2.6857599999999997,7.2485,71.0
1774822291.935804,1.5020370483398438e-05,2026-03-29T22:11:31.935,2026-03-29T18:11:31.935,-33224.085,-47873.52,-85431.105,-50285.52,-14606.55,-19483.829999999998,5591.745,-64189.845,3.308253937250958,0.9934526476573017,1.1606920895141968,-1.702901851810743,-2.2064661582193716,-1.5627862537324841,0.14741250192459138,3.7762346665417854,0.205016565,-0.99877674,0.06481917,0.41202,-2.6857599999999997,7.2485,71.0
1774822291.9383163,0.0025124549865722656,2026-03-29T22:11:31.938,2026-03-29T18:11:31.938,-33228.36,-47880.36,-85436.45999999999,-50290.515,-14610.285,-19487.34,5589.945,-64190.159999999996,1.860204898749471,-0.16966440533002675,0.27071261238640487,-3.0142030923139047,-3.3328771522698903,-2.4604362106530835,-1.2901936362623385,2.728588531606633,0.201354465,-0.99596913,0.065734695,1.23606,-3.03674,8.20988,71.0
1774822291.9383311,1.4781951904296875e-05,2026-03-29T22:11:31.938,2026-03-29T18:11:31.938,-33242.76,-47882.384999999995,-85428.72,-50278.409999999996,-14598.045,-19474.92,5592.15,-64203.704999999994,-0.34300137892686744,-1.2053995887292401,-0.7645279686310741,-3.105322449876181,-3.0963193842350574,-2.358359786852602,-2.284521544348793,0.5229366963301648,0.201354465,-0.99596913,0.065734695,1.23606,-3.03674,8.20988,71.0
1774822291.944662,0.006330966949462891,2026-03-29T22:11:31.944,2026-03-29T18:11:31.944,-33244.604999999996,-47881.125,-85431.33,-50276.34,-14593.05,-19471.005,5595.974999999999,-64209.735,-2.309403648209486,-1.6560862781509085,-1.4640878285753227,-1.8180830496959397,-1.4982425479176755,-1.2280629727054906,-2.34772045533744,-1.854534180213854,0.201354465,-0.99596913,0.065734695,1.23606,-3.03674,8.20988,71.0
1774822291.944678,1.5974044799804688e-05,2026-03-29T22:11:31.944,2026-03-29T18:11:31.944,-33244.515,-47887.83,-85445.595,-50286.78,-14600.609999999999,-19479.69,5592.24,-64206.72,-3.196992694621728,-1.3495087869994262,-1.49330705480169,0.3902797840934236,0.8603025891689472,0.5123341699017634,-1.3640980331924497,-3.3713335034931213,0.201354465,-0.99596913,0.065734695,1.23606,-3.03674,8.20988,71.0
1774822291.9465303,0.001852273941040039,2026-03-29T22:11:31.946,2026-03-29T18:11:31.946,-33241.005,-47884.229999999996,-85440.465,-50282.955,-14596.515,-19477.215,5593.139999999999,-64204.784999999996,-2.675060976534552,-0.4641980404166139,-0.8277254952115984,2.592025005100421,2.9903810918532128,2.140594097765256,0.3174046828184524,-3.39804770625001,0.201354465,-0.99596913,0.065734695,1.23606,-3.03674,8.20988,71.0
1774822291.9465485,1.811981201171875e-05,2026-03-29T22:11:31.946,2026-03-29T18:11:31.946,-33236.505,-47877.795,-85427.86499999999,-50270.04,-14585.58,-19470.329999999998,5594.985,-64204.56,-1.0398162664400135,0.5700735143109238,0.22834382917395535,3.775948619097464,3.925723314063866,2.92515094166355,1.9960289078791364,-1.9673007901480648,0.201354465,-0.99596913,0.065734695,1.23606,-3.03674,8.20988,71.0
1774822291.9519475,0.005398988723754883,2026-03-29T22:11:31.951,2026-03-29T18:11:31.951,-33236.82,-47876.58,-85425.165,-50270.354999999996,-14589.404999999999,-19474.92,5592.105,-64206.27,0.9514423797739961,1.2825068117242666,1.181443176496489,3.3168645711704325,3.1642213505645094,2.454802809537366,2.907721709593882,0.2629588053266069,0.201354465,-0.99596913,0.065734695,1.23606,-3.03674,8.20988,71.0
1774822291.9519727,2.5272369384765625e-05,2026-03-29T22:11:31.951,2026-03-29T18:11:31.951,-33236.19,-47875.77,-85422.87,-50278.275,-14593.455,-19472.895,5596.785,-64203.75,2.4356862809156326,1.3784490956018287,1.5822972748460993,1.307167297385674,0.9371705762996878,0.8542403965740505,2.5725298238468404,2.3143457339626656,0.201354465,-0.99596913,0.065734695,1.23606,-3.03674,8.20988,71.0
1774822291.9577,0.005727291107177734,2026-03-29T22:11:31.957,2026-03-29T18:11:31.957,-33234.75,-47871.585,-85415.08499999999,-50287.049999999996,-14599.89,-19474.11,5597.415,-64201.454999999994,2.8201094659122714,0.861828396518614,1.241066465211583,-1.4259958040604126,-1.8380524960475708,-1.227707959806147,1.0429756543920399,3.3187490959496047,0.201354465,-0.99596913,0.065734695,1.23606,-3.03674,8.20988,71.0
1774822291.9577272,2.7179718017578125e-05,2026-03-29T22:11:31.957,2026-03-29T18:11:31.957,-33233.354999999996,-47872.305,-85417.56,-50285.34,-14600.97,-19478.34,5593.905,-64200.149999999994,2.014040662319791,0.011618710435180925,0.31976277033659156,-3.6563377768910508,-3.9299580980555175,-2.8748025012899405,-1.0737531015654735,2.884633897371351,0.201354465,-0.99596913,0.065734695,1.23606,-3.03674,8.20988,71.0
1774822291.9577487,2.1457672119140625e-05,2026-03-29T22:11:31.957,2026-03-29T18:11:31.957,-33235.83,-47881.395,-85433.715,-50292.63,-14606.055,-19484.37,5589.719999999999,-64200.465,0.428990019215429,-0.7667715875296083,-0.7441812275587172,-4.3136937778358355,-4.342392954862901,-3.307344996717122,-2.8515569552427764,1.2451004121860565,0.19702098,-0.989072175,0.0659178,0.28994,-4.440659999999999,8.530339999999999,71.0
1774822291.957755,6.4373016357421875e-06,2026-03-29T22:11:31.957,2026-03-29T18:11:31.957,-33225.93,-47872.619999999995,-85425.075,-50286.78,-14601.824999999999,-19481.67,5585.355,-64191.015,-1.2326794047733494,-1.136557326861263,-1.4471421158330413,-3.00519208873279,-2.795039171136677,-2.2550287433803695,-3.4506457260787147,-0.8655863485616947,0.19702098,-0.989072175,0.0659178,0.28994,-4.440659999999999,8.530339999999999,71.0
1774822291.9641235,0.006368398666381836,2026-03-29T22:11:31.964,2026-03-29T18:11:31.964,-33227.729999999996,-47870.1,-85417.875,-50280.705,-14595.48,-19474.829999999998,5586.885,-64195.155,-2.291344011431099,-0.9762077404387735,-1.4603141779991204,-0.24500483566209333,0.09966363354498566,-0.11854918049971706,-2.5149165449432895,-2.542205437586492,0.19702098,-0.989072175,0.0659178,0.28994,-4.440659999999999,8.530339999999999,71.0
1774822291.964154,3.0517578125e-05,2026-03-29T22:11:31.964,2026-03-29T18:11:31.964,-33239.205,-47874.465,-85421.295,-50277.555,-14590.125,-19468.844999999998,5598.764999999999,-64213.965,-2.3648621085671477,-0.4132442812149562,-0.7858085577611547,2.7395964206033487,3.070114610562501,2.174053878206639,-0.3729167562309702,-3.096448859267461,0.19702098,-0.989072175,0.0659178,0.28994,-4.440659999999999,8.530339999999999,71.0
1774822291.9748192,0.010665178298950195,2026-03-29T22:11:31.974,2026-03-29T18:11:31.974,-33228.18,-47865.33,-85406.67,-50268.869999999995,-14587.289999999999,-19463.76,5601.87,-64197.99,-1.4953737399925795,0.26011087442830144,0.24733940358363674,4.55784130768056,4.746069132870615,3.5705183099760673,2.0676162344749813,-2.33664344801319,0.19702098,-0.989072175,0.0659178,0.28994,-4.440659999999999,8.530339999999999,71.0
1774822291.9748385,1.9311904907226562e-05,2026-03-29T22:11:31.974,2026-03-29T18:11:31.974,-33227.775,-47874.78,-85415.355,-50268.645,-14588.414999999999,-19467.989999999998,5595.66,-64190.79,-0.09321273493404823,0.7380310709408778,1.1442306189169662,4.312914614791596,4.298338208444504,3.3820788050830237,3.703989459318469,-0.6273808287085754,0.19702098,-0.989072175,0.0659178,0.28994,-4.440659999999999,8.530339999999999,71.0
1774822291.974857,1.8596649169921875e-05,2026-03-29T22:11:31.974,2026-03-29T18:11:31.974,-33228.135,-47879.369999999995,-85429.75499999999,-50275.08,-14588.955,-19471.995,5595.525,-64195.875,1.258184018656511,0.8407719338468139,1.4829063993702838,2.052145249147859,1.8554847824939253,1.6274718503187364,3.7392637295045486,1.2852673032868411,0.19702098,-0.989072175,0.0659178,0.28994,-4.440659999999999,8.530339999999999,71.0
1774822291.9748628,5.7220458984375e-06,2026-03-29T22:11:31.974,2026-03-29T18:11:31.974,-33232.905,-47876.58,-85423.77,-50279.895,-14591.115,-19472.895,5595.974999999999,-64202.174999999996,2.04291430472026,0.5785933321436482,1.114654753940065,-1.2194930142991471,-1.514731229087642,-0.9405880945904994,2.0708146552319073,2.5992001580955595,0.19702098,-0.989072175,0.0659178,0.28994,-4.440659999999999,8.530339999999999,71.0
1774822291.97487,7.152557373046875e-06,2026-03-29T22:11:31.974,2026-03-29T18:11:31.974,-33237.81,-47875.634999999995,-85422.87,-50289.165,-14597.865,-19475.28,5596.65,-64209.645,2.0008860757581735,0.11935032784467473,0.2297847495134454,-3.987915885234778,-4.272136716885321,-3.1570483967419087,-0.6231775134809917,2.790718164432601,0.19702098,-0.989072175,0.0659178,0.28994,-4.440659999999999,8.530339999999999,71.0
1774822291.9748757,5.7220458984375e-06,2026-03-29T22:11:31.974,2026-03-29T18:11:31.974,-33238.305,-47877.75,-85425.165,-50284.17,-14593.455,-19473.255,5597.054999999999,-64209.555,1.200385784578851,-0.31176335950770306,-0.7404400586003331,-4.939710058585553,-5.115414778977475,-3.9778113573460043,-3.157374273611634,1.8197718086957402,0.19702098,-0.989072175,0.0659178,0.28994,-4.440659999999999,8.530339999999999,71.0
1774822291.9801085,0.005232810974121094,2026-03-29T22:11:31.980,2026-03-29T18:11:31.980,-33236.955,-47875.32,-85420.08,-50279.445,-14592.105,-19473.21,5594.445,-64206.854999999996,-0.015977098278963427,-0.5426582317958698,-1.335142656104085,-3.596298550739607,-3.606006650860472,-2.978410293683473,-4.363865462503571,0.1276719472074339,0.19067334,-0.984677655,0.064391925,-1.69386,-6.53128,8.255659999999999,71.0
1774822291.9801264,1.7881393432617188e-05,2026-03-29T22:11:31.980,2026-03-29T18:11:31.980,-33235.74,-47875.77,-85423.14,-50282.189999999995,-14593.904999999999,-19474.155,5595.21,-64206.045,-1.176370589708997,-0.5205743837957738,-1.2841540233798132,-0.5612972893109253,-0.40105234570829645,-0.576699225320443,-3.6340917261031667,-1.5626352894530389,0.19067334,-0.984677655,0.064391925,-1.69386,-6.53128,8.255659999999999,71.0
1774822291.9827373,0.002610921859741211,2026-03-29T22:11:31.982,2026-03-29T18:11:31.982,-33233.895,-47874.42,-85425.61499999999,-50283.09,-14590.935,-19471.454999999998,5595.525,-64207.619999999995,-1.8553624421611805,-0.3099408063960198,-0.6311618267557726,2.7495350900479503,3.0302176345961236,2.138614470051644,-1.224803897050354,-2.5538352284923356,0.19067334,-0.984677655,0.064391925,-1.69386,-6.53128,8.255659999999999,71.0
1774822291.9827523,1.5020370483398438e-05,2026-03-29T22:11:31.982,2026-03-29T18:11:31.982,-33230.88,-47871.854999999996,-85420.08,-50273.415,-14583.015,-19465.38,5592.51,-64206.72,-1.819287449526257,-0.0360129890975024,0.2967377167993672,4.775752731882214,5.085855954996012,3.905325713132388,1.8256271699451847,-2.459550750703494,0.19067334,-0.984677655,0.064391925,-1.69386,-6.53128,8.255659999999999,71.0
1774822291.988547,0.0057947635650634766,2026-03-29T22:11:31.988,2026-03-29T18:11:31.988,-33226.47,-47872.979999999996,-85430.06999999999,-50271.21,-14578.56,-19462.635,5598.495,-64202.939999999995,-1.0984181985034107,0.18639939241433676,1.053762228981851,4.559294190418586,4.789620628644231,3.8821263998312685,4.1473685924140336,-1.3524638733244803,0.19067334,-0.984677655,0.064391925,-1.69386,-6.53128,8.255659999999999,71.0
1774822291.9885652,1.811981201171875e-05,2026-03-29T22:11:31.988,2026-03-29T18:11:31.988,-33223.59,-47872.034999999996,-85432.455,-50272.155,-14578.47,-19464.03,5597.325,-64202.895,0.031044018982824863,0.2995239790832103,1.2910033718950362,2.2082867438903473,2.2645839946336284,2.0566136106643684,4.659405493584019,0.28009582540539824,0.19067334,-0.984677655,0.064391925,-1.69386,-6.53128,8.255659999999999,71.0
1774822292.000237,0.011671781539916992,2026-03-29T22:11:32.000,2026-03-29T18:11:32.000,-33220.619999999995,-47867.22,-85417.245,-50272.244999999995,-14581.08,-19462.815,5598.2699999999995,-64199.34,1.1459919603503739,0.3063643274323503,0.9177809906303404,-1.1518073441830388,-1.3123439265121726,-0.7343452021384625,3.076620900896327,1.7487286779458835,0.19067334,-0.984677655,0.064391925,-1.69386,-6.53128,8.255659999999999,71.0
1774822292.0002728,3.5762786865234375e-05,2026-03-29T22:11:32.000,2026-03-29T18:11:32.000,-33220.44,-47869.875,-85415.805,-50277.915,-14589.045,-19469.34,5595.84,-64197.99,1.8252961639505974,0.2415357380514647,0.13375020607499358,-3.920029384954946,-4.261796470708788,-3.1901904514665476,0.06396004700239222,2.451146210886743,0.19067334,-0.984677655,0.064391925,-1.69386,-6.53128,8.255659999999999,71.0
1774822292.0003066,3.3855438232421875e-05,2026-03-29T22:11:32.000,2026-03-29T18:11:32.000,-33222.33,-47873.52,-85423.14,-50275.665,-14586.3,-19468.98,5588.37,-64198.89,1.8022532197794203,0.1367238171703976,-0.6781244611602337,-4.792577181862295,-5.199753223604106,-4.15984164955131,-3.0441986889316484,2.1179462773638438,0.19067334,-0.984677655,0.064391925,-1.69386,-6.53128,8.255659999999999,71.0
1774822292.0003252,1.8596649169921875e-05,2026-03-29T22:11:32.000,2026-03-29T18:11:32.000,-33226.11,-47875.32,-85427.91,-50280.75,-14588.505,-19469.79,5575.139999999999,-64204.244999999995,1.0694661920554733,0.005986828888126296,-1.1403649747041171,-3.389031754185273,-3.6985793395284983,-3.190202722367212,-4.840504097695563,0.9155098216524107,0.19067334,-0.984677655,0.064391925,-1.69386,-6.53128,8.255659999999999,71.0
1774822292.0003464,2.1219253540039062e-05,2026-03-29T22:11:32.000,2026-03-29T18:11:32.000,-33221.97,-47873.34,-85428.45,-50285.97,-14592.914999999999,-19474.469999999998,5572.035,-64201.005,-0.1052372691512291,-0.14252849751706248,-1.0576333267792788,-0.42593908497871186,-0.4903260763234643,-0.7445430327218958,-4.487776312881866,-0.6331786710365996,0.184264665,-0.983701095,0.06408675,-5.35626,-8.49982,7.73682,71.0
1774822292.0003645,1.811981201171875e-05,2026-03-29T22:11:32.000,2026-03-29T18:11:32.000,-33240.555,-47882.384999999995,-85431.78,-50274.854999999996,-14580.494999999999,-19465.605,5581.3949999999995,-64220.85,-1.267057872618237,-0.28339079124033045,-0.49788099993548185,2.6453291720964307,2.888282338724184,2.0175994538177595,-2.1121436953515507,-1.8737724383163497,0.184264665,-0.983701095,0.06408675,-5.35626,-8.49982,7.73682,71.0
1774822292.0025926,0.0022280216217041016,2026-03-29T22:11:32.002,2026-03-29T18:11:32.002,-33245.775,-47885.265,-85438.89,-50269.5,-14571.359999999999,-19456.469999999998,5607.045,-64229.174999999996,-1.9439582857244027,-0.36379348084043545,0.2551074291622144,4.3548136868196,4.837871626062209,3.795112684890782,1.2398835891072817,-2.2962241508546613,0.184264665,-0.983701095,0.06408675,-5.35626,-8.49982,7.73682,71.0
1774822292.002632,3.933906555175781e-05,2026-03-29T22:11:32.002,2026-03-29T18:11:32.002,-33236.505,-47881.935,-85431.95999999999,-50270.22,-14572.529999999999,-19457.73,5612.715,-64212.075,-1.8384330704791072,-0.32230588308753116,0.8474013787299971,3.9285464430024755,4.464553763301802,3.7671561624412835,4.067083069502366,-1.745386005774261,0.184264665,-0.983701095,0.06408675,-5.35626,-8.49982,7.73682,71.0
1774822292.0068336,0.004201650619506836,2026-03-29T22:11:32.006,2026-03-29T18:11:32.006,-33235.47,-47877.615,-85418.50499999999,-50279.85,-14589.72,-19473.39,5599.8,-64210.545,-0.9634673507952165,-0.13043869499367441,1.023400293847775,1.6492923241224382,2.0003716920236583,1.980993823141792,5.09258430239448,-0.479157871164653,0.184264665,-0.983701095,0.06408675,-5.35626,-8.49982,7.73682,71.0
1774822292.0068483,1.4781951904296875e-05,2026-03-29T22:11:32.006,2026-03-29T18:11:32.006,-33237.854999999996,-47879.145,-85422.19499999999,-50284.034999999996,-14593.5,-19477.079999999998,5595.57,-64215.27,0.3420192991143181,0.16923006324328274,0.7358757327903446,-1.3095052123582278,-1.3266003359444818,-0.6814727646618809,3.8460636555411325,0.9486441685455387,0.184264665,-0.983701095,0.06408675,-5.35626,-8.49982,7.73682,71.0
1774822292.01063,0.003781557083129883,2026-03-29T22:11:32.010,2026-03-29T18:11:32.010,-33239.43,-47881.53,-85424.48999999999,-50277.465,-14585.13,-19469.745,5596.605,-64218.24,1.5378053207128117,0.4589734786549409,0.15021096218549831,-3.4852279046061923,-3.9041381121076726,-2.939632951316362,0.881078546569392,1.9292748047363126,0.184264665,-0.983701095,0.06408675,-5.35626,-8.49982,7.73682,71.0
1774822292.0107307,0.00010085105895996094,2026-03-29T22:11:32.010,2026-03-29T18:11:32.010,-33228.854999999996,-47873.52,-85419.135,-50271.299999999996,-14581.574999999999,-19466.505,5601.735,-64208.52,2.105405393218023,0.5899414132082155,-0.45024756209209915,-3.855641432024807,-4.5248415590700946,-3.736912665450862,-2.4736582824340365,2.059867412275141,0.184264665,-0.983701095,0.06408675,-5.35626,-8.49982,7.73682,71.0
1774822292.018386,0.007655143737792969,2026-03-29T22:11:32.018,2026-03-29T18:11:32.018,-33217.47,-47864.924999999996,-85418.50499999999,-50272.604999999996,-14584.23,-19470.645,5597.235,-64201.365,1.7778122773977458,0.459075976064745,-0.8041521351186239,-2.329855873725735,-2.9627772588878685,-2.744629380638138,-4.716007277211547,1.3118087579474496,0.184264665,-0.983701095,0.06408675,-5.35626,-8.49982,7.73682,71.0
1774822292.018408,2.2172927856445312e-05,2026-03-29T22:11:32.018,2026-03-29T18:11:32.018,-33223.185,-47866.545,-85416.66,-50266.665,-14576.039999999999,-19464.344999999998,5595.57,-64208.97,0.6716575939660744,0.07892974405074449,-0.7871474402159959,0.23979556508881097,-0.057484544206436686,-0.5024771683207065,-4.849811354451256,0.03472444659528692,0.184264665,-0.983701095,0.06408675,-5.35626,-8.49982,7.73682,71.0
1774822292.018428,2.002716064453125e-05,2026-03-29T22:11:32.018,2026-03-29T18:11:32.018,-33229.26,-47876.13,-85426.605,-50270.49,-14575.005,-19463.895,5597.46,-64210.095,-0.7465114338946129,-0.40345353667475076,-0.4506387878906783,2.5194779436789885,2.7274539597549228,1.8671618875241838,-2.831646951047392,-1.2039841393351256,0.179503935,-0.98547111,0.06384261,-9.354379999999999,-10.78882,8.20988,71.0
1774822292.0184362,8.106231689453125e-06,2026-03-29T22:11:32.018,2026-03-29T18:11:32.018,-33233.49,-47880.18,-85422.69,-50272.2,-14578.425,-19465.92,5599.98,-64206.99,-1.855688013257422,-0.7599729335155461,0.024717994029744755,3.384076607267458,4.042680891744579,3.22271966583574,0.41732788165695595,-1.871847021040234,0.179503935,-0.98547111,0.06384261,-9.354379999999999,-10.78882,8.20988,71.0
1774822292.022742,0.004305839538574219,2026-03-29T22:11:32.022,2026-03-29T18:11:32.022,-33243.345,-47876.895,-85409.145,-50264.909999999996,-14574.33,-19460.88,5603.13,-64220.13,-2.1565226077407416,-0.7897626840980498,0.427670539748177,2.479534672165049,3.3153004903148138,2.961213435868503,3.436198250402328,-1.7035560733208754,0.179503935,-0.98547111,0.06384261,-9.354379999999999,-10.78882,8.20988,71.0
1774822292.0227718,2.9802322387695312e-05,2026-03-29T22:11:32.022,2026-03-29T18:11:32.022,-33237.315,-47878.244999999995,-85424.895,-50283.9,-14589.18,-19471.005,5601.599999999999,-64215.494999999995,-1.5032450226986498,-0.43053925125928033,0.6130512811823013,0.37338374638218236,1.0065051979548023,1.294490290759459,4.887979865714762,-0.8097857283622075,0.179503935,-0.98547111,0.06384261,-9.354379999999999,-10.78882,8.20988,71.0
1774822292.0268493,0.004077434539794922,2026-03-29T22:11:32.026,2026-03-29T18:11:32.026,-33233.805,-47880.045,-85429.34999999999,-50285.115,-14590.305,-19472.175,5598.2699999999995,-64213.784999999996,-0.18024265291144012,0.1881075150330775,0.551009698433174,-1.7734897543110788,-1.6551716495835207,-0.8863850839354698,4.157711082334469,0.38411398038575534,0.179503935,-0.98547111,0.06384261,-9.354379999999999,-10.78882,8.20988,71.0
1774822292.0268776,2.8371810913085938e-05,2026-03-29T22:11:32.026,2026-03-29T18:11:32.026,-33239.52,-47886.255,-85438.26,-50291.145,-14596.154999999999,-19478.07,5593.1849999999995,-64218.78,1.2192819277912152,0.7865567358183078,0.31386426218998537,-2.8325832284889145,-3.3184518966948904,-2.480275593008094,1.6147833843247876,1.338831772664482,0.179503935,-0.98547111,0.06384261,-9.354379999999999,-10.78882,8.20988,71.0
1774822292.0306234,0.0037457942962646484,2026-03-29T22:11:32.030,2026-03-29T18:11:32.030,-33241.59,-47887.604999999996,-85440.23999999999,-50285.61,-14587.425,-19471.59,5591.835,-64223.64,2.062136212285159,1.0616658861508133,0.019618172320247734,-2.298802853897372,-3.1968787477867675,-2.734382390619196,-1.5732076867612041,1.647279625756127,0.179503935,-0.98547111,0.06384261,-9.354379999999999,-10.78882,8.20988,71.0
1774822292.030644,2.0503997802734375e-05,2026-03-29T22:11:32.030,2026-03-29T18:11:32.030,-33235.244999999995,-47878.515,-85425.84,-50270.04,-14570.91,-19457.64,5601.6449999999995,-64219.185,1.9682007755338795,0.8404151720026689,-0.22990388318364532,-0.5381495073367404,-1.448886216628047,-1.6078559640946053,-3.9815951328272483,1.2126915102819489,0.179503935,-0.98547111,0.06384261,-9.354379999999999,-10.78882,8.20988,71.0
1774822292.0365367,0.005892753601074219,2026-03-29T22:11:32.036,2026-03-29T18:11:32.036,-33228.81,-47868.93,-85411.665,-50266.215,-14568.255,-19453.995,5611.005,-64212.165,0.9888859116480835,0.18248851235764002,-0.38297432660690783,1.4321756617201165,0.9367894086435398,0.23842999480858162,-4.571888548033056,0.2783812975792527,0.179503935,-0.98547111,0.06384261,-9.354379999999999,-10.78882,8.20988,71.0
1774822292.0365543,1.7642974853515625e-05,2026-03-29T22:11:32.036,2026-03-29T18:11:32.036,-33231.915,-47873.205,-85420.215,-50275.395,-14578.019999999999,-19462.77,5602.32,-64214.954999999994,-0.4161564393339636,-0.6270170958889643,-0.43336999461030806,2.5076994623139512,2.6806134752706567,1.81040184566188,-3.143913166031341,-0.7004629600463501,0.179503935,-0.98547111,0.06384261,-9.354379999999999,-10.78882,8.20988,71.0
1774822292.0390491,0.00249481201171875,2026-03-29T22:11:32.039,2026-03-29T18:11:32.039,-33235.335,-47877.705,-85423.545,-50272.064999999995,-14575.635,-19462.725,5599.125,-64217.159999999996,-1.595430942500193,-1.201133641773972,-0.39230525449816445,2.100044405749573,2.8890990056470605,2.308554619631843,-0.3980842509101523,-1.278120005307632,0.18127395,-0.989072175,0.063415365,-11.18558,-11.155059999999999,8.28618,71.0
1774822292.0390625,1.33514404296875e-05,2026-03-29T22:11:32.039,2026-03-29T18:11:32.039,-33232.365,-47875.68,-85419.0,-50270.13,-14576.22,-19464.165,5598.855,-64213.11,-2.0128048816964537,-1.2370782415591077,-0.2646345265889236,0.45580368334916593,1.514467903473569,1.5376479277627542,2.4082947638834566,-1.2253021721738804,0.18127395,-0.989072175,0.063415365,-11.18558,-11.155059999999999,8.28618,71.0
1774822292.0438197,0.0047571659088134766,2026-03-29T22:11:32.043,2026-03-29T18:11:32.043,-33227.415,-47871.045,-85416.48,-50273.415,-14578.695,-19464.93,5603.4,-64209.689999999995,-1.4981647677732088,-0.6745227347649737,-0.049891116785749,-1.4805266690202792,-0.6399704335688147,-0.012659788655746587,4.042092658933563,-0.6237525567591735,0.18127395,-0.989072175,0.063415365,-11.18558,-11.155059999999999,8.28618,71.0
1774822292.0438323,1.2636184692382812e-05,2026-03-29T22:11:32.043,2026-03-29T18:11:32.043,-33230.295,-47876.67,-85428.09,-50280.57,-14581.26,-19466.954999999998,5601.285,-64211.31,-0.3209933158094146,0.25643386696092735,0.23273030920092747,-2.5869569128872816,-2.3659027702716724,-1.4519066852957987,3.8420888667947866,0.1927311086052371,0.18127395,-0.989072175,0.063415365,-11.18558,-11.155059999999999,8.28618,71.0
1774822292.0467107,0.002878427505493164,2026-03-29T22:11:32.046,2026-03-29T18:11:32.046,-33229.619999999995,-47880.045,-85434.84,-50273.055,-14574.42,-19464.75,5597.46,-64211.13,0.9473168989344916,1.1292380156953319,0.5175376467939958,-2.188412550557844,-2.7075525096469866,-1.981008714004771,1.9875764563635399,0.8161070862461784,0.18127395,-0.989072175,0.063415365,-11.18558,-11.155059999999999,8.28618,71.0
1774822292.0467277,1.6927719116210938e-05,2026-03-29T22:11:32.046,2026-03-29T18:11:32.046,-33229.665,-47882.79,-85436.595,-50274.18,-14577.795,-19469.07,5596.0199999999995,-64209.78,1.7131896186492461,1.5183633871450612,0.6921007832512264,-0.44645171304630815,-1.4799525888089233,-1.327220530147713,-0.6217567812812135,0.9685333783276289,0.18127395,-0.989072175,0.063415365,-11.18558,-11.155059999999999,8.28618,71.0
1774822292.050978,0.004250288009643555,2026-03-29T22:11:32.050,2026-03-29T18:11:32.050,-33225.03,-47875.994999999995,-85423.275,-50278.994999999995,-14586.615,-19473.704999999998,5595.57,-64206.899999999994,1.6444348038205527,1.2075843889284377,0.6379715083335352,1.7031596980228472,0.6289899694817638,0.11152330659169699,-2.803103596665937,0.6307017688169101,0.18127395,-0.989072175,0.063415365,-11.18558,-11.155059999999999,8.28618,71.0
1774822292.0509913,1.33514404296875e-05,2026-03-29T22:11:32.050,2026-03-29T18:11:32.050,-33232.635,-47879.009999999995,-85424.4,-50279.67,-14589.225,-19474.92,5592.195,-64213.335,0.819410909263689,0.3063100264663209,0.29941439347306475,3.0425968263390226,2.4293685163760794,1.4904624192708207,-3.6322702284821506,0.032584013992115954,0.18127395,-0.989072175,0.063415365,-11.18558,-11.155059999999999,8.28618,71.0
1774822292.0545785,0.0035872459411621094,2026-03-29T22:11:32.054,2026-03-29T18:11:32.054,-33238.619999999995,-47881.575,-85428.81,-50268.689999999995,-14577.21,-19466.415,5593.005,-64225.079999999994,-0.32781658198308294,-0.7875640845768499,-0.2569803888307059,2.738607481993876,2.8780748184273643,1.989804536438359,-2.8394888898212285,-0.48314783041582887,0.18127395,-0.989072175,0.063415365,-11.18558,-11.155059999999999,8.28618,71.0
1774822292.0545952,1.6689300537109375e-05,2026-03-29T22:11:32.054,2026-03-29T18:11:32.054,-33232.14,-47881.619999999995,-85431.23999999999,-50271.435,-14578.289999999999,-19465.649999999998,5598.045,-64217.34,-1.233506374702446,-1.566328792744941,-0.8337543063583547,0.8267097713396364,1.6595749301941385,1.2790732440569672,-0.8878644387384959,-0.6494396604420792,0.18127395,-0.989072175,0.063415365,-11.18558,-11.155059999999999,8.28618,71.0
1774822292.0614932,0.006897926330566406,2026-03-29T22:11:32.061,2026-03-29T18:11:32.061,-33228.72,-47880.494999999995,-85436.415,-50281.155,-14581.98,-19464.84,5600.5199999999995,-64211.399999999994,-1.4844046981181311,-1.6507218893209585,-1.1662422213934245,-1.7573635864876629,-0.616546262823786,-0.2811206248579902,1.2829357435977793,-0.41407446915791074,0.18566847,-0.99426015,0.06249984,-11.73494,-11.567079999999999,9.72062,71.0
1774822292.0615098,1.6689300537109375e-05,2026-03-29T22:11:32.061,2026-03-29T18:11:32.061,-33226.02,-47874.42,-85424.44499999999,-50276.52,-14580.539999999999,-19464.39,5598.9,-64208.115,-1.011223216913231,-0.9743476379533044,-1.0414695052511138,-3.635601085855203,-2.717603018283104,-1.8174179817052853,2.710746772608879,0.0432061779204106,0.18566847,-0.99426015,0.06249984,-11.73494,-11.567079999999999,9.72062,71.0
1774822292.0640595,0.0025496482849121094,2026-03-29T22:11:32.064,2026-03-29T18:11:32.064,-33222.33,-47869.604999999996,-85417.965,-50282.369999999995,-14589.404999999999,-19471.725,5595.48,-64204.92,-0.10240702950221951,0.17574866748960455,-0.4195673967156504,-3.710713692610782,-3.4408310257056773,-2.41568106215472,2.842796088846978,0.422374131360608,0.18566847,-0.99426015,0.06249984,-11.73494,-11.567079999999999,9.72062,71.0
1774822292.0640843,2.47955322265625e-05,2026-03-29T22:11:32.064,2026-03-29T18:11:32.064,-33227.055,-47878.74,-85429.215,-50291.685,-14599.935,-19480.094999999998,5590.844999999999,-64205.82,0.7611429072912829,1.2846657569695272,0.5074962654182804,-1.7790090912025178,-2.2766381505374818,-1.6373592453000498,1.7492233839489035,0.48048431044759615,0.18566847,-0.99426015,0.06249984,-11.73494,-11.567079999999999,9.72062,71.0
1774822292.0668092,0.002724885940551758,2026-03-29T22:11:32.066,2026-03-29T18:11:32.066,-33220.799999999996,-47876.354999999996,-85429.08,-50291.189999999995,-14602.185,-19482.344999999998,5588.73,-64197.945,1.1589837845650977,1.844406076603207,1.363708099056955,1.299683375850965,0.27495128180547107,0.20220314965279168,0.03588391606413454,0.17559678615346289,0.18566847,-0.99426015,0.06249984,-11.73494,-11.567079999999999,9.72062,71.0
1774822292.066825,1.5735626220703125e-05,2026-03-29T22:11:32.066,2026-03-29T18:11:32.066,-33227.595,-47876.085,-85422.105,-50278.095,-14590.574999999999,-19473.075,5591.16,-64208.43,0.9390017166663831,1.5884256592536234,1.738596113336593,3.9880872045125453,2.9188725200245114,2.1579415108800246,-1.480302287896929,-0.3043734426238333,0.18566847,-0.99426015,0.06249984,-11.73494,-11.567079999999999,9.72062,71.0
1774822292.0785172,0.011692285537719727,2026-03-29T22:11:32.078,2026-03-29T18:11:32.078,-33236.82,-47880.63,-85425.20999999999,-50279.58,-14591.654999999999,-19476.585,5577.12,-64219.365,0.27587691105094747,0.6164013846722224,1.380246600917768,4.838628731888276,4.218797631217648,3.1349617113021977,-2.1634665989745345,-0.6469015578179174,0.18566847,-0.99426015,0.06249984,-11.73494,-11.567079999999999,9.72062,71.0
1774822292.0785348,1.7642974853515625e-05,2026-03-29T22:11:32.078,2026-03-29T18:11:32.078,-33231.78,-47876.939999999995,-85426.515,-50283.045,-14592.96,-19477.125,5570.37,-64215.045,-0.44273864609410474,-0.648575358700541,0.3421123924830226,3.2587581186324974,3.361336653180248,2.4825032028988083,-1.8291673545610134,-0.5984996634268973,0.18566847,-0.99426015,0.06249984,-11.73494,-11.567079999999999,9.72062,71.0
1774822292.0785575,2.2649765014648438e-05,2026-03-29T22:11:32.078,2026-03-29T18:11:32.078,-33226.29,-47883.195,-85434.12,-50291.505,-14599.89,-19481.85,5572.304999999999,-64202.13,-0.8344330488518923,-1.649752009193147,-0.9959517953318322,-0.1251852531237487,0.6298101785145755,0.38637759306171454,-0.7762732046664004,-0.12470888867199374,0.18566847,-0.99426015,0.06249984,-11.73494,-11.567079999999999,9.72062,71.0
1774822292.0785627,5.245208740234375e-06,2026-03-29T22:11:32.078,2026-03-29T18:11:32.078,-33231.915,-47891.025,-85441.41,-50293.799999999996,-14601.33,-19484.055,5581.71,-64203.704999999994,-0.7245404344256793,-1.945349383070526,-2.0606346001743736,-3.7150280372384823,-2.677166633160869,-2.16436099206385,0.41266409929879366,0.54718084542558,0.18566847,-0.99426015,0.06249984,-11.73494,-11.567079999999999,9.72062,71.0
1774822292.078568,5.245208740234375e-06,2026-03-29T22:11:32.078,2026-03-29T18:11:32.078,-33248.205,-47883.78,-85426.245,-50272.92,-14579.055,-19462.454999999998,5612.76,-64233.134999999995,-0.22582848145885578,-1.4029385610046652,-2.328543750970277,-5.701991101578431,-4.866831061353231,-3.8454237246153498,1.1838874644298725,1.035380792632914,0.186461925,-1.001889525,0.060973965,-9.20178,-11.368699999999999,10.04108,71.0
1774822292.078572,4.0531158447265625e-06,2026-03-29T22:11:32.078,2026-03-29T18:11:32.078,-33237.405,-47875.32,-85421.655,-50265.99,-14577.119999999999,-19463.985,5613.4349999999995,-64222.515,0.3420505862071188,-0.2540060235424043,-1.577479868103748,-4.976636923149892,-4.714480032007662,-3.6779714691467045,1.2736739150271814,1.011088132232412,0.186461925,-1.001889525,0.060973965,-9.20178,-11.368699999999999,10.04108,71.0
1774822292.1176753,0.03910326957702637,2026-03-29T22:11:32.117,2026-03-29T18:11:32.117,-33240.33,-47876.174999999996,-85420.485,-50254.65,-14569.244999999999,-19461.149999999998,5602.23,-64224.54,0.642914544446812,1.011450137680136,-0.027063713583936243,-1.7301007726018913,-2.1291068097847408,-1.574582375899694,0.7936879291397968,0.39665613806234223,0.186461925,-1.001889525,0.060973965,-9.20178,-11.368699999999999,10.04108,71.0
1774822292.117699,2.3603439331054688e-05,2026-03-29T22:11:32.117,2026-03-29T18:11:32.117,-33248.924999999996,-47879.82,-85421.11499999999,-50258.07,-14571.225,-19461.239999999998,5601.599999999999,-64234.439999999995,0.5154425974327649,1.8589428695032755,1.7106558547044308,2.5728954643363933,1.732550610324994,1.545895339588755,0.11532177504440287,-0.5582162348715671,0.186461925,-1.001889525,0.060973965,-9.20178,-11.368699999999999,10.04108,71.0
1774822292.117731,3.218650817871094e-05,2026-03-29T22:11:32.117,2026-03-29T18:11:32.117,-33241.725,-47878.604999999996,-85421.06999999999,-50273.145,-14584.23,-19467.809999999998,5603.804999999999,-64223.28,0.0590891909374883,1.935827763964366,2.868838119894203,5.863288457342156,4.989039599412785,4.161975004331137,-0.36651994262249094,-1.3762031104441939,0.186461925,-1.001889525,0.060973965,-9.20178,-11.368699999999999,10.04108,71.0
1774822292.1177428,1.1682510375976562e-05,2026-03-29T22:11:32.117,2026-03-29T18:11:32.117,-33241.14,-47878.29,-85418.415,-50272.74,-14584.365,-19467.63,5602.05,-64223.235,-0.43126914252204634,1.2135324912864265,2.8612871721901287,6.46963540158996,5.955520564562475,4.893520452824155,-0.4528049934890445,-1.5893575797239592,0.186461925,-1.001889525,0.060973965,-9.20178,-11.368699999999999,10.04108,71.0
1774822292.1177568,1.4066696166992188e-05,2026-03-29T22:11:32.117,2026-03-29T18:11:32.117,-33233.49,-47872.125,-85414.68,-50279.67,-14592.689999999999,-19474.965,5596.875,-64216.845,-0.6424953000448611,-0.009331435523732882,1.5701842435524118,3.9645010532631435,4.010281325562124,3.2213434798726235,-0.22459427044207603,-0.9963984671053152,0.186461925,-1.001889525,0.060973965,-9.20178,-11.368699999999999,10.04108,71.0
1774822292.1177664,9.5367431640625e-06,2026-03-29T22:11:32.117,2026-03-29T18:11:32.117,-33235.11,-47874.42,-85419.495,-50280.119999999995,-14592.779999999999,-19477.665,5591.385,-64217.295,-0.4301007172764595,-1.236607744311679,-0.5518536786430579,-0.5724768545066425,-0.03736185738464809,-0.18973180383958044,0.044587662225088406,0.19764490042015614,0.186461925,-1.001889525,0.060973965,-9.20178,-11.368699999999999,10.04108,71.0
1774822292.1177776,1.1205673217773438e-05,2026-03-29T22:11:32.117,2026-03-29T18:11:32.117,-33241.229999999996,-47879.729999999996,-85425.39,-50278.455,-14592.06,-19479.78,5595.165,-64222.649999999994,0.09250877582944218,-1.977266530012019,-2.630941312079012,-5.026130229710658,-4.285628067183471,-3.7525257679905253,0.08674555654165947,1.4455864664381928,0.186461925,-1.001889525,0.060973965,-9.20178,-11.368699999999999,10.04108,71.0
1774822292.1177871,9.5367431640625e-06,2026-03-29T22:11:32.117,2026-03-29T18:11:32.117,-33254.369999999995,-47889.854999999996,-85437.855,-50290.604999999996,-14600.295,-19484.145,5594.13,-64233.09,0.6148985793912923,-1.9373029476174133,-3.7282615121719287,-7.243113160256555,-6.643067080150927,-5.702632283165379,-0.17462196901214053,2.110373817879794,0.186461925,-1.001889525,0.060973965,-9.20178,-11.368699999999999,10.04108,71.0
1774822292.117798,1.0967254638671875e-05,2026-03-29T22:11:32.117,2026-03-29T18:11:32.117,-33246.494999999995,-47886.39,-85439.79,-50291.685,-14600.475,-19482.795,5590.08,-64227.104999999996,0.8080605997355607,-1.1283163212359286,-3.2600424719640393,-6.079918745893346,-5.863158030597928,-4.974415544823928,-0.5638042699801293,1.7886804038009214,0.18456984,-1.0034154,0.055724955,-8.392999999999999,-12.84892,10.65148,71.0
1774822292.1178071,9.059906005859375e-06,2026-03-29T22:11:32.117,2026-03-29T18:11:32.117,-33234.299999999996,-47879.145,-85434.12,-50282.865,-14591.07,-19471.635,5580.495,-64217.79,0.5201749959390807,0.14244326541951352,-1.2950934236227638,-1.9885146742495392,-2.1968023469574507,-1.7719295523381515,-0.756948287067968,0.5420362230760131,0.18456984,-1.0034154,0.055724955,-8.392999999999999,-12.84892,10.65148,71.0
1774822292.1178184,1.1205673217773438e-05,2026-03-29T22:11:32.117,2026-03-29T18:11:32.117,-33229.53,-47876.085,-85431.19499999999,-50271.93,-14579.189999999999,-19461.015,5588.37,-64210.229999999996,-0.12293282084591596,1.3902334292335263,1.4171584453584931,3.1589073878297786,2.676515048232001,2.467105835110032,-0.49320318819941494,-1.0925513068915311,0.18456984,-1.0034154,0.055724955,-8.392999999999999,-12.84892,10.65148,71.0
1774822292.117828,9.5367431640625e-06,2026-03-29T22:11:32.117,2026-03-29T18:11:32.117,-33236.1,-47880.18,-85432.31999999999,-50265.36,-14572.484999999999,-19456.92,5603.67,-64212.299999999996,-0.7741846856571934,2.132466293261613,3.7252399704412396,6.938358196441965,6.427886945116118,5.723878085908016,0.2312759739795175,-2.3353880884971456,0.18456984,-1.0034154,0.055724955,-8.392999999999999,-12.84892,10.65148,71.0
1774822292.1178386,1.0728836059570312e-05,2026-03-29T22:11:32.117,2026-03-29T18:11:32.117,-33244.74,-47884.455,-85434.25499999999,-50258.25,-14563.484999999999,-19450.485,5606.01,-64224.09,-1.0527876407130012,2.0661368184353686,4.561178652089351,7.5277316968153585,7.202855932012451,6.368386567959961,1.108056720346566,-2.538946660831352,0.18456984,-1.0034154,0.055724955,-8.392999999999999,-12.84892,10.65148,71.0
1774822292.117848,9.298324584960938e-06,2026-03-29T22:11:32.117,2026-03-29T18:11:32.117,-33242.625,-47889.674999999996,-85443.885,-50260.185,-14565.689999999999,-19454.67,5599.889999999999,-64220.22,-0.7617596185787606,1.183328159780796,3.4301320795563743,4.59140395119035,4.543048734358412,3.9770848048250786,1.6485412867766787,-1.523375423584038,0.18456984,-1.0034154,0.055724955,-8.392999999999999,-12.84892,10.65148,71.0
1774822292.1178591,1.1205673217773438e-05,2026-03-29T22:11:32.117,2026-03-29T18:11:32.117,-33242.76,-47891.295,-85437.405,-50258.88,-14565.285,-19454.94,5599.26,-64217.159999999996,-0.013218086240818005,-0.21431612932122052,0.6816813347680072,-0.5364050027508729,-0.3546136052385785,-0.4128130123895484,1.4465306994747553,0.30053958768159394,0.18456984,-1.0034154,0.055724955,-8.392999999999999,-12.84892,10.65148,71.0
1774822292.1178684,9.298324584960938e-06,2026-03-29T22:11:32.117,2026-03-29T18:11:32.117,-33232.32,-47873.205,-85410.54,-50275.979999999996,-14585.939999999999,-19465.739999999998,5599.755,-64210.59,0.8140062628251118,-1.6106677066043797,-2.5791353646236144,-5.4671776836378285,-5.183829013233597,-4.757786871234774,0.4333960039863496,2.0967546715526795,0.18456984,-1.0034154,0.055724955,-8.392999999999999,-12.84892,10.65148,71.0
1774822292.1178799,1.1444091796875e-05,2026-03-29T22:11:32.117,2026-03-29T18:11:32.117,-33225.39,-47871.405,-85420.89,-50287.994999999995,-14598.09,-19477.665,5594.445,-64206.27,1.2690941513487954,-2.4543710624724935,-4.930610054398318,-7.884544293027502,-7.6279110479214065,-6.970234160907698,-1.0216551494210753,2.991806629898026,0.18456984,-1.0034154,0.055724955,-8.392999999999999,-12.84892,10.65148,71.0
1774822292.1178885,8.58306884765625e-06,2026-03-29T22:11:32.117,2026-03-29T18:11:32.117,-33228.09,-47878.83,-85429.89,-50282.955,-14593.769999999999,-19479.059999999998,5590.485,-64205.369999999995,1.0752074991925271,-2.3669531764513656,-5.251944947365479,-6.644406787824811,-6.482691416384029,-5.930677052617392,-2.2420060042318406,2.5032723643383608,0.18456984,-1.0034154,0.055724955,-8.392999999999999,-12.84892,10.65148,71.0
1774822292.117899,1.049041748046875e-05,2026-03-29T22:11:32.117,2026-03-29T18:11:32.117,-33231.825,-47875.905,-85418.37,-50272.92,-14585.894999999999,-19470.69,5591.745,-64213.02,0.29264156036958405,-1.3070792704041463,-3.2528011336588603,-2.321069987903512,-2.2541120518461235,-2.0551701415323262,-2.560919225262298,0.7970978006329805,0.18627882,-1.00903062,0.056579445,-7.66052,-14.207059999999998,11.18558,71.0
1774822292.1179075,8.58306884765625e-06,2026-03-29T22:11:32.117,2026-03-29T18:11:32.117,-33229.89,-47868.03,-85404.33,-50262.57,-14577.119999999999,-19459.8,5594.445,-64212.165,-0.6949573960752118,0.37746142270930494,0.3334336642849479,3.0634103666407198,3.0680126220767696,2.8702828207457425,-1.6756941085165422,-1.3625432396387074,0.18627882,-1.00903062,0.056579445,-7.66052,-14.207059999999998,11.18558,71.0
1774822292.1250114,0.007103919982910156,2026-03-29T22:11:32.125,2026-03-29T18:11:32.125,-33229.395,-47868.299999999996,-85406.94,-50258.97,-14570.595,-19456.469999999998,5594.445,-64214.774999999994,-1.371995407242142,2.047297259876125,4.006844494307481,6.9971747523665515,6.9578730986537085,6.523183235736194,0.1460091071135528,-2.9598530892996378,0.18627882,-1.00903062,0.056579445,-7.66052,-14.207059999999998,11.18558,71.0
1774822292.1250343,2.288818359375e-05,2026-03-29T22:11:32.125,2026-03-29T18:11:32.125,-33234.615,-47883.915,-85431.15,-50269.32,-14575.769999999999,-19464.66,5591.385,-64218.465,-1.363227122999785,3.0021253632890246,6.125454571533848,7.664765044252862,7.566787806602497,7.152469173301929,2.131931530506267,-3.211448127702821,0.18627882,-1.00903062,0.056579445,-7.66052,-14.207059999999998,11.18558,71.0
1774822292.1276588,0.00262451171875,2026-03-29T22:11:32.127,2026-03-29T18:11:32.127,-33237.945,-47891.52,-85441.77,-50274.314999999995,-14579.055,-19467.405,5592.014999999999,-64219.32,-0.6421222831675312,2.7687137682782317,5.638976898386584,4.795163798627741,4.612740230685938,4.4268202242776,3.3366339907231484,-1.9544941998536578,0.18627882,-1.00903062,0.056579445,-7.66052,-14.207059999999998,11.18558,71.0
1774822292.1276755,1.6689300537109375e-05,2026-03-29T22:11:32.127,2026-03-29T18:11:32.127,-33245.729999999996,-47890.034999999996,-85432.815,-50272.784999999996,-14578.154999999999,-19462.364999999998,5598.36,-64226.79,0.4402840234899206,1.331202282730212,2.6043550962812123,-0.2289853504112313,-0.48649654089670946,-0.3915953292216368,3.09439721135583,0.25506890436581453,0.18627882,-1.00903062,0.056579445,-7.66052,-14.207059999999998,11.18558,71.0
1774822292.1311083,0.003432750701904297,2026-03-29T22:11:32.131,2026-03-29T18:11:32.131,-33237.494999999995,-47883.915,-85429.665,-50275.08,-14581.845,-19463.399999999998,5599.8,-64219.049999999996,1.328438841418951,-0.8067470853947255,-1.768121289636144,-5.04458155540646,-5.300762258657479,-5.038971258512203,1.375329430349137,2.391174719644342,0.18627882,-1.00903062,0.056579445,-7.66052,-14.207059999999998,11.18558,71.0
1774822292.1311224,1.4066696166992188e-05,2026-03-29T22:11:32.131,2026-03-29T18:11:32.131,-33228.945,-47883.78,-85437.09,-50287.545,-14591.295,-19471.23,5595.57,-64208.744999999995,1.5510902571046536,-2.781501763485574,-5.591342981221537,-7.433047088090228,-7.559321694266209,-7.3266930934840575,-1.1418737772023249,3.4408097512611215,0.18627882,-1.00903062,0.056579445,-7.66052,-14.207059999999998,11.18558,71.0
1774822292.1358047,0.004682302474975586,2026-03-29T22:11:32.135,2026-03-29T18:11:32.135,-33224.58,-47885.58,-85439.83499999999,-50284.799999999996,-14589.72,-19475.28,5589.855,-64203.345,0.974408233874354,-3.7111282486383645,-7.1168214020193945,-6.355739007213899,-6.236219178010395,-6.185183237526317,-3.338954347249552,2.891291250750399,0.18627882,-1.00903062,0.056579445,-7.66052,-14.207059999999998,11.18558,71.0
1774822292.1358204,1.5735626220703125e-05,2026-03-29T22:11:32.135,2026-03-29T18:11:32.135,-33235.244999999995,-47886.255,-85430.34,-50278.14,-14586.164999999999,-19472.67,5588.37,-64216.485,-0.11750998410508982,-3.0884504818252925,-5.53678730323107,-2.410703251507137,-2.024126273697469,-2.1710622146936345,-4.161607430582898,0.9842651115546809,0.18627882,-1.00903062,0.056579445,-7.66052,-14.207059999999998,11.18558,71.0
1774822292.140694,0.004873514175415039,2026-03-29T22:11:32.140,2026-03-29T18:11:32.140,-33254.28,-47880.63,-85414.545,-50262.57,-14569.92,-19454.895,5598.0,-64247.354999999996,-1.1627860319758876,-1.050877220362148,-1.4039745426596242,2.4924709381976093,3.0258179989033307,2.806173263715734,-3.127638148217833,-1.390958012993125,0.190490235,-1.016293785,0.061584315,-1.2055399999999998,-10.819339999999999,13.39828,71.0
1774822292.140712,1.811981201171875e-05,2026-03-29T22:11:32.140,2026-03-29T18:11:32.140,-33242.445,-47880.18,-85423.905,-50274.854999999996,-14578.965,-19460.295,5599.3949999999995,-64230.479999999996,-1.613363708830495,1.6143072676457166,3.546480027452316,6.065540355133922,6.511950073819543,6.403110602508043,-0.5937272316958793,-3.117564083654676,0.190490235,-1.016293785,0.061584315,-1.2055399999999998,-10.819339999999999,13.39828,71.0
1774822292.144544,0.0038318634033203125,2026-03-29T22:11:32.144,2026-03-29T18:11:32.144,-33233.13,-47877.795,-85427.91,-50275.53,-14579.865,-19461.78,5599.53,-64220.13,-1.2258225446160786,3.763918364305632,7.125320687100421,6.722936643558381,6.838689311729027,6.960231325157764,2.361732380125298,-3.384025815182502,0.190490235,-1.016293785,0.061584315,-1.2055399999999998,-10.819339999999999,13.39828,71.0
1774822292.1445558,1.1920928955078125e-05,2026-03-29T22:11:32.144,2026-03-29T18:11:32.144,-33231.24,-47875.634999999995,-85420.395,-50270.85,-14577.48,-19459.17,5603.445,-64217.835,-0.19592527745747626,4.3886914718098105,7.662794858736821,4.294685335373933,3.958528882422209,4.278966264003783,4.404286771078004,-2.072003978572215,0.190490235,-1.016293785,0.061584315,-1.2055399999999998,-10.819339999999999,13.39828,71.0
1774822292.147339,0.0027832984924316406,2026-03-29T22:11:32.147,2026-03-29T18:11:32.147,-33229.89,-47871.81,-85416.56999999999,-50274.405,-14583.24,-19463.04,5605.83,-64218.195,0.9383156929539286,3.0897185251892827,4.792433551057292,0.046093445967252705,-0.6509998925558378,-0.3111279090156543,4.553206658444877,0.1888818211451054,0.190490235,-1.016293785,0.061584315,-1.2055399999999998,-10.819339999999999,13.39828,71.0
1774822292.1473656,2.6464462280273438e-05,2026-03-29T22:11:32.147,2026-03-29T18:11:32.147,-33230.07,-47876.31,-85421.87999999999,-50276.34,-14587.515,-19469.43,5597.01,-64215.54,1.5777928779646673,0.3153208780382952,-0.3251791438207878,-3.9786425171426583,-4.74500577309544,-4.615945340340874,2.653415919250958,2.3257997359481752,0.190490235,-1.016293785,0.061584315,-1.2055399999999998,-10.819339999999999,13.39828,71.0
1774822292.1509233,0.0035576820373535156,2026-03-29T22:11:32.150,2026-03-29T18:11:32.150,-33225.39,-47880.45,-85433.175,-50285.97,-14593.769999999999,-19474.875,5593.05,-64207.215,1.3806949619827713,-2.7767744754275068,-5.467908666842178,-5.949566909932863,-6.415141439368667,-6.63826446071826,-0.5181146635876375,3.338331853843146,0.190490235,-1.016293785,0.061584315,-1.2055399999999998,-10.819339999999999,13.39828,71.0
1774822292.1509564,3.314018249511719e-05,2026-03-29T22:11:32.150,2026-03-29T18:11:32.150,-33219.494999999995,-47883.284999999996,-85443.84,-50289.479999999996,-14594.355,-19476.719999999998,5591.115,-64198.935,0.4483085078484345,-4.800775013756272,-8.322832599455724,-5.094255307344203,-4.992340712878032,-5.5180336176142175,-3.574702604350541,2.774318571341164,0.190490235,-1.016293785,0.061584315,-1.2055399999999998,-10.819339999999999,13.39828,71.0
1774822292.1552591,0.0043027400970458984,2026-03-29T22:11:32.155,2026-03-29T18:11:32.155,-33233.265,-47891.744999999995,-85445.055,-50286.869999999995,-14589.99,-19473.03,5591.34,-64212.884999999995,-0.7236679831536484,-4.768953548692112,-7.535912443849223,-1.9975742696738592,-1.3153972484359622,-1.9025565199235333,-5.134833450065137,0.9363250288187698,0.190490235,-1.016293785,0.061584315,-1.2055399999999998,-10.819339999999999,13.39828,71.0
1774822292.1552875,2.8371810913085938e-05,2026-03-29T22:11:32.155,2026-03-29T18:11:32.155,-33244.65,-47883.689999999995,-85425.345,-50272.47,-14578.605,-19461.239999999998,5596.605,-64234.755,-1.506178907281746,-2.577381443984329,-3.359952497825616,1.756819592212724,2.7428611564185363,2.4151148182109745,-4.452852893721239,-1.2776087166535124,0.190490235,-1.016293785,0.061584315,-1.2055399999999998,-10.819339999999999,13.39828,71.0
1774822292.158805,0.0035173892974853516,2026-03-29T22:11:32.158,2026-03-29T18:11:32.158,-33236.685,-47876.13,-85421.97,-50269.77,-14577.119999999999,-19461.195,5594.849999999999,-64227.915,-1.4735828078486946,0.889446859979635,2.412066383183056,4.395948775429818,5.231353453832299,5.392128427612383,-1.7746710558770487,-2.8161497974256844,0.189025395,-1.011899265,0.06555159,0.9613799999999999,-9.44594,14.16128,71.0
1774822292.158823,1.811981201171875e-05,2026-03-29T22:11:32.158,2026-03-29T18:11:32.158,-33226.47,-47874.689999999995,-85422.59999999999,-50272.92,-14581.305,-19466.235,5595.3,-64211.579999999994,-0.6362273448480942,4.1111322576607465,7.2209741563516845,4.804300682205216,5.069855049511546,5.7155937196250814,1.75097849220194,-2.9805736000723044,0.189025395,-1.011899265,0.06555159,0.9613799999999999,-9.44594,14.16128,71.0
1774822292.1629252,0.004102230072021484,2026-03-29T22:11:32.162,2026-03-29T18:11:32.162,-33224.534999999996,-47872.439999999995,-85418.86499999999,-50272.875,-14581.08,-19464.21,5598.8099999999995,-64209.42,0.558387102260536,5.603404619670739,8.887181791426707,2.9992806951243076,2.5248104797980924,3.390287926265799,4.573170732307309,-1.748078121590672,0.189025395,-1.011899265,0.06555159,0.9613799999999999,-9.44594,14.16128,71.0
1774822292.1629498,2.4557113647460938e-05,2026-03-29T22:11:32.162,2026-03-29T18:11:32.162,-33244.47,-47880.72,-85418.45999999999,-50264.325,-14570.01,-19452.195,5605.2,-64232.055,1.4608520038731658,4.610310722548506,6.6103354289656,0.03075195288499786,-1.0011913520722076,-0.33310078528205855,5.42921644485358,0.23973918824360507,0.189025395,-1.011899265,0.06555159,0.9613799999999999,-9.44594,14.16128,71.0
1774822292.1677155,0.004765748977661133,2026-03-29T22:11:32.167,2026-03-29T18:11:32.167,-33244.784999999996,-47885.985,-85429.98,-50272.155,-14577.119999999999,-19459.215,5604.929999999999,-64231.38,1.5691178854522396,1.4898436360855356,1.358879946953864,-2.6068615687292938,-3.728625289952087,-3.6243343360788507,3.9136909003852494,2.008594820988073,0.189025395,-1.011899265,0.06555159,0.9613799999999999,-9.44594,14.16128,71.0
1774822292.1677396,2.4080276489257812e-05,2026-03-29T22:11:32.167,2026-03-29T18:11:32.167,-33240.015,-47889.494999999995,-85441.995,-50276.744999999995,-14583.24,-19468.305,5596.785,-64225.575,0.8052901321866072,-2.4050027912906913,-4.542600236040951,-3.728654231293108,-4.4030543623707405,-4.982014188756564,0.6678395538817796,2.732676562211525,0.189025395,-1.011899265,0.06555159,0.9613799999999999,-9.44594,14.16128,71.0
1774822292.1718445,0.0041048526763916016,2026-03-29T22:11:32.171,2026-03-29T18:11:32.171,-33236.549999999996,-47890.08,-85442.625,-50269.814999999995,-14577.75,-19466.46,5594.175,-64219.994999999995,-0.4315435199009001,-5.316762925517407,-8.452563021662286,-2.998109732921803,-2.8809362123572715,-3.929278156611721,-2.897911069052339,2.1260582834566906,0.189025395,-1.011899265,0.06555159,0.9613799999999999,-9.44594,14.16128,71.0
1774822292.1718729,2.8371810913085938e-05,2026-03-29T22:11:32.171,2026-03-29T18:11:32.171,-33238.17,-47891.52,-85440.69,-50272.2,-14581.439999999999,-19470.78,5582.61,-64221.795,-1.470523710859065,-5.886210781843674,-8.609175857076075,-1.0025615186348027,-0.12142662159854316,-1.169257875631622,-5.2250310804515525,0.5563199486110962,0.189025395,-1.011899265,0.06555159,0.9613799999999999,-9.44594,14.16128,71.0
1774822292.185008,0.013135194778442383,2026-03-29T22:11:32.185,2026-03-29T18:11:32.185,-33241.049999999996,-47885.939999999995,-85430.79,-50276.564999999995,-14584.455,-19467.405,5572.17,-64226.61,-1.7277946620067384,-3.796104245650299,-4.935771598066711,1.133960226519052,2.378641685879522,1.8433921730657747,-5.294101859688381,-1.1651229361952287,0.189025395,-1.011899265,0.06555159,0.9613799999999999,-9.44594,14.16128,71.0
1774822292.1850307,2.2649765014648438e-05,2026-03-29T22:11:32.185,2026-03-29T18:11:32.185,-33241.095,-47880.314999999995,-85420.215,-50267.25,-14574.734999999999,-19457.235,5576.715,-64230.704999999994,-1.028711064654614,0.053205674321301535,0.9186211137387645,2.367141671910928,3.386744282644539,3.666792150373979,-3.0724292825805652,-2.2005427724161546,0.189025395,-1.011899265,0.06555159,0.9613799999999999,-9.44594,14.16128,71.0
1774822292.1850753,4.458427429199219e-05,2026-03-29T22:11:32.185,2026-03-29T18:11:32.185,-33236.325,-47881.845,-85426.29,-50264.909999999996,-14574.555,-19460.114999999998,5588.82,-64223.549999999996,0.2821302463472719,3.9330117007884753,6.3263989527881686,2.245930913025539,2.547546479151697,3.5712089094521375,0.4747004064627635,-2.097063998589589,0.18139602,-1.00011951,0.064269855,-0.07629999999999999,-11.41448,15.35156,71.0
1774822292.1850872,1.1920928955078125e-05,2026-03-29T22:11:32.185,2026-03-29T18:11:32.185,-33236.01,-47879.145,-85422.59999999999,-50268.33,-14578.38,-19462.86,5605.38,-64222.784999999996,1.5092412151510015,6.071537152995852,8.874664606679477,1.0691114771171222,0.4994152698197941,1.82994755112577,3.8104295030523465,-0.9881862434781409,0.18139602,-1.00011951,0.064269855,-0.07629999999999999,-11.41448,15.35156,71.0
1774822292.185099,1.1682510375976562e-05,2026-03-29T22:11:32.185,2026-03-29T18:11:32.185,-33226.29,-47862.045,-85400.37,-50267.88,-14580.359999999999,-19464.255,5614.92,-64216.71,1.971162618821777,5.474360217805233,7.456360651615227,-0.3646723571427174,-1.5386799305799659,-0.5138281715466133,5.49853394920715,0.5055607353994493,0.18139602,-1.00011951,0.064269855,-0.07629999999999999,-11.41448,15.35156,71.0
1774822292.1851084,9.5367431640625e-06,2026-03-29T22:11:32.185,2026-03-29T18:11:32.185,-33238.935,-47868.39,-85406.625,-50264.865,-14579.91,-19468.844999999998,5599.844999999999,-64236.015,1.3717864348488116,2.394803591310519,2.7590415887924977,-1.2456273123919106,-2.4626181697107183,-2.24608404712406,4.824456861440739,1.6140226627266394,0.18139602,-1.00011951,0.064269855,-0.07629999999999999,-11.41448,15.35156,71.0
1774822292.187514,0.0024056434631347656,2026-03-29T22:11:32.187,2026-03-29T18:11:32.187,-33235.65,-47876.715,-85416.97499999999,-50258.564999999995,-14573.025,-19466.145,5600.25,-64228.545,-0.021720962629875842,-1.7718357695202773,-3.0683179479806704,-1.197344787339262,-1.8746169230462626,-2.6118733235770253,2.09569415369147,1.8128173298399113,0.18139602,-1.00011951,0.064269855,-0.07629999999999999,-11.41448,15.35156,71.0
1774822292.1875267,1.2636184692382812e-05,2026-03-29T22:11:32.187,2026-03-29T18:11:32.187,-33235.695,-47893.095,-85444.29,-50260.725,-14571.99,-19462.59,5600.79,-64219.95,-1.4972201307857549,-5.126946983028801,-7.408940055868762,-0.4374753298589917,-0.25617246682403727,-1.6486868741656804,-1.503219009175281,1.0742946795056958,0.18139602,-1.00011951,0.064269855,-0.07629999999999999,-11.41448,15.35156,71.0
1774822292.1909814,0.0034546852111816406,2026-03-29T22:11:32.190,2026-03-29T18:11:32.190,-33239.88,-47904.165,-85463.73,-50262.119999999995,-14566.769999999999,-19450.079999999998,5605.785,-64219.545,-2.260042970228749,-6.144703460399848,-8.36800658327449,0.4141784168844234,1.353876256054776,-0.07360767237182289,-4.430357317583773,-0.14728011229587656,0.18139602,-1.00011951,0.064269855,-0.07629999999999999,-11.41448,15.35156,71.0
1774822292.190994,1.2636184692382812e-05,2026-03-29T22:11:32.190,2026-03-29T18:11:32.190,-33238.53,-47898.854999999996,-85448.11499999999,-50267.744999999995,-14566.904999999999,-19444.59,5610.96,-64216.845,-1.855412009466928,-4.37616972674046,-5.610772521303874,0.7483386324817183,1.9798259064809616,1.1788960000230642,-5.4500882734440825,-1.1773875806085554,0.18139602,-1.00011951,0.064269855,-0.07629999999999999,-11.41448,15.35156,71.0
1774822292.194878,0.0038840770721435547,2026-03-29T22:11:32.194,2026-03-29T18:11:32.194,-33240.96,-47876.354999999996,-85413.105,-50263.92,-14570.595,-19448.19,5606.054999999999,-64233.0,-0.42818455203174943,-0.6518078642160583,-0.47316654168022015,0.3488071857124047,1.2727966742328956,1.491151087227072,-4.1539743722118,-1.484705405503338,0.18139602,-1.00011951,0.064269855,-0.07629999999999999,-11.41448,15.35156,71.0
1774822292.1948926,1.4543533325195312e-05,2026-03-29T22:11:32.194,2026-03-29T18:11:32.194,-33224.985,-47856.015,-85396.455,-50267.564999999995,-14582.25,-19459.98,5599.755,-64225.979999999996,1.3244755801417802,3.3109288495521,4.688040730240416,-0.4800844135024765,-0.2986334459359873,0.8701547198032692,-1.120230787281468,-0.9536595728159649,0.18139602,-1.00011951,0.064269855,-0.07629999999999999,-11.41448,15.35156,71.0
1774822292.199256,0.004363298416137695,2026-03-29T22:11:32.199,2026-03-29T18:11:32.199,-33216.39,-47852.28,-85392.98999999999,-50260.86,-14577.84,-19458.27,5600.16,-64217.88,2.4947955648590607,5.708082368086259,7.587893073998504,-1.1128460770374198,-1.7339603103731598,-0.12604355769480852,2.3477395980623212,0.07322222785758196,0.177306675,-1.0000584750000001,0.06311019,-1.95328,-12.528459999999999,15.45838,71.0
1774822292.199272,1.5974044799804688e-05,2026-03-29T22:11:32.199,2026-03-29T18:11:32.199,-33231.06,-47865.78,-85402.305,-50261.715,-14575.59,-19455.165,5605.155,-64224.765,2.432226740644655,5.480529337325907,7.036689586453744,-1.008110894475913,-2.0968949308692375,-0.7764393907530083,4.783693616831293,0.9980415091286674,0.177306675,-1.0000584750000001,0.06311019,-1.95328,-12.528459999999999,15.45838,71.0
1774822292.2031472,0.003875255584716797,2026-03-29T22:11:32.203,2026-03-29T18:11:32.203,-33236.729999999996,-47882.43,-85426.515,-50278.14,-14586.795,-19463.579999999998,5603.58,-64224.63,1.0969340587156613,2.7883501146915357,3.4303143197084087,-0.07624519702017327,-1.0807884280940065,-0.6569727207445434,5.178267995095507,1.3009610250063282,0.177306675,-1.0000584750000001,0.06311019,-1.95328,-12.528459999999999,15.45838,71.0
1774822292.2031677,2.0503997802734375e-05,2026-03-29T22:11:32.203,2026-03-29T18:11:32.203,-33235.02,-47884.365,-85434.61499999999,-50279.04,-14587.65,-19467.36,5598.09,-64225.395,-0.8902728992524874,-1.0870537494255985,-1.4954401278420968,1.2169027600506803,0.7833741840270451,0.10282682677521911,3.394865718284214,0.8233412704745139,0.177306675,-1.0000584750000001,0.06311019,-1.95328,-12.528459999999999,15.45838,71.0
1774822292.209702,0.0065343379974365234,2026-03-29T22:11:32.209,2026-03-29T18:11:32.209,-33236.19,-47882.43,-85428.9,-50269.095,-14577.39,-19458.675,5600.07,-64225.665,-2.539246951505002,-4.3568928623647825,-5.504219044532806,2.0869932646256397,2.4049242200736134,0.9155144203784531,0.21223770697143035,-0.1505182233904169,0.177306675,-1.0000584750000001,0.06311019,-1.95328,-12.528459999999999,15.45838,71.0
1774822292.2097275,2.5510787963867188e-05,2026-03-29T22:11:32.209,2026-03-29T18:11:32.209,-33237.72,-47885.49,-85429.75499999999,-50275.619999999995,-14583.195,-19461.87,5596.425,-64226.564999999995,-2.9849446622883287,-5.55857034020001,-6.884002354041441,1.887169283569994,2.752162852013862,1.1223404825471437,-3.016247731129902,-1.0547037874841996,0.177306675,-1.0000584750000001,0.06311019,-1.95328,-12.528459999999999,15.45838,71.0
1774822292.2113705,0.0016429424285888672,2026-03-29T22:11:32.211,2026-03-29T18:11:32.211,-33235.875,-47889.27,-85437.855,-50284.619999999995,-14591.519999999999,-19468.215,5593.094999999999,-64222.244999999995,-1.9373236817151727,-4.216648033476901,-5.183360758187782,0.5254341318087129,1.468328988776121,0.43551689186436005,-4.937347753878675,-1.3572299356232074,0.177306675,-1.0000584750000001,0.06311019,-1.95328,-12.528459999999999,15.45838,71.0
1774822292.2113924,2.193450927734375e-05,2026-03-29T22:11:32.211,2026-03-29T18:11:32.211,-33233.04,-47888.505,-85438.575,-50281.424999999996,-14588.505,-19467.18,5593.86,-64219.68,0.14601211663501265,-1.029525478203113,-1.3403537411589879,-1.4074335131325513,-0.8690539092215201,-0.8362406851225402,-4.763587961164482,-0.8584022846601044,0.177306675,-1.0000584750000001,0.06311019,-1.95328,-12.528459999999999,15.45838,71.0
1774822292.2213368,0.009944438934326172,2026-03-29T22:11:32.221,2026-03-29T18:11:32.221,-33232.005,-47885.31,-85434.61499999999,-50279.67,-14587.965,-19467.36,5596.38,-64218.96,2.262176495583275,2.4902424453378074,2.82035132736399,-2.8989775078403746,-3.011605135272338,-1.9285623274861607,-2.5949505565631394,0.19045782402272668,0.177306675,-1.0000584750000001,0.06311019,-1.95328,-12.528459999999999,15.45838,71.0
1774822292.2213607,2.384185791015625e-05,2026-03-29T22:11:32.221,2026-03-29T18:11:32.221,-33238.845,-47882.115,-85427.64,-50275.845,-14581.755,-19457.864999999998,5605.335,-64226.7,3.349524279156057,4.737538045357695,5.456975802342893,-3.047864052408483,-3.7048221340651404,-2.063757953848098,0.6336780288152944,1.2146923652290473,0.177306675,-1.0000584750000001,0.06311019,-1.95328,-12.528459999999999,15.45838,71.0
1774822292.221382,2.1219253540039062e-05,2026-03-29T22:11:32.221,2026-03-29T18:11:32.221,-33238.619999999995,-47882.744999999995,-85429.305,-50277.195,-14581.439999999999,-19457.64,5607.719999999999,-64229.265,2.82039609094232,4.751798651765713,5.530539053403795,-1.587629766727553,-2.4014639151363366,-0.9451969933417295,3.553136948073568,1.6251528296492235,0.178649445,-1.006528185,0.068908515,1.9227599999999998,-8.0878,17.28958,71.0
1774822292.2213917,9.775161743164062e-06,2026-03-29T22:11:32.221,2026-03-29T18:11:32.221,-33229.17,-47877.479999999996,-85423.14,-50273.64,-14581.664999999999,-19457.73,5604.66,-64217.744999999995,0.8723882085547076,2.628794203268797,3.20823150558263,0.8949928574867418,0.3738964725021517,0.9921698506992649,4.938664874530884,1.1444361719881129,0.178649445,-1.006528185,0.068908515,1.9227599999999998,-8.0878,17.28958,71.0
1774822292.223104,0.0017123222351074219,2026-03-29T22:11:32.223,2026-03-29T18:11:32.223,-33227.19,-47873.655,-85415.67,-50267.43,-14579.685,-19456.515,5601.78,-64212.884999999995,-1.5845001251826654,-0.5695549819475643,-0.30238613184500807,3.1946038776901284,3.233245303849989,2.746788257029063,4.223831452406259,-0.025783705580295718,0.178649445,-1.006528185,0.068908515,1.9227599999999998,-8.0878,17.28958,71.0
1774822292.2231233,1.9311904907226562e-05,2026-03-29T22:11:32.223,2026-03-29T18:11:32.223,-33231.104999999996,-47876.625,-85417.37999999999,-50267.97,-14581.529999999999,-19460.024999999998,5596.0199999999995,-64216.215,-3.3582341205806965,-3.344125165179973,-3.3714653350445523,4.081813862050235,4.625568754242428,3.2711173657302455,1.7347368688953866,-1.291425775895308,0.178649445,-1.006528185,0.068908515,1.9227599999999998,-8.0878,17.28958,71.0
1774822292.2275496,0.004426240921020508,2026-03-29T22:11:32.227,2026-03-29T18:11:32.227,-33232.32,-47878.74,-85422.105,-50267.61,-14578.65,-19459.53,5595.705,-64220.22,-3.556480948227195,-4.4630050498865215,-4.703776432748455,2.9611088109078736,3.673647601522658,2.0764596219654603,-1.4534921056549264,-1.9684196675964745,0.178649445,-1.006528185,0.068908515,1.9227599999999998,-8.0878,17.28958,71.0
1774822292.2275927,4.315376281738281e-05,2026-03-29T22:11:32.227,2026-03-29T18:11:32.227,-33231.284999999996,-47879.775,-85427.415,-50267.88,-14577.93,-19460.16,5597.955,-64224.045,-2.0340555933676283,-3.509305371185529,-3.882638511273824,0.2402794459804524,0.6980507588903874,-0.4193101003404687,-3.9774368113544627,-1.64663033346208,0.178649445,-1.006528185,0.068908515,1.9227599999999998,-8.0878,17.28958,71.0
1774822292.2312973,0.003704547882080078,2026-03-29T22:11:32.231,2026-03-29T18:11:32.231,-33228.09,-47875.634999999995,-85420.98,-50261.49,-14572.08,-19454.355,5604.57,-64221.39,0.5179272114466738,-1.028678434747449,-1.4744579527988422,-2.8073599339143502,-2.874305223798325,-3.0228447572651826,-4.768460174836922,-0.4238392113156461,0.178649445,-1.006528185,0.068908515,1.9227599999999998,-8.0878,17.28958,71.0
1774822292.2313163,1.9073486328125e-05,2026-03-29T22:11:32.231,2026-03-29T18:11:32.231,-33234.84,-47883.104999999996,-85430.47499999999,-50274.54,-14583.914999999999,-19463.805,5601.195,-64227.78,2.891430248150127,1.7704589564289357,1.3142527534275061,-4.648182803689498,-5.202295285120305,-4.344042978743432,-3.509587957806384,1.1189633577297813,0.178649445,-1.006528185,0.068908515,1.9227599999999998,-8.0878,17.28958,71.0
1774822292.235147,0.0038306713104248047,2026-03-29T22:11:32.235,2026-03-29T18:11:32.235,-33225.615,-47879.415,-85432.72499999999,-50285.159999999996,-14592.42,-19468.485,5600.385,-64220.67,3.9389792570337807,3.6029165870701894,3.2324023611311894,-4.269394114867191,-4.984496486554533,-3.5383966449533033,-0.7691282478745518,2.1978119266615903,0.178649445,-1.006528185,0.068908515,1.9227599999999998,-8.0878,17.28958,71.0
1774822292.235175,2.7894973754882812e-05,2026-03-29T22:11:32.235,2026-03-29T18:11:32.235,-33223.185,-47877.435,-85429.75499999999,-50281.695,-14589.855,-19466.73,5598.855,-64215.72,3.1304136365133046,3.6953046429066254,3.541364047897323,-1.734827380466054,-2.178985543998402,-0.8168976252081039,2.2489650053263497,2.2245825163534114,0.178649445,-1.006528185,0.068908515,1.9227599999999998,-8.0878,17.28958,71.0
1774822292.23889,0.003715038299560547,2026-03-29T22:11:32.238,2026-03-29T18:11:32.238,-33222.104999999996,-47879.82,-85431.555,-50279.49,-14588.64,-19466.325,5597.955,-64213.2,0.8176433548010512,2.108326686584246,2.2877503474665324,1.7883365720755109,1.9055313247335657,2.5736475542955373,4.2321383663537455,1.1213408919743741,0.17669632500000002,-1.000424685,0.07177716,0.94612,-6.821219999999999,17.549,71.0
1774822292.238906,1.5974044799804688e-05,2026-03-29T22:11:32.238,2026-03-29T18:11:32.238,-33228.765,-47880.72,-85428.675,-50271.525,-14581.574999999999,-19459.98,5599.485,-64221.39,-1.9234851504242625,-0.33881983116879444,0.19860508166884158,4.572908312082802,5.2258076252149825,4.929026075481929,4.334692911402992,-0.6154764915440042,0.17669632500000002,-1.000424685,0.07177716,0.94612,-6.821219999999999,17.549,71.0
1774822292.242957,0.00405120849609375,2026-03-29T22:11:32.242,2026-03-29T18:11:32.242,-33238.979999999996,-47879.955,-85426.92,-50257.08,-14567.13,-19449.225,5603.445,-64238.13,-3.800522628413367,-2.484267365866624,-1.714776515916967,5.189676724702044,6.03494608920565,4.953298824466394,2.547734938235266,-2.1429114869904384,0.17669632500000002,-1.000424685,0.07177716,0.94612,-6.821219999999999,17.549,71.0
1774822292.2429726,1.5497207641601562e-05,2026-03-29T22:11:32.242,2026-03-29T18:11:32.242,-33237.854999999996,-47883.6,-85436.64,-50256.99,-14565.644999999999,-19450.17,5601.6449999999995,-64234.799999999996,-3.9183300601494815,-3.3704835009693532,-2.636196766812473,3.2493314854935273,3.8044842776506944,2.4684338774118633,-0.30269570468139384,-2.6847074597500176,0.17669632500000002,-1.000424685,0.07177716,0.94612,-6.821219999999999,17.549,71.0
1774822292.2474306,0.004457950592041016,2026-03-29T22:11:32.247,2026-03-29T18:11:32.247,-33235.155,-47878.064999999995,-85425.795,-50258.07,-14566.814999999999,-19451.07,5601.554999999999,-64231.604999999996,-2.205690439808171,-2.666622555376026,-2.283871895406774,-0.35970194822639134,-0.4497962207002157,-1.4188758607384628,-2.9312034247818866,-1.9256184760047979,0.17669632500000002,-1.000424685,0.07177716,0.94612,-6.821219999999999,17.549,71.0
1774822292.2474473,1.6689300537109375e-05,2026-03-29T22:11:32.247,2026-03-29T18:11:32.247,-33233.174999999996,-47875.994999999995,-85416.705,-50267.475,-14578.199999999999,-19458.54,5603.264999999999,-64229.22,0.5486999844484679,-0.7826099573265063,-0.9737533634245373,-3.8789666529492273,-4.631837442600108,-4.81353606621004,-4.175001218975132,-0.18662146337769114,0.17669632500000002,-1.000424685,0.07177716,0.94612,-6.821219999999999,17.549,71.0
1774822292.2512343,0.0037870407104492188,2026-03-29T22:11:32.251,2026-03-29T18:11:32.251,-33230.924999999996,-47878.695,-85425.525,-50283.99,-14595.345,-19470.465,5600.88,-64226.52,3.0666565361357394,1.358098531189353,0.5904451909261165,-5.545750453893467,-6.6065838741855645,-5.9674976708246,-3.5183282483925398,1.7134525460799652,0.17669632500000002,-1.000424685,0.07177716,0.94612,-6.821219999999999,17.549,71.0
1774822292.25125,1.5735626220703125e-05,2026-03-29T22:11:32.251,2026-03-29T18:11:32.251,-33216.165,-47873.79,-85429.89,-50273.055,-14585.039999999999,-19464.614999999998,5601.6449999999995,-64215.854999999996,4.179817623424321,2.7644926163080785,1.676077294057997,-4.486871772160817,-5.297624450300192,-4.187646291477526,-1.3183697900438907,2.8487654820061596,0.17669632500000002,-1.000424685,0.07177716,0.94612,-6.821219999999999,17.549,71.0
1774822292.2550652,0.003815174102783203,2026-03-29T22:11:32.255,2026-03-29T18:11:32.255,-33218.235,-47886.39,-85442.265,-50270.985,-14582.925,-19464.344999999998,5601.014999999999,-64212.93,3.37378331470552,2.829616786627547,1.852655274157972,-1.1830392926283575,-1.2739556832436383,-0.24168910356346734,1.3726723351229129,2.640870921662039,0.17669632500000002,-1.000424685,0.07177716,0.94612,-6.821219999999999,17.549,71.0
1774822292.2550812,1.5974044799804688e-05,2026-03-29T22:11:32.255,2026-03-29T18:11:32.255,-33233.49,-47893.77,-85443.795,-50278.77,-14587.965,-19465.695,5601.24,-64218.375,1.0226404891238725,1.5852341143427795,1.1510555142791508,2.7452781378187607,3.493397590198916,3.9711566593282517,3.3069058390837998,1.1523062478760138,0.17669632500000002,-1.000424685,0.07177716,0.94612,-6.821219999999999,17.549,71.0
1774822292.2598622,0.004781007766723633,2026-03-29T22:11:32.259,2026-03-29T18:11:32.259,-33241.77,-47879.64,-85428.94499999999,-50277.96,-14584.185,-19458.585,5604.525,-64232.505,-1.7914449488061668,-0.3432008485114417,-0.0008695159052024861,5.3370134150364805,6.602934773417101,6.344581500983903,3.626621917374029,-0.9290620649291004,0.16821246,-0.997250865,0.07165509,-0.47306,-4.959499999999999,17.97628,71.0
1774822292.2598782,1.5974044799804688e-05,2026-03-29T22:11:32.259,2026-03-29T18:11:32.259,-33236.729999999996,-47880.09,-85430.385,-50278.68,-14585.355,-19460.969999999998,5602.005,-64230.03,-3.783312732559622,-2.0451499044888055,-1.0135854094979302,5.278528282097801,6.440721750106972,5.630189516987684,2.2587810881159016,-2.6126779999045904,0.16821246,-0.997250865,0.07165509,-0.47306,-4.959499999999999,17.97628,71.0
1774822292.2647283,0.004850149154663086,2026-03-29T22:11:32.264,2026-03-29T18:11:32.264,-33228.045,-47880.09,-85431.69,-50277.689999999995,-14584.904999999999,-19463.445,5598.0,-64219.365,-4.055364475086303,-2.7467841798472894,-1.4201100450876347,2.5789770178693527,3.0236196473677306,2.099637760606407,-0.0699443666921762,-3.081297103414864,0.16821246,-0.997250865,0.07165509,-0.47306,-4.959499999999999,17.97628,71.0
1774822292.2647443,1.5974044799804688e-05,2026-03-29T22:11:32.264,2026-03-29T18:11:32.264,-33224.94,-47875.77,-85418.37,-50269.365,-14580.945,-19459.98,5598.09,-64219.994999999995,-2.500427217508802,-2.1539617304106415,-1.0787176203394686,-1.4177545439429131,-1.9748131180132396,-2.5491116865165275,-2.203151289974792,-2.0896127611041138,0.16821246,-0.997250865,0.07165509,-0.47306,-4.959499999999999,17.97628,71.0
1774822292.2689517,0.0042073726654052734,2026-03-29T22:11:32.268,2026-03-29T18:11:32.268,-33218.64,-47873.43,-85422.69,-50285.97,-14599.935,-19474.739999999998,5594.94,-64214.595,0.16295482151219773,-0.5686508750196896,-0.2121772028750984,-4.701069023982211,-6.046567798372949,-6.0152282687627245,-3.127433681238286,-0.09039789865940581,0.16821246,-0.997250865,0.07165509,-0.47306,-4.959499999999999,17.97628,71.0
1774822292.2689736,2.193450927734375e-05,2026-03-29T22:11:32.268,2026-03-29T18:11:32.268,-33219.63,-47877.39,-85429.17,-50289.57,-14603.58,-19478.52,5590.62,-64209.78,2.729615939792086,1.2632755082427556,0.7200919817392757,-5.60956881142145,-7.114134609539677,-6.545641989320827,-2.465006464586974,1.9755852306453672,0.16821246,-0.997250865,0.07165509,-0.47306,-4.959499999999999,17.97628,71.0
1774822292.273698,0.0047245025634765625,2026-03-29T22:11:32.273,2026-03-29T18:11:32.273,-33229.979999999996,-47877.03,-85426.875,-50283.27,-14593.994999999999,-19470.105,5592.195,-64221.75,4.057765282869911,2.4966104961051445,1.2484628086181728,-3.679441644928075,-4.597142036232921,-3.8322727716789706,-0.6420812365039145,3.126624063540554,0.16821246,-0.997250865,0.07165509,-0.47306,-4.959499999999999,17.97628,71.0
1774822292.2737288,3.075599670410156e-05,2026-03-29T22:11:32.273,2026-03-29T18:11:32.273,-33225.345,-47871.72,-85419.27,-50274.314999999995,-14585.894999999999,-19462.184999999998,5595.255,-64218.689999999995,3.576580475558138,2.5672407707843257,1.112649911556878,0.11095870196667575,0.26965946562015275,0.8076189238233593,1.349537875530578,2.8095892172444628,0.16821246,-0.997250865,0.07165509,-0.47306,-4.959499999999999,17.97628,71.0
1774822292.2753706,0.0016417503356933594,2026-03-29T22:11:32.275,2026-03-29T18:11:32.275,-33242.445,-47866.68,-85405.095,-50255.595,-14565.869999999999,-19444.005,5606.865,-64248.255,1.5260800011495317,1.4415426350334222,0.37844598768579724,3.831907082624641,5.041671043401184,5.073193168718891,2.4746671315903366,1.1661714061290989,0.16821246,-0.997250865,0.07165509,-0.47306,-4.959499999999999,17.97628,71.0
1774822292.2753906,2.002716064453125e-05,2026-03-29T22:11:32.275,2026-03-29T18:11:32.275,-33240.015,-47862.99,-85400.64,-50251.994999999995,-14562.945,-19441.35,5610.105,-64243.215,-1.1682944153055415,-0.37146886424289904,-0.5959650610351207,5.583803317573731,7.296054936152443,6.829976079070369,2.1920795201395102,-1.0322276287421368,0.16821246,-0.997250865,0.07165509,-0.47306,-4.959499999999999,17.97628,71.0
1774822292.2870688,0.011678218841552734,2026-03-29T22:11:32.287,2026-03-29T18:11:32.287,-33240.375,-47874.33,-85418.145,-50267.61,-14576.535,-19452.87,5605.695,-64238.895,-3.318478863323757,-2.0476258216315486,-1.3264094946682223,4.470025282965901,5.867164396277069,5.189140566419302,0.7284507417011494,-2.7498390294891104,0.163146555,-0.999570195,0.07177716,4.66956,-3.57084,15.96196,71.0
1774822292.2870853,1.6450881958007812e-05,2026-03-29T22:11:32.287,2026-03-29T18:11:32.287,-33241.545,-47879.369999999995,-85424.895,-50274.27,-14585.22,-19462.59,5601.42,-64241.505,-3.998258593758813,-2.8144034832780416,-1.4281535705496358,1.0614662690085364,1.4534053932261821,0.9656109105760616,-1.055250596643723,-3.177402104262898,0.163146555,-0.999570195,0.07177716,4.66956,-3.57084,15.96196,71.0
1774822292.287099,1.3589859008789062e-05,2026-03-29T22:11:32.287,2026-03-29T18:11:32.287,-33240.42,-47884.275,-85430.83499999999,-50278.5,-14590.17,-19467.989999999998,5600.25,-64236.689999999995,-2.937747259544486,-2.2975091847694435,-0.8015214861727057,-2.8899170235401757,-3.7218999505695054,-3.7243403702075293,-2.1368430827116787,-2.114666184467224,0.163146555,-0.999570195,0.07177716,4.66956,-3.57084,15.96196,71.0
1774822292.2871034,4.5299530029296875e-06,2026-03-29T22:11:32.287,2026-03-29T18:11:32.287,-33238.215,-47891.07,-85444.33499999999,-50290.244999999995,-14602.949999999999,-19481.355,5589.855,-64237.454999999994,-0.6225743574573293,-0.6960177702417906,0.3058605550676404,-5.346767729449916,-7.031560369835169,-6.527925792787072,-1.8962991407061298,-0.06343330391794122,0.163146555,-0.999570195,0.07177716,4.66956,-3.57084,15.96196,71.0
1774822292.287109,5.4836273193359375e-06,2026-03-29T22:11:32.287,2026-03-29T18:11:32.287,-33236.729999999996,-47888.415,-85440.78,-50281.38,-14595.525,-19477.079999999998,5584.23,-64238.13,1.9335263532126092,1.2929997561921907,1.3933842194801813,-5.034556708902876,-6.781159241774548,-6.04500850356508,-0.46662070619808177,2.0113753457285575,0.163146555,-0.999570195,0.07177716,4.66956,-3.57084,15.96196,71.0
1774822292.2871125,3.5762786865234375e-06,2026-03-29T22:11:32.287,2026-03-29T18:11:32.287,-33236.46,-47881.619999999995,-85429.75499999999,-50267.564999999995,-14582.295,-19465.829999999998,5592.915,-64238.895,3.633766728678892,2.7727495732015797,1.9248946027970848,-2.1034843613029315,-3.0795571216513276,-2.536585709483165,1.324153515904282,3.137657862683081,0.163146555,-0.999570195,0.07177716,4.66956,-3.57084,15.96196,71.0
1774822292.293822,0.006709575653076172,2026-03-29T22:11:32.293,2026-03-29T18:11:32.293,-33224.265,-47872.439999999995,-85425.39,-50265.18,-14579.595,-19461.015,5606.594999999999,-64228.409999999996,3.7651515472425046,3.0430851053774255,1.5792715907400694,1.939983089872486,2.205277488594727,2.209732303874338,2.4008727324899195,2.7926090016802982,0.163146555,-0.999570195,0.07177716,4.66956,-3.57084,15.96196,71.0
1774822292.2938404,1.8358230590820312e-05,2026-03-29T22:11:32.293,2026-03-29T18:11:32.293,-33227.235,-47880.54,-85433.04,-50265.585,-14581.71,-19462.59,5602.545,-64225.53,2.290743411077172,1.9235689411150922,0.42240265704830005,5.002176943276698,6.388744856711127,5.7900175334946535,2.0470159321739687,1.1450564267897165,0.163146555,-0.999570195,0.07177716,4.66956,-3.57084,15.96196,71.0
1774822292.2938683,2.7894973754882812e-05,2026-03-29T22:11:32.293,2026-03-29T18:11:32.293,-33232.905,-47891.88,-85451.265,-50262.75,-14572.439999999999,-19456.02,5607.179999999999,-64228.365,-0.1483935955778151,-0.1425828702586272,-1.085529952556759,5.480654022651856,7.334336576657413,6.4062090609663995,0.3396770673830074,-1.0281942196628657,0.163146555,-0.999570195,0.07177716,4.66956,-3.57084,15.96196,71.0
1774822292.293876,7.62939453125e-06,2026-03-29T22:11:32.293,2026-03-29T18:11:32.293,-33237.674999999996,-47892.15,-85443.39,-50263.244999999995,-14571.945,-19455.795,5605.92,-64233.36,-2.5133367056255453,-2.2594659196070084,-2.266628964306331,3.098076720869912,4.545819439118708,3.7764416174900486,-1.8372997561813487,-2.7097760078518696,0.163146555,-0.999570195,0.07177716,4.66956,-3.57084,15.96196,71.0
1774822292.2994452,0.0055692195892333984,2026-03-29T22:11:32.299,2026-03-29T18:11:32.299,-33237.99,-47877.705,-85413.51,-50264.685,-14585.805,-19470.015,5588.054999999999,-64243.35,-3.806474863960379,-3.46131823611012,-2.522158846501661,-0.9408600559984736,-0.5721977633810471,-0.7305586995580169,-3.235082856342426,-3.1184057362601156,0.159240315,-0.999814335,0.070129215,4.1964999999999995,-2.57894,15.702539999999999,71.0
