unix_time_s,dt_s,UTC,LOCAL,EMG1_Raw,EMG2_Raw,EMG3_Raw,EMG4_Raw,EMG5_Raw,EMG6_Raw,EMG7_Raw,EMG8_Raw,EMG1_Filtered,EMG2_Filtered,EMG3_Filtered,EMG4_Filtered,EMG5_Filtered,EMG6_Filtered,EMG7_Filtered,EMG8_Filtered,Accel1_Raw,Accel2_Raw,Accel3_Raw,Gyro1_Raw,Gyro2_Raw,Gyro3_Raw,Battery
1774821799.7733629,,2026-03-29T22:03:19.773,2026-03-29T18:03:19.773,-32086.53,-50694.795,-86446.44,-50760.27,-16926.524999999998,-21467.655,3791.835,-45928.89,-0.8633274302645837,-0.11518887724284446,0.41198473754709136,1.0711109571097035,1.2732285096024163,1.4478529362029997,0.463833426698151,-0.89858762691906,0.134338035,-0.778501425,0.622618035,-4.3338399999999995,1.96854,-8.75924,72.0
1774821799.7733712,8.344650268554688e-06,2026-03-29T22:03:19.773,2026-03-29T18:03:19.773,-32080.004999999997,-50692.275,-86444.86499999999,-50755.59,-16920.72,-21462.48,3792.7349999999997,-45923.265,0.8315416052382143,-2.533753067183672,-2.8504166410280303,-3.3245173389447236,-3.336880108057588,-2.019500272495679,3.0342205228594925,2.1998410786756515,0.134338035,-0.778501425,0.622618035,-4.3338399999999995,1.96854,-8.75924,72.0
1774821799.7733796,8.344650268554688e-06,2026-03-29T22:03:19.773,2026-03-29T18:03:19.773,-32078.655,-50694.93,-86452.515,-50760.45,-16924.995,-21468.96,3795.2549999999997,-45919.845,2.1739667885980825,-3.92381803068153,-5.08930440458303,-6.532667776530924,-6.773917437176603,-4.952350868111722,4.1796241275400545,4.368548141378108,0.134338035,-0.778501425,0.622618035,-4.3338399999999995,1.96854,-8.75924,72.0
1774821799.7733836,4.0531158447265625e-06,2026-03-29T22:03:19.773,2026-03-29T18:03:19.773,-32076.585,-50700.104999999996,-86463.54,-50774.534999999996,-16941.149999999998,-21485.79,3785.355,-45916.74,2.496549642572616,-3.632470756198467,-5.231490008707899,-7.044808875380226,-7.435665173631958,-6.011487826236384,3.276901830599334,4.537409106110857,0.134338035,-0.778501425,0.622618035,-4.3338399999999995,1.96854,-8.75924,72.0
1774821799.7781973,0.004813671112060547,2026-03-29T22:03:19.778,2026-03-29T18:03:19.778,-32078.295,-50701.814999999995,-86473.8,-50785.83,-16951.995,-21497.445,3745.2599999999998,-45924.255,1.6127886855176787,-1.729259432631873,-3.0612500720576756,-4.4596829795558675,-4.8496084692461014,-4.540836393794521,0.7043189635487299,2.5597147465720322,0.134338035,-0.778501425,0.622618035,-4.3338399999999995,1.96854,-8.75924,72.0
1774821799.7782142,1.6927719116210938e-05,2026-03-29T22:03:19.778,2026-03-29T18:03:19.778,-32075.37,-50697.63,-86468.44499999999,-50778.045,-16944.3,-21492.585,3727.2149999999997,-45924.795,-0.07665962027793521,0.9991650853235964,0.6129437006105763,0.2558116946561816,0.031298605857128355,-0.9492595937983852,-2.3196655372831096,-0.6889422260830608,0.134338035,-0.778501425,0.622618035,-4.3338399999999995,1.96854,-8.75924,72.0
1774821799.787022,0.008807897567749023,2026-03-29T22:03:19.787,2026-03-29T18:03:19.787,-32089.725,-50695.83,-86456.025,-50759.82,-16923.825,-21473.46,3750.66,-45940.005,-1.7650257877683986,3.3742418598725545,4.245810178284329,5.112429119041354,5.160898190045153,3.354928962915791,-4.317222815671221,-3.7015796105804837,0.13134732,-0.779355915,0.623472525,-3.3571999999999997,2.71628,-8.49982,72.0
1774821799.787033,1.0967254638671875e-05,2026-03-29T22:03:19.787,2026-03-29T18:03:19.787,-32086.485,-50690.88,-86449.72499999999,-50750.505,-16911.315,-21458.52,3807.1349999999998,-45931.005,-2.626259843133021,4.336142398907615,6.202851075965969,7.936962089559189,8.25584760028738,6.503991212665055,-4.272681035154255,-5.044325126169828,0.13134732,-0.779355915,0.623472525,-3.3571999999999997,2.71628,-8.49982,72.0
1774821799.787043,1.0013580322265625e-05,2026-03-29T22:03:19.787,2026-03-29T18:03:19.787,-32073.795,-50686.02,-86447.79,-50748.119999999995,-16907.985,-21452.445,3836.16,-45912.869999999995,-2.22160593136192,3.4179738596580282,5.498457717940234,7.350978721800882,7.819004871292614,6.985883555286102,-2.1420793466986097,-4.042690659218321,0.13134732,-0.779355915,0.623472525,-3.3571999999999997,2.71628,-8.49982,72.0
1774821799.7870471,4.0531158447265625e-06,2026-03-29T22:03:19.787,2026-03-29T18:03:19.787,-32076.495,-50695.65,-86461.2,-50764.095,-16924.545,-21466.89,3827.8799999999997,-45911.97,-0.7250401660640815,0.9708204570872688,2.2902446269232004,3.446628981143411,3.8687705256802536,4.377209292781963,1.102835020151254,-1.1196402789336741,0.13134732,-0.779355915,0.623472525,-3.3571999999999997,2.71628,-8.49982,72.0
1774821799.7900229,0.0029757022857666016,2026-03-29T22:03:19.790,2026-03-29T18:03:19.790,-32066.414999999997,-50697.27,-86465.295,-50775.884999999995,-16939.755,-21480.57,3793.545,-45901.845,1.148677728479008,-1.9682809147604037,-2.117574595190563,-2.173105717803411,-1.9830061580465508,-0.36410464638189916,3.925011706425301,2.3834337881832406,0.13134732,-0.779355915,0.623472525,-3.3571999999999997,2.71628,-8.49982,72.0
1774821799.7900443,2.1457672119140625e-05,2026-03-29T22:03:19.790,2026-03-29T18:03:19.790,-32062.32,-50697.0,-86464.75499999999,-50780.159999999996,-16945.515,-21486.105,3780.72,-45897.795,2.4850189723534215,-4.116984546536717,-5.798541133835594,-7.0474578582067595,-7.181976825443198,-5.229291622381784,4.954726298690007,4.826624584174314,0.13134732,-0.779355915,0.623472525,-3.3571999999999997,2.71628,-8.49982,72.0
1774821799.7941267,0.004082441329956055,2026-03-29T22:03:19.794,2026-03-29T18:03:19.794,-32083.155,-50702.85,-86464.75499999999,-50770.619999999995,-16930.485,-21471.524999999998,3796.1099999999997,-45917.685,2.61727967520179,-4.509222966999971,-7.048864375540431,-8.941583256177728,-9.352621664093476,-8.01185576016713,3.6527910909236065,5.0438356879704696,0.13134732,-0.779355915,0.623472525,-3.3571999999999997,2.71628,-8.49982,72.0
1774821799.794152,2.5272369384765625e-05,2026-03-29T22:03:19.794,2026-03-29T18:03:19.794,-32087.879999999997,-50693.49,-86455.62,-50760.225,-16920.63,-21464.415,3803.9849999999997,-45930.869999999995,1.4614237562108068,-2.9309198643271426,-5.18140569066805,-6.881380572666874,-7.3954418127441,-7.3209244186827425,0.5832810513615994,2.901958936272464,0.13134732,-0.779355915,0.623472525,-3.3571999999999997,2.71628,-8.49982,72.0
1774821799.7985153,0.004363298416137695,2026-03-29T22:03:19.798,2026-03-29T18:03:19.798,-32079.105,-50692.77,-86458.455,-50764.049999999996,-16926.75,-21471.795,3792.825,-45920.88,-0.4305170856678107,-0.03270405031984765,-0.8964567423832492,-1.6559201078919827,-2.0482597260310818,-3.2841115896757413,-2.8390535856240318,-0.6219954479920732,0.13134732,-0.779355915,0.623472525,-3.3571999999999997,2.71628,-8.49982,72.0
1774821799.7985249,9.5367431640625e-06,2026-03-29T22:03:19.798,2026-03-29T18:03:19.798,-32080.86,-50687.549999999996,-86447.52,-50750.595,-16913.024999999998,-21457.665,3793.77,-45924.39,-2.1315266526659435,2.9383598914098488,3.968267588817836,4.472250471783066,4.376610657843979,2.418322204829584,-5.009665809280414,-3.8886183217957035,0.13134732,-0.779355915,0.623472525,-3.3571999999999997,2.71628,-8.49982,72.0
1774821799.8023994,0.003874540328979492,2026-03-29T22:03:19.802,2026-03-29T18:03:19.802,-32081.76,-50688.0,-86447.295,-50750.145,-16912.44,-21456.945,3793.68,-45925.965,-2.792778581175872,4.677504629360279,7.226958925489586,8.750411583690033,8.995409941179835,7.249989254214638,-4.890516375338443,-5.362493974619418,0.12768522,-0.7749003600000001,0.62536461,-4.15072,1.8006799999999998,-6.516019999999999,72.0
1774821799.8024123,1.2874603271484375e-05,2026-03-29T22:03:19.802,2026-03-29T18:03:19.802,-32076.495,-50686.604999999996,-86445.54,-50750.865,-16913.61,-21460.094999999998,3790.71,-45918.314999999995,-2.067994433239767,4.397859511899493,7.335390436241614,9.184275980045227,9.660474027707,8.959377345625258,-2.5031361674351804,-4.337586562061781,0.12768522,-0.7749003600000001,0.62536461,-4.15072,1.8006799999999998,-6.516019999999999,72.0
1774821799.8070586,0.00464630126953125,2026-03-29T22:03:19.807,2026-03-29T18:03:19.807,-32073.164999999997,-50692.32,-86458.815,-50765.895,-16928.28,-21472.965,3790.035,-45912.33,-0.2968990953086625,2.1878652613565586,4.129676940639278,5.480416413761489,5.973874152395129,6.646720898595772,1.0747886864846488,-1.2777624381004629,0.12768522,-0.7749003600000001,0.62536461,-4.15072,1.8006799999999998,-6.516019999999999,72.0
1774821799.8070912,3.266334533691406e-05,2026-03-29T22:03:19.807,2026-03-29T18:03:19.807,-32080.77,-50702.58,-86470.47,-50778.765,-16943.445,-21488.13,3781.5299999999997,-45917.865,1.6497034801625612,-1.012512112926877,-1.0423830962358633,-0.7684553068995214,-0.4777986980648527,1.243568292575416,4.207007370247592,2.39231732745962,0.12768522,-0.7749003600000001,0.62536461,-4.15072,1.8006799999999998,-6.516019999999999,72.0
1774821799.8101668,0.0030755996704101562,2026-03-29T22:03:19.810,2026-03-29T18:03:19.810,-32084.1,-50698.439999999995,-86458.31999999999,-50762.88,-16927.695,-21473.594999999998,3786.8849999999998,-45925.424999999996,2.7944528697396467,-3.8130872337257795,-5.885765597243948,-6.767616171273327,-6.804216479947293,-4.852625694407677,5.455620947175469,4.951905877439852,0.12768522,-0.7749003600000001,0.62536461,-4.15072,1.8006799999999998,-6.516019999999999,72.0
1774821799.8101912,2.4318695068359375e-05,2026-03-29T22:03:19.810,2026-03-29T18:03:19.810,-32071.5,-50692.77,-86455.845,-50760.63,-16928.325,-21476.61,3788.5049999999997,-45915.03,2.5421957262410246,-4.980402428873803,-8.183912295424363,-9.781248976682548,-10.117481350165088,-8.851965792675946,4.243050724853159,5.1939340514022625,0.12768522,-0.7749003600000001,0.62536461,-4.15072,1.8006799999999998,-6.516019999999999,72.0
1774821799.8143272,0.004136085510253906,2026-03-29T22:03:19.814,2026-03-29T18:03:19.814,-32073.074999999997,-50690.79,-86452.785,-50757.57,-16923.6,-21471.975,3795.165,-45914.58,0.989670294223446,-3.9840278767798143,-6.824324053630539,-8.396764041966515,-8.868859212851214,-8.869254688028029,1.1131398125626362,2.9979429094279855,0.12768522,-0.7749003600000001,0.62536461,-4.15072,1.8006799999999998,-6.516019999999999,72.0
1774821799.8143497,2.2411346435546875e-05,2026-03-29T22:03:19.814,2026-03-29T18:03:19.814,-32079.96,-50696.775,-86465.34,-50776.02,-16942.905,-21492.675,3781.2599999999998,-45922.005,-1.1046408057389636,-1.2388774054230074,-2.3445669292625966,-3.2008639785828095,-3.589247439263604,-4.832864025298501,-2.52411724749619,-0.606828395816642,0.12768522,-0.7749003600000001,0.62536461,-4.15072,1.8006799999999998,-6.516019999999999,72.0
1774821799.8182063,0.003856658935546875,2026-03-29T22:03:19.818,2026-03-29T18:03:19.818,-32074.469999999998,-50690.97,-86461.92,-50769.945,-16938.63,-21493.215,3770.8199999999997,-45919.71,-2.6856087185341098,2.0678455790130723,3.272638256522556,3.4625220889255566,3.3280563188032524,1.4417087393563364,-5.039321761968995,-3.9220605423904726,0.12768522,-0.7749003600000001,0.62536461,-4.15072,1.8006799999999998,-6.516019999999999,72.0
1774821799.8182275,2.1219253540039062e-05,2026-03-29T22:03:19.818,2026-03-29T18:03:19.818,-32068.8,-50698.619999999995,-86472.9,-50779.305,-16945.965,-21495.239999999998,3744.0899999999997,-45902.744999999995,-2.928058781711462,4.492953217734193,7.482111772713779,8.556792748933644,8.71868204846813,7.072087890581695,-5.319807930864309,-5.381133833914204,0.12768522,-0.7749003600000001,0.62536461,-4.15072,1.8006799999999998,-6.516019999999999,72.0
1774821799.8222952,0.004067659378051758,2026-03-29T22:03:19.822,2026-03-29T18:03:19.822,-32066.954999999998,-50680.125,-86440.815,-50741.28,-16905.69,-21452.219999999998,3763.5299999999997,-45906.84,-1.6642463299881478,4.971134771232604,8.341914873339027,9.753612350124786,10.112747124551134,9.451584744615307,-3.2595059430921833,-4.292647548037193,0.12255828,-0.77136033,0.62719566,-7.08064,1.57178,-4.45592,72.0
1774821799.8223078,1.2636184692382812e-05,2026-03-29T22:03:19.822,2026-03-29T18:03:19.822,-32086.215,-50681.025,-86430.465,-50723.28,-16883.91,-21424.41,3802.3199999999997,-45936.765,0.5076055985990137,3.2862047250103834,5.422720998249638,6.516475293052878,6.888123973054494,7.480863936486274,0.2121041366214406,-1.1729683982405186,0.12255828,-0.77136033,0.62719566,-7.08064,1.57178,-4.45592,72.0
1774821799.8261385,0.0038306713104248047,2026-03-29T22:03:19.826,2026-03-29T18:03:19.826,-32095.035,-50704.515,-86468.44499999999,-50764.365,-16925.579999999998,-21464.415,3803.1749999999997,-45933.75,2.500495246982031,0.16969722474277757,0.02882822499885514,0.35372693264182253,0.5631008429190437,2.095694989628402,3.5619495044514657,2.493846331789512,0.12255828,-0.77136033,0.62719566,-7.08064,1.57178,-4.45592,72.0
1774821799.8261683,2.9802322387695312e-05,2026-03-29T22:03:19.826,2026-03-29T18:03:19.826,-32082.12,-50705.325,-86474.79,-50774.715,-16939.035,-21483.899999999998,3807.0899999999997,-45913.14,3.275762520365734,-3.018735335841055,-5.385879436714842,-5.884510372745647,-5.916613975063855,-4.171704297482229,5.339644767714493,4.9592535235223645,0.12255828,-0.77136033,0.62719566,-7.08064,1.57178,-4.45592,72.0
1774821799.830163,0.00399470329284668,2026-03-29T22:03:19.830,2026-03-29T18:03:19.830,-32069.204999999998,-50697.09,-86467.31999999999,-50772.104999999996,-16934.355,-21475.485,3805.245,-45898.155,2.377600138089912,-4.888781668541218,-8.345563227772484,-9.338291813323876,-9.563110537050468,-8.39516186449466,4.806323358178006,5.04486992031488,0.12255828,-0.77136033,0.62719566,-7.08064,1.57178,-4.45592,72.0
1774821799.830174,1.0967254638671875e-05,2026-03-29T22:03:19.830,2026-03-29T18:03:19.830,-32084.1,-50695.515,-86457.33,-50761.619999999995,-16922.88,-21461.085,3809.745,-45916.155,0.19275269033262316,-4.630406064592142,-7.500724589256241,-8.470439470482438,-8.746801508453732,-8.645090345044451,2.232942754895905,2.7102882362198333,0.12255828,-0.77136033,0.62719566,-7.08064,1.57178,-4.45592,72.0
1774821799.834345,0.004171133041381836,2026-03-29T22:03:19.834,2026-03-29T18:03:19.834,-32097.78,-50699.835,-86457.735,-50760.314999999995,-16922.745,-21465.719999999998,3791.97,-45932.174999999996,-2.2090783555504685,-2.367598507641951,-3.2572189168920667,-3.769169164860262,-3.945610774512452,-4.895625812451183,-1.2474672091185597,-0.9210638274988584,0.12255828,-0.77136033,0.62719566,-7.08064,1.57178,-4.45592,72.0
1774821799.8343668,2.1696090698242188e-05,2026-03-29T22:03:19.834,2026-03-29T18:03:19.834,-32091.254999999997,-50700.825,-86461.155,-50766.57,-16930.17,-21473.46,3756.33,-45925.965,-3.5919879162161674,0.9010679383602562,2.4137966516297733,2.509495559295261,2.5117519544126434,0.989943079655594,-4.149672332971862,-4.096264760654976,0.12255828,-0.77136033,0.62719566,-7.08064,1.57178,-4.45592,72.0
1774821799.838328,0.003961086273193359,2026-03-29T22:03:19.838,2026-03-29T18:03:19.838,-32084.28,-50697.765,-86459.895,-50767.965,-16931.07,-21470.895,3760.74,-45918.99,-3.181058047156994,3.746835700529272,6.898642749488355,7.429880862211564,7.578386698196454,6.183546359847621,-5.273334504715299,-5.276134797951256,0.12255828,-0.77136033,0.62719566,-7.08064,1.57178,-4.45592,72.0
1774821799.8383532,2.5272369384765625e-05,2026-03-29T22:03:19.838,2026-03-29T18:03:19.838,-32079.555,-50695.424999999996,-86458.455,-50764.5,-16928.505,-21472.605,3784.995,-45909.314999999995,-1.0851877175146944,4.940824547491962,8.161884907521541,8.768524888088455,8.945787770371815,8.268807885404215,-4.192362274272376,-3.8833375744447536,0.12255828,-0.77136033,0.62719566,-7.08064,1.57178,-4.45592,72.0
1774821799.8545058,0.016152620315551758,2026-03-29T22:03:19.854,2026-03-29T18:03:19.854,-32075.19,-50684.715,-86442.345,-50743.08,-16906.23,-21454.469999999998,3794.49,-45907.47,1.7107452577344147,3.9893729626521552,5.687761378305714,6.041424144213435,6.1198947675286615,6.392272508153906,-1.4010298592636643,-0.5912956343613238,0.11822479500000001,-0.77258103,0.628721535,-7.76734,1.49548,-3.7539599999999997,72.0
1774821799.8545663,6.0558319091796875e-05,2026-03-29T22:03:19.854,2026-03-29T18:03:19.854,-32078.295,-50685.39,-86442.25499999999,-50744.295,-16907.265,-21454.649999999998,3774.96,-45913.409999999996,3.802833094801095,1.3390994367901627,0.6984962444559969,0.6814099904238923,0.6037119075024208,1.6287650814642036,1.9232871137074203,2.992995990883539,0.11822479500000001,-0.77258103,0.628721535,-7.76734,1.49548,-3.7539599999999997,72.0
1774821799.8546567,9.036064147949219e-05,2026-03-29T22:03:19.854,2026-03-29T18:03:19.854,-32071.454999999998,-50686.515,-86449.59,-50755.32,-16918.245,-21464.82,3769.605,-45907.244999999995,4.064856611028713,-1.834236331735072,-4.447671210864975,-4.702373447878537,-4.885143073638389,-3.6046764990004325,4.421654756636143,5.106534155876483,0.11822479500000001,-0.77258103,0.628721535,-7.76734,1.49548,-3.7539599999999997,72.0
1774821799.854685,2.8371810913085938e-05,2026-03-29T22:03:19.854,2026-03-29T18:03:19.854,-32070.914999999997,-50693.4,-86457.915,-50763.195,-16925.085,-21467.565,3803.9849999999997,-45898.56,2.242258675052345,-4.152847171763345,-7.383372301535307,-7.605116494978477,-7.761133827614818,-6.776972597509052,5.103065109893406,4.69509237098041,0.11822479500000001,-0.77258103,0.628721535,-7.76734,1.49548,-3.7539599999999997,72.0
1774821799.8547184,3.337860107421875e-05,2026-03-29T22:03:19.854,2026-03-29T18:03:19.854,-32080.5,-50702.22,-86466.42,-50771.34,-16931.745,-21473.28,3816.45,-45903.24,-0.8652661362089321,-4.641271440077615,-6.840283597647902,-6.814196282949339,-6.811177472349267,-6.488545638415478,3.7230779758746864,1.9422691000279526,0.11822479500000001,-0.77258103,0.628721535,-7.76734,1.49548,-3.7539599999999997,72.0
1774821799.854746,2.765655517578125e-05,2026-03-29T22:03:19.854,2026-03-29T18:03:19.854,-32070.78,-50694.705,-86460.97499999999,-50766.075,-16928.595,-21473.954999999998,3798.765,-45896.625,-3.7487363619197005,-3.139888633740507,-3.2110899671076845,-2.9307309352952067,-2.723601821657686,-3.1121190497425273,0.8556120749921867,-1.803737471938684,0.11822479500000001,-0.77258103,0.628721535,-7.76734,1.49548,-3.7539599999999997,72.0
1774821799.854782,3.600120544433594e-05,2026-03-29T22:03:19.854,2026-03-29T18:03:19.854,-32062.905,-50686.064999999995,-86456.34,-50761.305,-16920.765,-21464.864999999998,3804.12,-45890.055,-4.916761633903115,-0.3505246495032467,1.6910978420710563,2.0078266414250656,2.334331251232588,1.4761302075388347,-2.3518392716161354,-4.68114530019784,0.11822479500000001,-0.77258103,0.628721535,-7.76734,1.49548,-3.7539599999999997,72.0
1774821799.8548083,2.6226043701171875e-05,2026-03-29T22:03:19.854,2026-03-29T18:03:19.854,-32069.204999999998,-50680.215,-86441.805,-50743.89,-16901.19,-21445.29,3827.3399999999997,-45900.27,-3.656593263018583,2.495107801247275,5.540400275115663,5.587673160995544,5.8515536773375025,4.912272701967477,-4.631636321994527,-5.232970478788742,0.11822479500000001,-0.77258103,0.628721535,-7.76734,1.49548,-3.7539599999999997,72.0
1774821799.8583703,0.0035619735717773438,2026-03-29T22:03:19.858,2026-03-29T18:03:19.858,-32074.605,-50690.43,-86450.58,-50752.17,-16910.864999999998,-21456.36,3807.3599999999997,-45903.06,-0.44483424594510257,4.186148646354488,6.61797393631832,6.213342030069022,6.23175370881075,5.56701143486252,-5.082005655311256,-3.1426489226194767,0.11822479500000001,-0.77258103,0.628721535,-7.76734,1.49548,-3.7539599999999997,72.0
1774821799.8583908,2.0503997802734375e-05,2026-03-29T22:03:19.858,2026-03-29T18:03:19.858,-32086.17,-50702.4,-86461.92,-50762.52,-16920.27,-21463.695,3786.075,-45909.9,3.220663015695041,4.05306115791433,4.597728969946613,3.8394634766151197,3.5395197219250547,3.3408770818103948,-3.5081457901379283,0.5835630016736989,0.11822479500000001,-0.77258103,0.628721535,-7.76734,1.49548,-3.7539599999999997,72.0
1774821799.8623128,0.003921985626220703,2026-03-29T22:03:19.862,2026-03-29T18:03:19.862,-32081.309999999998,-50706.134999999995,-86473.17,-50776.695,-16934.94,-21475.44,3789.045,-45901.305,5.515964065537508,2.2313773380393394,0.6299299312307484,-0.10615562430885093,-0.6250366118507077,-0.3659254013009301,-0.49899208570333115,4.092049528053986,0.11608857,-0.778745565,0.628721535,-5.70724,0.79352,-1.78542,72.0
1774821799.8623428,3.0040740966796875e-05,2026-03-29T22:03:19.862,2026-03-29T18:03:19.862,-32088.329999999998,-50704.875,-86469.75,-50773.365,-16933.77,-21477.69,3795.705,-45913.095,5.19220221503419,-0.43479683288121485,-3.2905509977633747,-3.5338502795744007,-4.0279316945495305,-3.467794236332594,2.7860372111423928,5.594406791095001,0.11608857,-0.778745565,0.628721535,-5.70724,0.79352,-1.78542,72.0
1774821799.8662255,0.0038826465606689453,2026-03-29T22:03:19.866,2026-03-29T18:03:19.866,-32071.59,-50696.415,-86465.295,-50771.159999999996,-16933.86,-21482.46,3780.495,-45898.244999999995,2.2398264959163825,-2.7894842813834586,-5.332774668119472,-4.792783769230987,-4.987794463643252,-4.339574226651494,5.046801251723029,4.271627969682142,0.11608857,-0.778745565,0.628721535,-5.70724,0.79352,-1.78542,72.0
1774821799.866243,1.7404556274414062e-05,2026-03-29T22:03:19.866,2026-03-29T18:03:19.866,-32074.245,-50699.564999999995,-86465.565,-50769.27,-16930.755,-21481.829999999998,3772.305,-45896.58,-2.0319364595010514,-3.8729205884085642,-4.702990057835807,-3.4836389299989565,-3.2214962616969323,-2.674430116728192,5.339375381804743,0.7155802919013221,0.11608857,-0.778745565,0.628721535,-5.70724,0.79352,-1.78542,72.0
1774821799.8703191,0.004076242446899414,2026-03-29T22:03:19.870,2026-03-29T18:03:19.870,-32074.515,-50701.095,-86466.19499999999,-50769.494999999995,-16929.36,-21479.715,3783.105,-45892.619999999995,-5.573029419272062,-3.314280715719063,-1.9578753570797403,-0.5755397411906842,0.08271697838565402,0.40147757580492605,3.4608588823025475,-3.328154644647875,0.11608857,-0.778745565,0.628721535,-5.70724,0.79352,-1.78542,72.0
1774821799.8703408,2.1696090698242188e-05,2026-03-29T22:03:19.870,2026-03-29T18:03:19.870,-32099.219999999998,-50700.509999999995,-86455.62,-50757.615,-16918.02,-21466.755,3788.73,-45919.89,-6.574281894927904,-1.4472605777171246,1.3693738205865869,2.2030908470284416,2.979199638800921,3.0059994084973587,0.07088874645348446,-5.808337099653065,0.11608857,-0.778745565,0.628721535,-5.70724,0.79352,-1.78542,72.0
1774821799.874235,0.0038940906524658203,2026-03-29T22:03:19.874,2026-03-29T18:03:19.874,-32102.055,-50698.305,-86452.47,-50756.534999999996,-16918.695,-21469.68,3763.4849999999997,-45929.564999999995,-4.383434115341946,0.8809590890961214,3.605726237027912,3.346056139442146,3.8621790768958943,3.587272132705039,-3.517299317490249,-5.3985004569928865,0.11608857,-0.778745565,0.628721535,-5.70724,0.79352,-1.78542,72.0
1774821799.8742497,1.4781951904296875e-05,2026-03-29T22:03:19.874,2026-03-29T18:03:19.874,-32082.3,-50688.405,-86444.19,-50746.994999999995,-16905.645,-21449.745,3761.8199999999997,-45914.67,0.10550543929596042,2.7011468514018513,3.788517342095944,2.381720999068765,2.344162813389653,1.813924335157155,-5.824239199844302,-2.195797805760618,0.11608857,-0.778745565,0.628721535,-5.70724,0.79352,-1.78542,72.0
1774821799.8810472,0.0067975521087646484,2026-03-29T22:03:19.881,2026-03-29T18:03:19.881,-32078.52,-50694.21,-86459.48999999999,-50762.88,-16920.855,-21460.545,3771.9449999999997,-45905.895,4.810990537109806,3.3297563090891718,2.0934903051785585,0.07983180773981985,-0.5605294469530148,-1.229246813455047,-5.802005806575849,2.2761065247577195,0.11608857,-0.778745565,0.628721535,-5.70724,0.79352,-1.78542,72.0
1774821799.881075,2.765655517578125e-05,2026-03-29T22:03:19.881,2026-03-29T18:03:19.881,-32059.215,-50684.67,-86456.06999999999,-50761.485,-16920.899999999998,-21462.84,3786.12,-45888.345,7.430375763798719,2.6190376107375046,-0.35670427289718787,-2.044644636681375,-3.0407301545035557,-3.6570655772549423,-3.308278674133854,5.786245903885699,0.11608857,-0.778745565,0.628721535,-5.70724,0.79352,-1.78542,72.0
1774821799.8810978,2.288818359375e-05,2026-03-29T22:03:19.881,2026-03-29T18:03:19.881,-32054.805,-50687.46,-86460.84,-50765.805,-16923.555,-21463.695,3820.185,-45877.275,6.564680977033113,0.9612896793215316,-2.1681197595514328,-2.639963554180175,-3.5424422985945077,-3.8768301628307293,0.7563145609165666,6.50055050329194,0.117248235,-0.78576459,0.6302474100000001,-3.8760399999999997,0.71722,-0.85456,72.0
1774821799.8811097,1.1920928955078125e-05,2026-03-29T22:03:19.881,2026-03-29T18:03:19.881,-32082.704999999998,-50703.39,-86468.08499999999,-50767.424999999996,-16922.655,-21462.165,3800.0249999999996,-45901.485,2.4526043676179743,-0.9258093625736075,-2.4496142629590323,-1.3208979151783782,-1.682827810598244,-1.5488893793560998,4.744717453725068,3.9276216040545595,0.117248235,-0.78576459,0.6302474100000001,-3.8760399999999997,0.71722,-0.85456,72.0
1774821799.8875237,0.006413936614990234,2026-03-29T22:03:19.887,2026-03-29T18:03:19.887,-32094.36,-50706.81,-86468.355,-50765.4,-16921.98,-21461.535,3796.02,-45912.015,-3.066833138079563,-2.316254415473072,-1.2626326191687292,1.0917527988565627,1.4936855678214342,2.137883306198101,6.914323613918899,-0.7772712706539429,0.117248235,-0.78576459,0.6302474100000001,-3.8760399999999997,0.71722,-0.85456,72.0
1774821799.887539,1.52587890625e-05,2026-03-29T22:03:19.887,2026-03-29T18:03:19.887,-32091.524999999998,-50713.56,-86479.83,-50776.29,-16934.76,-21475.89,3809.52,-45900.134999999995,-7.379297282116939,-2.751828232328891,0.4850650130841345,3.0400049076945463,4.077280497194133,5.062899790533728,6.184878556218826,-5.327693938439379,0.117248235,-0.78576459,0.6302474100000001,-3.8760399999999997,0.71722,-0.85456,72.0
1774821799.902157,0.014618158340454102,2026-03-29T22:03:19.902,2026-03-29T18:03:19.902,-32091.57,-50708.79,-86470.515,-50770.53,-16929.765,-21473.145,3791.52,-45900.134999999995,-8.336509754746432,-2.1735945465089204,1.621091642473333,3.151033539775612,4.378851425252611,5.347332195932972,2.67623969713415,-7.412693347345308,0.117248235,-0.78576459,0.6302474100000001,-3.8760399999999997,0.71722,-0.85456,72.0
1774821799.9021735,1.6450881958007812e-05,2026-03-29T22:03:19.902,2026-03-29T18:03:19.902,-32095.215,-50700.78,-86452.515,-50758.515,-16921.665,-21465.495,3770.145,-45911.924999999996,-5.32274390266898,-0.8831587602950023,1.4224413707727195,1.0928987917857358,1.943208474483767,2.4706707260634335,-2.241369097381777,-5.860390290756761,0.117248235,-0.78576459,0.6302474100000001,-3.8760399999999997,0.71722,-0.85456,72.0
1774821799.9021895,1.5974044799804688e-05,2026-03-29T22:03:19.902,2026-03-29T18:03:19.902,-32087.925,-50698.755,-86455.44,-50767.965,-16930.62,-21475.44,3768.2549999999997,-45906.93,0.38213067836365555,0.617488466435205,0.04932450521116241,-2.137135523902951,-2.0899380169641057,-2.3046432024648937,-6.459513672781934,-1.2759454457116028,0.117248235,-0.78576459,0.6302474100000001,-3.8760399999999997,0.71722,-0.85456,72.0
1774821799.902197,7.3909759521484375e-06,2026-03-29T22:03:19.902,2026-03-29T18:03:19.902,-32083.245,-50694.39,-86449.815,-50762.655,-16927.649999999998,-21474.315,3783.915,-45902.97,6.147049611276253,1.821501947132882,-1.5523105333865808,-4.690788588226157,-5.517106551900046,-6.485492282085628,-8.028523564148834,4.186379092113208,0.117248235,-0.78576459,0.6302474100000001,-3.8760399999999997,0.71722,-0.85456,72.0
1774821799.9022052,8.344650268554688e-06,2026-03-29T22:03:19.902,2026-03-29T18:03:19.902,-32067.899999999998,-50681.43,-86433.75,-50746.005,-16915.005,-21463.2,3797.595,-45888.435,9.209687160108865,2.3713725614922123,-2.2273371014480583,-4.886218503320766,-6.247852139005884,-7.636972565571998,-6.0620848334996325,7.835942668982997,0.117248235,-0.78576459,0.6302474100000001,-3.8760399999999997,0.71722,-0.85456,72.0
1774821799.9022117,6.4373016357421875e-06,2026-03-29T22:03:19.902,2026-03-29T18:03:19.902,-32072.085,-50685.884999999995,-86442.20999999999,-50753.835,-16920.675,-21466.079999999998,3784.185,-45891.09,8.00301860233445,2.1350127868705826,-1.3372496207256848,-2.218265206492558,-3.5082544217186324,-4.745988336481119,-1.228586239329856,7.766660845092581,0.117248235,-0.78576459,0.6302474100000001,-3.8760399999999997,0.71722,-0.85456,72.0
1774821799.9166095,0.014397859573364258,2026-03-29T22:03:19.916,2026-03-29T18:03:19.916,-32080.23,-50690.655,-86450.48999999999,-50760.405,-16924.454999999998,-21466.62,3775.77,-45901.125,2.9495588957381567,1.2089870590836316,0.7905393381437513,2.2154737372915068,1.5982361013129878,1.0855290466138008,4.439170663565698,3.838741148108902,0.12268035000000001,-0.78808392,0.633360195,-3.1283,1.6633399999999998,0.36624,72.0
1774821799.9166396,3.0040740966796875e-05,2026-03-29T22:03:19.916,2026-03-29T18:03:19.916,-32071.094999999998,-50692.095,-86454.675,-50758.74,-16918.47,-21458.295,3802.995,-45882.405,-3.6768405566338562,-0.1248178316708996,2.971583363606051,6.1606254916482825,6.5281065695260745,7.045399998817977,8.386929297629422,-2.179818655998956,0.12268035000000001,-0.78808392,0.633360195,-3.1283,1.6633399999999998,0.36624,72.0
1774821799.9166596,2.002716064453125e-05,2026-03-29T22:03:19.916,2026-03-29T18:03:19.916,-32063.715,-50700.869999999995,-86469.39,-50771.25,-16927.2,-21465.225,3814.9649999999997,-45861.75,-8.78205640434997,-1.4674445843252317,3.8027728921695982,7.3461267222852555,8.56417136124528,9.974453352231306,8.692119784238917,-7.4123848158992995,0.12268035000000001,-0.78808392,0.633360195,-3.1283,1.6633399999999998,0.36624,72.0
1774821799.916674,1.430511474609375e-05,2026-03-29T22:03:19.916,2026-03-29T18:03:19.916,-32073.254999999997,-50702.985,-86458.68,-50764.14,-16923.239999999998,-21461.219999999998,3795.21,-45874.17,-9.90418358958242,-2.3909157106992973,2.4932411490199553,4.743670773037326,6.280192791944585,8.023966754446166,5.006123940422122,-9.250611988920962,0.12268035000000001,-0.78808392,0.633360195,-3.1283,1.6633399999999998,0.36624,72.0
1774821799.9166856,1.1682510375976562e-05,2026-03-29T22:03:19.916,2026-03-29T18:03:19.916,-32074.605,-50682.509999999995,-86427.405,-50735.655,-16896.059999999998,-21434.715,3801.7349999999997,-45894.42,-6.401642506554232,-2.548569646071234,-0.5820174171546867,-0.735709744778431,0.4257564751462902,1.743581330860265,-1.1785599355916887,-6.6485446721258254,0.12268035000000001,-0.78808392,0.633360195,-3.1283,1.6633399999999998,0.36624,72.0
1774821799.9166937,8.106231689453125e-06,2026-03-29T22:03:19.916,2026-03-29T18:03:19.916,-32076.18,-50682.825,-86435.145,-50744.295,-16904.565,-21446.82,3811.095,-45895.365,0.19743765180778086,-1.7970357558889363,-3.9502788675109857,-6.533680559717137,-6.2844329558372145,-6.015239366725495,-7.113958911033505,-0.6934909753822494,0.12268035000000001,-0.78808392,0.633360195,-3.1283,1.6633399999999998,0.36624,72.0
1774821799.9167013,7.62939453125e-06,2026-03-29T22:03:19.916,2026-03-29T18:03:19.916,-32060.52,-50698.125,-86475.51,-50793.39,-16956.855,-21502.71,3797.37,-45867.555,6.869084659978357,-0.2920709129981731,-5.748364720355296,-9.64817161746429,-10.44060622402664,-11.407359075878635,-10.01634185969366,5.84989673707694,0.12268035000000001,-0.78808392,0.633360195,-3.1283,1.6633399999999998,0.36624,72.0
1774821799.9167073,5.9604644775390625e-06,2026-03-29T22:03:19.916,2026-03-29T18:03:19.916,-32044.454999999998,-50707.305,-86500.89,-50818.77,-16983.54,-21532.68,3771.72,-45842.534999999996,10.489805500092961,1.4984108441068587,-4.728193230837142,-8.177750564636169,-9.667735953747918,-11.507202100034233,-8.379757985938074,9.83032757377118,0.12268035000000001,-0.78808392,0.633360195,-3.1283,1.6633399999999998,0.36624,72.0
1774821799.9195497,0.002842426300048828,2026-03-29T22:03:19.919,2026-03-29T18:03:19.919,-32033.07,-50698.395,-86487.795,-50805.63,-16974.27,-21525.03,3757.23,-45828.945,9.305356303162101,2.9083468086730795,-1.0264164625325864,-2.415298774957556,-3.9377938137995687,-5.8710991001881085,-2.760083914793501,9.229085269573732,0.12268035000000001,-0.78808392,0.633360195,-3.1283,1.6633399999999998,0.36624,72.0
1774821799.9196784,0.00012874603271484375,2026-03-29T22:03:19.919,2026-03-29T18:03:19.919,-32054.445,-50689.845,-86460.93,-50769.134999999995,-16929.989999999998,-21470.895,3773.16,-45859.68,3.777937207882948,3.3085245785348825,3.7484547017969487,5.1163427135288675,4.245243238618045,3.076919285112516,4.379479468454628,4.173882484104288,0.12268035000000001,-0.78808392,0.633360195,-3.1283,1.6633399999999998,0.36624,72.0
1774821799.9223046,0.002626180648803711,2026-03-29T22:03:19.922,2026-03-29T18:03:19.922,-32083.425,-50682.33,-86433.705,-50733.99,-16889.715,-21424.23,3800.3849999999998,-45896.85,-3.596529217547653,2.3874075354046127,7.220338386497533,10.780002099720296,10.95121090473913,11.097819282836397,9.742576009976203,-3.0585643424423417,0.122863455,-0.78393354,0.6323226,-4.07442,1.77016,3.70818,72.0
1774821799.9223185,1.3828277587890625e-05,2026-03-29T22:03:19.922,2026-03-29T18:03:19.922,-32107.77,-50675.895,-86410.035,-50705.64,-16863.255,-21406.364999999998,3809.565,-45927.045,-9.427049731468513,0.3525867816284278,7.430204966858561,11.592078980362665,12.726191889029339,14.166477951226248,10.728354391632845,-9.07773168824643,0.122863455,-0.78393354,0.6323226,-4.07442,1.77016,3.70818,72.0
1774821799.9262233,0.0039048194885253906,2026-03-29T22:03:19.926,2026-03-29T18:03:19.926,-32093.954999999998,-50675.13,-86421.105,-50724.45,-16884.855,-21430.44,3807.9449999999997,-45913.59,-10.996944183004201,-2.0667133901992183,3.9087320917502764,6.777520378994739,8.363377080506703,10.49589285962427,6.7026626344775275,-10.976672788345695,0.122863455,-0.78393354,0.6323226,-4.07442,1.77016,3.70818,72.0
1774821799.9262345,1.1205673217773438e-05,2026-03-29T22:03:19.926,2026-03-29T18:03:19.926,-32079.059999999998,-50687.189999999995,-86448.69,-50754.645,-16917.12,-21463.335,3804.435,-45891.314999999995,-7.5326419422917095,-3.8623961861440588,-1.9393091018563438,-1.693094953146131,-0.36336478585800397,1.5360423458270291,-0.6140071651170078,-7.7348645978604385,0.122863455,-0.78393354,0.6323226,-4.07442,1.77016,3.70818,72.0
1774821799.933011,0.006776571273803711,2026-03-29T22:03:19.933,2026-03-29T18:03:19.933,-32065.245,-50697.36,-86475.915,-50781.735,-16940.655,-21483.405,3781.98,-45871.83,-0.5777272679845539,-4.1661056103268495,-7.393321489350129,-9.913991469663495,-9.423593208386409,-8.596752482472805,-7.8713506788600105,-0.7493084349303698,0.122863455,-0.78393354,0.6323226,-4.07442,1.77016,3.70818,72.0
1774821799.9330237,1.2636184692382812e-05,2026-03-29T22:03:19.933,2026-03-29T18:03:19.933,-32063.579999999998,-50705.189999999995,-86489.415,-50794.74,-16950.195,-21485.07,3752.415,-45864.36,6.705695499113536,-2.670849737698229,-9.696854015422272,-13.866369119535761,-14.414522398589758,-15.036108346589879,-11.627484148276022,6.776472530634153,0.122863455,-0.78393354,0.6323226,-4.07442,1.77016,3.70818,72.0
1774821799.9330456,2.193450927734375e-05,2026-03-29T22:03:19.933,2026-03-29T18:03:19.933,-32060.565,-50686.244999999995,-86458.00499999999,-50761.979999999996,-16919.19,-21463.469999999998,3771.045,-45865.259999999995,10.986657626490349,0.14991468031354765,-7.450066221184344,-11.39175506724664,-12.713407878651154,-14.523297430255244,-9.9924485734974,11.313593478169752,0.122863455,-0.78393354,0.6323226,-4.07442,1.77016,3.70818,72.0
1774821799.933053,7.3909759521484375e-06,2026-03-29T22:03:19.933,2026-03-29T18:03:19.933,-32085.989999999998,-50684.265,-86434.11,-50733.63,-16893.09,-21440.79,3820.095,-45891.765,10.295572915584618,3.163379790836283,-1.4106005249630453,-3.342745248782601,-4.839343134076162,-7.05430670733266,-3.5869179424379762,10.668372026578592,0.122863455,-0.78393354,0.6323226,-4.07442,1.77016,3.70818,72.0
1774821799.938492,0.005439043045043945,2026-03-29T22:03:19.938,2026-03-29T18:03:19.938,-32089.995,-50687.549999999996,-86441.715,-50747.085,-16912.665,-21461.895,3802.185,-45895.905,4.928799721743028,5.027347034347081,5.739356156884683,6.692752200030883,5.676982503536692,4.016091565156119,4.673595675204822,5.037820647362822,0.122863455,-0.78393354,0.6323226,-4.07442,1.77016,3.70818,72.0
1774821799.9385152,2.3126602172851562e-05,2026-03-29T22:03:19.938,2026-03-29T18:03:19.938,-32090.265,-50697.09,-86451.165,-50756.174999999996,-16920.72,-21463.065,3777.2549999999997,-45891.81,-2.6870505928720885,4.793224081746065,10.601364601522723,14.014121594859121,13.900245095105538,13.504915435880626,10.906766933288957,-3.0459213176058952,0.122863455,-0.78393354,0.6323226,-4.07442,1.77016,3.70818,72.0
1774821799.9432433,0.004728078842163086,2026-03-29T22:03:19.943,2026-03-29T18:03:19.943,-32084.414999999997,-50693.445,-86443.155,-50749.424999999996,-16914.825,-21449.61,3778.785,-45884.205,-9.10441111790383,2.3887278950016317,10.691498771427433,15.03197660219405,15.830902394906012,16.856168063299208,12.09844658657889,-9.867830632626418,0.11877411,-0.77978316,0.629576025,-4.852679999999999,0.16785999999999998,4.70008,72.0
1774821799.9432724,2.9087066650390625e-05,2026-03-29T22:03:19.943,2026-03-29T18:03:19.943,-32075.594999999998,-50688.09,-86451.165,-50749.74,-16908.93,-21447.27,3784.0049999999997,-45880.56,-11.424674047679666,-1.2655134472826137,5.703514266329183,9.030412693618395,10.357490053620317,12.344038461158672,7.5722829516805295,-12.247975763400422,0.11877411,-0.77978316,0.629576025,-4.852679999999999,0.16785999999999998,4.70008,72.0
1774821799.9475825,0.004310131072998047,2026-03-29T22:03:19.947,2026-03-29T18:03:19.947,-32074.289999999997,-50689.17,-86453.86499999999,-50750.955,-16909.11,-21450.51,3792.1949999999997,-45883.17,-8.609494742358404,-4.598407251541946,-2.236401846749554,-1.3995482026485189,-0.1359710528430677,1.9512033753461646,-0.6283234673177414,-9.02562959303005,0.11877411,-0.77978316,0.629576025,-4.852679999999999,0.16785999999999998,4.70008,72.0
1774821799.9475932,1.0728836059570312e-05,2026-03-29T22:03:19.947,2026-03-29T18:03:19.947,-32078.655,-50698.71,-86465.25,-50763.509999999995,-16920.765,-21461.355,3796.335,-45881.64,-1.9395623115050167,-6.068351746356923,-9.490027015508078,-11.498648937058524,-10.828526385812294,-9.520918180227522,-8.660494510502563,-1.6159110853424667,0.11877411,-0.77978316,0.629576025,-4.852679999999999,0.16785999999999998,4.70008,72.0
1774821799.95027,0.002676725387573242,2026-03-29T22:03:19.950,2026-03-29T18:03:19.950,-32072.715,-50698.08,-86469.795,-50774.22,-16933.95,-21472.559999999998,3786.795,-45870.84,5.578594716986905,-4.884318809993467,-12.596772289787758,-16.539228827875945,-16.706304850698515,-16.701175918567795,-12.69129875860434,6.624030620526666,0.11877411,-0.77978316,0.629576025,-4.852679999999999,0.16785999999999998,4.70008,72.0
1774821799.9502864,1.6450881958007812e-05,2026-03-29T22:03:19.950,2026-03-29T18:03:19.950,-32059.89,-50683.59,-86450.94,-50750.82,-16914.42,-21458.114999999998,3808.17,-45859.59,10.577887671842577,-1.4270081408409363,-9.937014342870478,-14.055643335492793,-14.933373832379026,-16.18881321814905,-10.7401750326229,11.929189751278127,0.11877411,-0.77978316,0.629576025,-4.852679999999999,0.16785999999999998,4.70008,72.0
1774821799.9544134,0.004127025604248047,2026-03-29T22:03:19.954,2026-03-29T18:03:19.954,-32063.625,-50682.33,-86444.37,-50736.645,-16901.64,-21452.805,3806.325,-45867.465,10.843350905492867,2.852587640634675,-2.5635944393196146,-5.0446106408110465,-6.21885492648998,-8.17145561205789,-3.662225510361354,11.85391745560975,0.11877411,-0.77978316,0.629576025,-4.852679999999999,0.16785999999999998,4.70008,72.0
1774821799.954436,2.2649765014648438e-05,2026-03-29T22:03:19.954,2026-03-29T18:03:19.954,-32063.175,-50686.11,-86448.375,-50739.03,-16905.78,-21458.745,3786.345,-45863.055,6.29077345416471,6.044285827678693,6.220903589028789,6.446826424190012,5.4785481715923865,3.652274022564816,5.22062082668336,6.396698326275161,0.11877411,-0.77978316,0.629576025,-4.852679999999999,0.16785999999999998,4.70008,72.0
1774821799.959788,0.005352020263671875,2026-03-29T22:03:19.959,2026-03-29T18:03:19.959,-32075.954999999998,-50688.09,-86436.22499999999,-50722.515,-16886.475,-21439.62,3791.205,-45873.854999999996,-1.0192475157585592,6.641181029832553,12.367390116472533,15.167930350552833,14.778176611567822,13.807595142313648,11.685011782911456,-1.99339171973692,0.11877411,-0.77978316,0.629576025,-4.852679999999999,0.16785999999999998,4.70008,72.0
1774821799.959816,2.7894973754882812e-05,2026-03-29T22:03:19.959,2026-03-29T18:03:19.959,-32084.55,-50687.235,-86434.47,-50721.975,-16883.774999999998,-21431.969999999998,3818.6099999999997,-45882.63,-7.82323544789434,4.259370779800501,12.96808375966082,17.088602418375906,17.379171963980262,17.608510265958603,12.627499545161552,-9.529015867097543,0.11877411,-0.77978316,0.629576025,-4.852679999999999,0.16785999999999998,4.70008,72.0
1774821799.9642205,0.004404544830322266,2026-03-29T22:03:19.964,2026-03-29T18:03:19.964,-32092.739999999998,-50709.869999999995,-86477.94,-50767.74,-16928.505,-21472.469999999998,3794.67,-45881.28,-11.117845466716242,-0.13266597810450417,7.638578781387117,11.270013175396922,12.06041237548399,13.337039101086173,7.567869131156853,-12.804207424326108,0.11657685,-0.779966265,0.6265853100000001,-4.4254,0.13734,5.997179999999999,72.0
1774821799.964248,2.7418136596679688e-05,2026-03-29T22:03:19.964,2026-03-29T18:03:19.964,-32087.475,-50708.295,-86479.73999999999,-50777.909999999996,-16938.72,-21479.13,3789.6299999999997,-45876.015,-9.485582203226897,-4.6064820156010065,-1.2658617405838228,0.3093819920206373,1.2435628914291854,3.015410222915678,-1.1003458055789572,-10.33603463606853,0.11657685,-0.779966265,0.6265853100000001,-4.4254,0.13734,5.997179999999999,72.0
1774821799.96767,0.0034220218658447266,2026-03-29T22:03:19.967,2026-03-29T18:03:19.967,-32089.32,-50709.78,-86476.095,-50776.695,-16937.28,-21480.57,3790.98,-45874.845,-3.6986633659716173,-7.1297560791703205,-9.712817539945684,-10.845577910628718,-10.13540725874029,-8.573352494671292,-9.245501815716494,-3.229836957935273,0.11657685,-0.779966265,0.6265853100000001,-4.4254,0.13734,5.997179999999999,72.0
1774821799.9676812,1.1205673217773438e-05,2026-03-29T22:03:19.967,2026-03-29T18:03:19.967,-32089.59,-50714.549999999996,-86481.18,-50786.505,-16948.26,-21490.695,3767.22,-45874.619999999995,3.65259866886824,-6.501562852888689,-13.84400632227491,-17.158390605021015,-16.907883216993845,-16.13198203399453,-12.979394666948114,5.327094516985195,0.11657685,-0.779966265,0.6265853100000001,-4.4254,0.13734,5.997179999999999,72.0
1774821799.9704957,0.0028145313262939453,2026-03-29T22:03:19.970,2026-03-29T18:03:19.970,-32067.719999999998,-50703.03,-86476.77,-50787.45,-16946.73,-21487.364999999998,3774.645,-45855.854999999996,9.325251740124294,-2.9307274146054207,-11.753473903954223,-15.794239455240454,-16.038795291880497,-16.29333540214619,-10.52848718859543,11.506073641806552,0.11657685,-0.779966265,0.6265853100000001,-4.4254,0.13734,5.997179999999999,72.0
1774821799.970518,2.2411346435546875e-05,2026-03-29T22:03:19.970,2026-03-29T18:03:19.970,-32050.98,-50686.47,-86461.29,-50771.295,-16928.325,-21470.13,3794.31,-45841.68,10.856111436328293,2.02442351611027,-4.365806171733276,-7.389873676847252,-7.985513836853386,-9.123944759367886,-3.0868465181980804,12.555800564536176,0.11657685,-0.779966265,0.6265853100000001,-4.4254,0.13734,5.997179999999999,72.0
1774821799.975717,0.005198955535888672,2026-03-29T22:03:19.975,2026-03-29T18:03:19.975,-32073.885,-50686.29,-86448.915,-50753.475,-16907.895,-21447.09,3816.045,-45862.335,7.628231035950328,6.143553187652655,4.989617521960059,4.263819808533648,3.5578026697098637,1.9858444306093477,5.764738724523193,8.02560151719398,0.11657685,-0.779966265,0.6265853100000001,-4.4254,0.13734,5.997179999999999,72.0
1774821799.9757383,2.1219253540039062e-05,2026-03-29T22:03:19.975,2026-03-29T18:03:19.975,-32076.765,-50684.939999999995,-86444.50499999999,-50746.68,-16902.135,-21442.86,3821.895,-45868.409999999996,1.1119260304753886,7.552236546715638,12.104028308036701,13.959353302797162,13.382608991478135,11.950540744174315,11.791472659541869,-0.04929698523116805,0.11657685,-0.779966265,0.6265853100000001,-4.4254,0.13734,5.997179999999999,72.0
1774821799.979005,0.0032668113708496094,2026-03-29T22:03:19.979,2026-03-29T18:03:19.979,-32065.785,-50692.005,-86460.93,-50765.895,-16924.14,-21468.78,3807.045,-45852.03,-5.809267930169999,5.586620173109713,13.803624395881226,17.42067923775363,17.138943653882283,16.34300327816969,12.146113880355166,-8.07200977610352,0.11657685,-0.779966265,0.6265853100000001,-4.4254,0.13734,5.997179999999999,72.0
1774821799.979026,2.09808349609375e-05,2026-03-29T22:03:19.979,2026-03-29T18:03:19.979,-32059.215,-50690.384999999995,-86462.145,-50772.33,-16931.07,-21475.305,3803.355,-45846.494999999995,-10.11690973217329,1.1104415073501843,9.3724208059365,13.19323316530381,13.267258134904253,13.371704443336876,6.727651963025349,-12.493583580202747,0.11657685,-0.779966265,0.6265853100000001,-4.4254,0.13734,5.997179999999999,72.0
1774821799.9886851,0.009659051895141602,2026-03-29T22:03:19.988,2026-03-29T18:03:19.988,-32070.914999999997,-50692.049999999996,-86452.65,-50763.78,-16923.149999999998,-21470.895,3792.33,-45853.064999999995,-9.973069259955484,-3.868973240404989,0.8427858155583137,3.2393168821936222,3.6290119056554193,4.594200027995931,-1.7980105365119399,-11.384699328782325,0.1135251,-0.780576615,0.62524254,-2.4263399999999997,-0.33571999999999996,6.683879999999999,72.0
1774821799.988704,1.8835067749023438e-05,2026-03-29T22:03:19.988,2026-03-29T18:03:19.988,-32070.285,-50690.97,-86449.41,-50757.884999999995,-16917.885,-21467.34,3785.805,-45851.805,-5.500851946778307,-7.112978523526789,-7.957721188153077,-7.995447482420793,-7.408830668553849,-5.906976083522274,-9.314643270353143,-5.273273913638121,0.1135251,-0.780576615,0.62524254,-2.4263399999999997,-0.33571999999999996,6.683879999999999,72.0
1774821799.98872,1.5974044799804688e-05,2026-03-29T22:03:19.988,2026-03-29T18:03:19.988,-32061.375,-50694.93,-86462.09999999999,-50769.854999999996,-16930.665,-21478.995,3779.0099999999998,-45836.955,1.2990776820006125,-7.171899318073224,-13.146507327593113,-15.590079415180314,-14.976185136684611,-13.447296658974935,-12.257099486014642,3.1131050411068,0.1135251,-0.780576615,0.62524254,-2.4263399999999997,-0.33571999999999996,6.683879999999999,72.0
1774821799.9887264,6.4373016357421875e-06,2026-03-29T22:03:19.988,2026-03-29T18:03:19.988,-32073.39,-50694.705,-86453.19,-50759.595,-16924.184999999998,-21474.899999999998,3771.6749999999997,-45855.27,7.444897034983051,-4.041803708900786,-12.511490803104252,-16.313244222229773,-15.859963284019361,-14.845337724626868,-9.31774173877055,10.071726787969363,0.1135251,-0.780576615,0.62524254,-2.4263399999999997,-0.33571999999999996,6.683879999999999,72.0
1774821799.9938688,0.0051424503326416016,2026-03-29T22:03:19.993,2026-03-29T18:03:19.993,-32079.69,-50693.354999999996,-86448.015,-50755.095,-16919.595,-21471.704999999998,3782.52,-45861.345,10.281178040053224,0.8441027972375847,-6.449569021261285,-9.988983322876935,-9.859015226738352,-9.757147548305428,-2.033550748616188,12.563617548707688,0.1135251,-0.780576615,0.62524254,-2.4263399999999997,-0.33571999999999996,6.683879999999999,72.0
1774821799.9939072,3.838539123535156e-05,2026-03-29T22:03:19.993,2026-03-29T18:03:19.993,-32091.21,-50700.465,-86452.29,-50754.284999999996,-16915.905,-21469.86,3796.6949999999997,-45865.89,8.624999241512745,5.280858179030892,2.2770901667251473,0.5082472042876583,0.2315881058130343,-0.6852792648706814,6.013032370491145,9.54011696246712,0.1135251,-0.780576615,0.62524254,-2.4263399999999997,-0.33571999999999996,6.683879999999999,72.0
1774821799.9991412,0.0052340030670166016,2026-03-29T22:03:19.999,2026-03-29T18:03:19.999,-32097.105,-50700.015,-86450.58,-50752.034999999996,-16911.585,-21462.614999999998,3806.685,-45871.965,3.257173510498954,7.300846216341146,9.820274166307808,10.580293911154383,9.942640501511523,8.266529561701907,10.965884675851228,2.3790054735958455,0.1135251,-0.780576615,0.62524254,-2.4263399999999997,-0.33571999999999996,6.683879999999999,72.0
1774821799.9991665,2.5272369384765625e-05,2026-03-29T22:03:19.999,2026-03-29T18:03:19.999,-32078.789999999997,-50691.6,-86446.665,-50747.895,-16906.815,-21451.454999999998,3809.835,-45859.185,-3.444183901863271,6.058260624625389,12.958658221838604,15.932197095899259,15.12487450775768,13.267294884579249,10.558692076545102,-5.748325398298352,0.1135251,-0.780576615,0.62524254,-2.4263399999999997,-0.33571999999999996,6.683879999999999,72.0
1774821799.999195,2.86102294921875e-05,2026-03-29T22:03:19.999,2026-03-29T18:03:19.999,-32073.39,-50692.725,-86445.58499999999,-50748.165,-16909.739999999998,-21457.44,3807.45,-45848.52,-8.556826943764397,2.1856644576517286,10.474789323336775,14.400387922164207,13.718914676720418,12.397743632407446,5.162151475604793,-11.286046468114865,0.1135251,-0.780576615,0.62524254,-2.4263399999999997,-0.33571999999999996,6.683879999999999,72.0
1774821799.9992075,1.239776611328125e-05,2026-03-29T22:03:19.999,2026-03-29T18:03:19.999,-32085.449999999997,-50703.57,-86453.28,-50755.14,-16914.239999999998,-21461.489999999998,3789.0899999999997,-45855.134999999995,-9.888764330712416,-2.5289632352992513,3.607627207960894,6.806876629624765,6.548702229464747,6.354291854186427,-2.4741875016304484,-11.851682136382989,0.1135251,-0.780576615,0.62524254,-2.4263399999999997,-0.33571999999999996,6.683879999999999,72.0
1774821800.0040157,0.004808187484741211,2026-03-29T22:03:20.004,2026-03-29T18:03:20.004,-32076.0,-50696.685,-86452.515,-50756.04,-16914.465,-21457.665,3772.89,-45851.805,-6.918720535575248,-5.979485715646763,-4.575624820919267,-3.4856246192004012,-3.1523736711431587,-2.0204520974755784,-8.624534598348701,-7.2597224734567245,0.10961886,-0.774473115,0.623228385,-5.38678,0.73248,8.42352,72.0
1774821800.0040305,1.4781951904296875e-05,2026-03-29T22:03:20.004,2026-03-29T18:03:20.004,-32063.805,-50697.494999999995,-86464.08,-50767.47,-16923.645,-21461.219999999998,3777.21,-45841.049999999996,-0.9991162908290668,-6.695771055738021,-10.566001011842342,-12.076131594240096,-11.214374092932037,-9.089295260655739,-10.41745404025835,0.4276935647703603,0.10961886,-0.774473115,0.623228385,-5.38678,0.73248,8.42352,72.0
1774821800.009699,0.00566864013671875,2026-03-29T22:03:20.009,2026-03-29T18:03:20.009,-32061.105,-50705.82,-86472.855,-50773.994999999995,-16927.785,-21468.285,3784.68,-45823.5,5.257323896257691,-4.476188048858339,-11.923405598771334,-15.408360621093335,-14.325323070746476,-12.005251945844853,-7.188934093427166,7.830328817573107,0.10961886,-0.774473115,0.623228385,-5.38678,0.73248,8.42352,72.0
1774821800.0097287,2.956390380859375e-05,2026-03-29T22:03:20.009,2026-03-29T18:03:20.009,-32034.96,-50695.83,-86477.08499999999,-50785.155,-16943.265,-21487.184999999998,3797.055,-45783.54,9.130741907879283,-0.4232315932291846,-8.258815478241416,-12.22922031836751,-11.375095529282987,-9.83723445831736,-0.714214820130705,11.739463849676717,0.10961886,-0.774473115,0.623228385,-5.38678,0.73248,8.42352,72.0
1774821800.01359,0.0038614273071289062,2026-03-29T22:03:20.013,2026-03-29T18:03:20.013,-32020.065,-50687.28,-86480.595,-50793.165,-16950.465,-21496.905,3799.305,-45773.145,8.978713609291487,3.6082680894002417,-1.2997169024089785,-4.033047351037607,-3.8133868134141577,-3.803884402885369,5.754281317831883,10.510142954153858,0.10961886,-0.774473115,0.623228385,-5.38678,0.73248,8.42352,72.0
1774821800.0136015,1.1444091796875e-05,2026-03-29T22:03:20.013,2026-03-29T18:03:20.013,-32056.515,-50681.655,-86445.765,-50752.439999999995,-16912.079999999998,-21466.8,3798.1349999999998,-45820.17,4.935591967763468,5.872424893128637,5.935960209280465,5.649498549880921,5.0693501489700745,3.398665394043244,9.126884640501556,4.751692869195307,0.10961886,-0.774473115,0.623228385,-5.38678,0.73248,8.42352,72.0
1774821800.0136125,1.0967254638671875e-05,2026-03-29T22:03:20.013,2026-03-29T18:03:20.013,-32093.235,-50678.729999999996,-86412.78,-50712.255,-16873.739999999998,-21431.295,3810.1949999999997,-45868.049999999996,-1.172719091562655,5.497396326113163,10.457441487350787,12.776014066849157,11.578860085331284,8.80956165429547,7.964504030826304,-2.9724590992154636,0.10961886,-0.774473115,0.623228385,-5.38678,0.73248,8.42352,72.0
1774821800.0136185,5.9604644775390625e-06,2026-03-29T22:03:20.013,2026-03-29T18:03:20.013,-32095.035,-50687.28,-86428.935,-50727.915,-16886.79,-21439.079999999998,3798.1349999999998,-45869.085,-6.651621913143922,2.8145964845299747,10.531272314784117,14.471274994324327,13.142779165088372,10.407777977984908,3.0920368883520846,-9.288751920050574,0.10961886,-0.774473115,0.623228385,-5.38678,0.73248,8.42352,72.0
1774821800.0204344,0.006815910339355469,2026-03-29T22:03:20.020,2026-03-29T18:03:20.020,-32087.565,-50688.045,-86436.58499999999,-50733.81,-16894.305,-21448.395,3780.495,-45863.505,-9.128699672345046,-0.8687353460414745,6.322012547453717,10.168959062618118,9.30172532720095,7.826021958271506,-2.9237547997267264,-11.489809649878604,0.10961886,-0.774473115,0.623228385,-5.38678,0.73248,8.42352,72.0
1774821800.0204515,1.71661376953125e-05,2026-03-29T22:03:20.020,2026-03-29T18:03:20.020,-32086.98,-50697.36,-86454.495,-50751.09,-16908.48,-21460.635,3786.8849999999998,-45861.57,-7.585559987817125,-3.9130954806988747,-0.2792195900379728,1.7734461723853208,1.7987899605481377,2.3465676707596668,-7.120829642251856,-8.696041110089846,0.10961886,-0.774473115,0.623228385,-5.38678,0.73248,8.42352,72.0
1774821800.0224843,0.002032756805419922,2026-03-29T22:03:20.022,2026-03-29T18:03:20.022,-32101.155,-50713.38,-86472.315,-50771.79,-16927.92,-21476.43,3741.12,-45868.455,-2.7796514839200115,-5.08667355059192,-6.512902298538679,-7.186754767533667,-6.216163941629051,-3.7367417524481543,-7.608303067372238,-2.20375720112858,0.10900851,-0.76818651,0.621397335,-9.58328,-0.8087799999999999,10.34628,72.0
1774821800.0224931,8.821487426757812e-06,2026-03-29T22:03:20.022,2026-03-29T18:03:20.022,-32095.53,-50711.04,-86467.14,-50763.869999999995,-16919.28,-21470.489999999998,3765.015,-45854.189999999995,3.120654373676837,-4.062891740103945,-9.902916038026493,-13.036599326747925,-11.502556762794903,-8.072677723446857,-4.422733845770084,5.116341365169588,0.10900851,-0.76818651,0.621397335,-9.58328,-0.8087799999999999,10.34628,72.0
1774821800.0265195,0.0040264129638671875,2026-03-29T22:03:20.026,2026-03-29T18:03:20.026,-32070.87,-50698.485,-86465.295,-50767.02,-16921.17,-21470.265,3803.22,-45829.799999999996,7.51486768522638,-1.475066977414496,-9.222906092887392,-13.448298378894838,-12.019979517086105,-9.130063062861938,0.6157202356108438,10.091333576352916,0.10900851,-0.76818651,0.621397335,-9.58328,-0.8087799999999999,10.34628,72.0
1774821800.026542,2.2411346435546875e-05,2026-03-29T22:03:20.026,2026-03-29T18:03:20.026,-32037.254999999997,-50673.24,-86445.09,-50745.78,-16900.155,-21450.105,3818.115,-45801.63,8.521179319799547,1.4534085988343182,-4.910129729252058,-8.352236202764901,-7.691042245887741,-6.689554211917636,4.918488329369534,10.62404653087897,0.10900851,-0.76818651,0.621397335,-9.58328,-0.8087799999999999,10.34628,72.0
1774821800.044292,0.017750024795532227,2026-03-29T22:03:20.044,2026-03-29T18:03:20.044,-32050.934999999998,-50690.655,-86463.675,-50765.354999999996,-16918.29,-21462.93,3817.035,-45805.365,5.787776461186195,3.494757422146886,1.194766133402876,0.08284031715634649,-0.36517668234246853,-1.8223396923679742,6.457993234415048,6.577297311315685,0.10900851,-0.76818651,0.621397335,-9.58328,-0.8087799999999999,10.34628,72.0
1774821800.0443108,1.8835067749023438e-05,2026-03-29T22:03:20.044,2026-03-29T18:03:20.044,-32077.125,-50703.659999999996,-86467.23,-50768.189999999995,-16922.88,-21470.805,3794.22,-45830.744999999995,0.6120286204538707,3.9346429025791645,6.634135491986117,8.369028363294644,6.967862530229963,3.5780724344655552,4.728169605113153,-0.20846782062787533,0.10900851,-0.76818651,0.621397335,-9.58328,-0.8087799999999999,10.34628,72.0
1774821800.0443268,1.5974044799804688e-05,2026-03-29T22:03:20.044,2026-03-29T18:03:20.044,-32076.045,-50704.65,-86463.855,-50756.939999999995,-16914.375,-21468.69,3788.5499999999997,-45828.0,-4.671451768513578,2.8022574777841927,9.310096846610373,13.131145188229288,11.383044454939906,7.507847985706549,0.8784415573809107,-6.7530787904807,0.10900851,-0.76818651,0.621397335,-9.58328,-0.8087799999999999,10.34628,72.0
1774821800.0443337,6.9141387939453125e-06,2026-03-29T22:03:20.044,2026-03-29T18:03:20.044,-32078.34,-50709.645,-86469.03,-50760.63,-16915.995,-21467.475,3797.5049999999997,-45822.735,-7.746810259671097,0.7507417793451266,8.271001161532848,12.469904322874308,11.167000707786277,8.55560352542968,-2.991618595395824,-10.248248767091534,0.10900851,-0.76818651,0.621397335,-9.58328,-0.8087799999999999,10.34628,72.0
1774821800.0443408,7.152557373046875e-06,2026-03-29T22:03:20.044,2026-03-29T18:03:20.044,-32093.73,-50708.025,-86460.61499999999,-50752.439999999995,-16905.059999999998,-21457.844999999998,3807.315,-45839.744999999995,-7.3378919498021915,-1.3074843187071243,4.025942105350249,6.712523200151305,6.468452075174118,6.373962070543104,-4.963368575044777,-9.264423597463008,0.10900851,-0.76818651,0.621397335,-9.58328,-0.8087799999999999,10.34628,72.0
1774821800.0443473,6.4373016357421875e-06,2026-03-29T22:03:20.044,2026-03-29T18:03:20.044,-32102.864999999998,-50707.305,-86460.61499999999,-50757.39,-16907.94,-21459.87,3807.72,-45854.909999999996,-3.7410908641348164,-2.6110759745627785,-1.7023114641966413,-1.742431175509752,-0.7869782292559122,1.7835083423490292,-4.251607958050201,-4.333468819628047,0.10900851,-0.76818651,0.621397335,-9.58328,-0.8087799999999999,10.34628,72.0
1774821800.0443616,1.430511474609375e-05,2026-03-29T22:03:20.044,2026-03-29T18:03:20.044,-32082.39,-50706.494999999995,-86472.72,-50776.29,-16927.47,-21477.78,3794.22,-45832.545,1.3542823595076643,-2.8191249254828157,-6.667214390025713,-9.415654978206396,-7.673745157958939,-3.515772570637235,-1.5045648323544132,2.3292575404348272,0.105163305,-0.7763652,0.61633143,-13.00152,-4.02864,11.24662,72.0
1774821800.0443676,5.9604644775390625e-06,2026-03-29T22:03:20.044,2026-03-29T18:03:20.044,-32062.815,-50695.83,-86464.98,-50771.159999999996,-16921.845,-21465.855,3795.5699999999997,-45814.68,5.658265436600936,-2.0514961731261723,-8.960553978153618,-13.1694976747952,-11.429074331558699,-7.536791257870645,1.6557207672230434,7.821521096951765,0.105163305,-0.7763652,0.61633143,-13.00152,-4.02864,11.24662,72.0
1774821800.0490088,0.004641294479370117,2026-03-29T22:03:20.049,2026-03-29T18:03:20.049,-32067.629999999997,-50693.04,-86456.52,-50760.63,-16911.585,-21454.92,3801.06,-45817.83,7.313779577124904,-0.7350303917601717,-7.7270025885554,-11.486238886216476,-10.54909631485406,-8.71769050757006,3.5592620209644776,9.820519267774113,0.105163305,-0.7763652,0.61633143,-13.00152,-4.02864,11.24662,72.0
1774821800.0491028,9.393692016601562e-05,2026-03-29T22:03:20.049,2026-03-29T18:03:20.049,-32083.02,-50688.494999999995,-86441.94,-50743.305,-16897.95,-21450.51,3797.955,-45837.314999999995,5.702699828185637,0.6276318313445494,-3.4742622768452893,-5.0840485449157145,-5.390200473494429,-6.517981570600408,3.363291226711416,7.565439241662508,0.105163305,-0.7763652,0.61633143,-13.00152,-4.02864,11.24662,72.0
1774821800.0522897,0.003186941146850586,2026-03-29T22:03:20.052,2026-03-29T18:03:20.052,-32080.274999999998,-50689.89,-86446.34999999999,-50746.409999999996,-16903.125,-21460.32,3787.02,-45837.134999999995,1.672134198116029,1.643554445011541,2.1290347534961303,3.3811498253343935,1.9649050766727774,-1.6764169599649095,1.4205009056360576,2.140690460120642,0.105163305,-0.7763652,0.61633143,-13.00152,-4.02864,11.24662,72.0
1774821800.0523012,1.1444091796875e-05,2026-03-29T22:03:20.052,2026-03-29T18:03:20.052,-32081.219999999998,-50703.345,-86461.37999999999,-50755.32,-16909.38,-21463.38,3783.7349999999997,-45829.799999999996,-2.8997308108947957,2.1047359589601466,6.89145449312661,10.409095908570379,8.532711703514252,3.9974302576577667,-1.0180753631322095,-4.042205621085906,0.105163305,-0.7763652,0.61633143,-13.00152,-4.02864,11.24662,72.0
1774821800.058018,0.005716800689697266,2026-03-29T22:03:20.058,2026-03-29T18:03:20.058,-32074.695,-50708.295,-86466.735,-50756.985,-16909.559999999998,-21461.219999999998,3794.895,-45812.835,-5.979512307934793,1.9670150083665567,8.938712372551807,13.098789060783348,11.627758434396899,8.266088368945276,-2.5593333404927203,-8.317679540658684,0.105163305,-0.7763652,0.61633143,-13.00152,-4.02864,11.24662,72.0
1774821800.058037,1.9073486328125e-05,2026-03-29T22:03:20.058,2026-03-29T18:03:20.058,-32078.114999999998,-50705.595,-86457.42,-50746.86,-16899.795,-21452.219999999998,3797.145,-45813.78,-6.287085246605116,1.2959367865939915,7.443282142840737,10.349096391181872,9.959437700265422,9.333004127085658,-2.4435028666626555,-8.916142229499927,0.105163305,-0.7763652,0.61633143,-13.00152,-4.02864,11.24662,72.0
1774821800.0580573,2.0265579223632812e-05,2026-03-29T22:03:20.058,2026-03-29T18:03:20.058,-32075.19,-50704.695,-86469.795,-50773.32,-16926.255,-21471.704999999998,3785.895,-45815.174999999996,-3.828646650664168,0.23802497465817005,2.963895696417679,3.317635673216695,4.1792426563445595,6.607212438038168,-0.9145130750955789,-5.694562701730315,0.105163305,-0.7763652,0.61633143,-13.00152,-4.02864,11.24662,72.0
1774821800.0580678,1.049041748046875e-05,2026-03-29T22:03:20.058,2026-03-29T18:03:20.058,-32064.614999999998,-50699.115,-86484.33,-50798.564999999995,-16950.059999999998,-21490.739999999998,3788.5049999999997,-45814.86,0.16809197189587985,-0.9711960401232591,-2.7474033751021243,-5.058068481584425,-3.3586867867805013,1.0337744072970014,0.9937449607779472,-0.1470848476490223,0.105163305,-0.7763652,0.61633143,-13.00152,-4.02864,11.24662,72.0
1774821800.0637348,0.005666971206665039,2026-03-29T22:03:20.063,2026-03-29T18:03:20.063,-32078.52,-50707.305,-86484.59999999999,-50792.625,-16943.985,-21492.945,3781.2149999999997,-45824.805,3.8604655171750646,-2.00191518642312,-7.4140958618368265,-11.284002371527516,-9.544938019032454,-5.195188469505629,2.103191932694331,5.285967868833837,0.10717746,-0.792661545,0.61352382,-5.21892,-3.64714,12.3606,72.0
1774821800.0637465,1.1682510375976562e-05,2026-03-29T22:03:20.063,2026-03-29T18:03:20.063,-32095.98,-50710.634999999995,-86468.985,-50767.424999999996,-16917.93,-21471.885,3773.8799999999997,-45839.475,5.641608841071225,-2.4823063720728524,-9.134109044308742,-12.770383038379851,-11.795288596671558,-9.485567297746627,1.7845015797833168,8.291835219812729,0.10717746,-0.792661545,0.61352382,-5.21892,-3.64714,12.3606,72.0
1774821800.0680635,0.004317045211791992,2026-03-29T22:03:20.068,2026-03-29T18:03:20.068,-32088.059999999998,-50720.085,-86487.03,-50786.82,-16939.079999999998,-21492.63,3756.7349999999997,-45827.729999999996,4.84175405961796,-2.128674757758447,-7.158502382344016,-8.91735152302826,-9.138086042324632,-9.926189794928007,0.3020045146018617,7.669341157119826,0.10717746,-0.792661545,0.61352382,-5.21892,-3.64714,12.3606,72.0
1774821800.068074,1.049041748046875e-05,2026-03-29T22:03:20.068,2026-03-29T18:03:20.068,-32081.76,-50715.314999999995,-86481.0,-50780.52,-16934.94,-21484.755,3761.7749999999996,-45819.36,1.973016770808066,-0.9098283657794408,-2.2290954358485227,-1.3658741998922816,-2.646732517581779,-6.157388169015799,-1.3742810438412327,3.804975343255785,0.10717746,-0.792661545,0.61352382,-5.21892,-3.64714,12.3606,72.0
1774821800.0768363,0.008762359619140625,2026-03-29T22:03:20.076,2026-03-29T18:03:20.076,-32059.71,-50688.9,-86456.565,-50755.275,-16911.54,-21466.26,3795.8849999999998,-45803.97,-1.5678739822279046,0.848197471947629,3.6828852722823497,6.696109630949112,4.981708778775367,0.3797551029798066,-2.1664324800242345,-1.545525821531554,0.10717746,-0.792661545,0.61352382,-5.21892,-3.64714,12.3606,72.0
1774821800.0768578,2.1457672119140625e-05,2026-03-29T22:03:20.076,2026-03-29T18:03:20.076,-32063.489999999998,-50675.534999999996,-86430.645,-50724.72,-16878.69,-21434.355,3801.7799999999997,-45820.305,-4.175294517638462,2.508125584539221,8.155582265575516,11.881601098136672,10.543276166810449,6.972405222440037,-1.541794906371451,-6.053072425634231,0.10717746,-0.792661545,0.61352382,-5.21892,-3.64714,12.3606,72.0
1774821800.0768812,2.3365020751953125e-05,2026-03-29T22:03:20.076,2026-03-29T18:03:20.076,-32071.77,-50672.52,-86420.025,-50712.525,-16863.48,-21416.085,3786.345,-45832.545,-4.763330759337331,3.343785883724254,9.31026841718828,12.035525830704726,11.678846682558438,10.761789072018432,0.15964220268618765,-7.828589627062468,0.10717746,-0.792661545,0.61352382,-5.21892,-3.64714,12.3606,72.0
1774821800.076892,1.0728836059570312e-05,2026-03-29T22:03:20.076,2026-03-29T18:03:20.076,-32058.809999999998,-50667.165,-86416.83,-50716.395,-16868.88,-21413.655,3814.605,-45817.38,-3.216245634295879,2.8658712261990718,6.611354126639876,7.139994230459672,7.887367093300527,9.998628949434613,1.9147926391701864,-6.213365848232274,0.10717746,-0.792661545,0.61352382,-5.21892,-3.64714,12.3606,72.0
1774821800.0785565,0.0016646385192871094,2026-03-29T22:03:20.078,2026-03-29T18:03:20.078,-32069.34,-50693.895,-86449.995,-50756.534999999996,-16910.37,-21448.17,3818.79,-45808.74,-0.3749595922688265,1.100940461605961,1.1263320621638109,-0.6914946989036443,0.7590484736498432,4.869154733114108,2.61706650621432,-2.016568667117296,0.10717746,-0.792661545,0.61352382,-5.21892,-3.64714,12.3606,72.0
1774821800.0785742,1.7642974853515625e-05,2026-03-29T22:03:20.078,2026-03-29T18:03:20.078,-32067.765,-50706.045,-86472.94499999999,-50776.515,-16930.035,-21472.469999999998,3832.6949999999997,-45797.895,2.405043421604861,-1.3325063362688068,-4.885387414514102,-8.126094660821604,-6.6854459248891,-2.506496236076541,1.7416181936124906,2.8820920213118653,0.10717746,-0.792661545,0.61352382,-5.21892,-3.64714,12.3606,72.0
1774821800.0825713,0.003997087478637695,2026-03-29T22:03:20.082,2026-03-29T18:03:20.082,-32063.445,-50713.29,-86492.87999999999,-50793.93,-16944.03,-21487.95,3821.7599999999998,-45791.82,3.8969705618449964,-3.426796840562459,-8.902552272990363,-12.036335122432472,-11.278316414244474,-8.945406146611445,-0.3109456890462024,6.372432103421837,0.11242647,-0.796323645,0.617124885,-2.48738,-2.2889999999999997,10.7583,72.0
1774821800.0825872,1.5974044799804688e-05,2026-03-29T22:03:20.082,2026-03-29T18:03:20.082,-32060.835,-50708.295,-86487.39,-50788.17,-16940.204999999998,-21486.6,3781.17,-45799.064999999995,3.543003432038562,-4.2082049274432265,-9.208444102287016,-10.825178347376518,-11.063490142453162,-11.58735993793977,-2.402201507582229,7.02207656365699,0.11242647,-0.796323645,0.617124885,-2.48738,-2.2889999999999997,10.7583,72.0
1774821800.086725,0.004137754440307617,2026-03-29T22:03:20.086,2026-03-29T18:03:20.086,-32068.53,-50706.314999999995,-86472.72,-50769.854999999996,-16921.575,-21466.305,3784.5,-45806.13,1.6541996303628799,-3.199545793088202,-5.6378940703790486,-5.085252738902037,-6.142733179389011,-9.185819644242365,-3.2847024373017435,4.662533688756861,0.11242647,-0.796323645,0.617124885,-2.48738,-2.2889999999999997,10.7583,72.0
1774821800.0867343,9.298324584960938e-06,2026-03-29T22:03:20.086,2026-03-29T18:03:20.086,-32091.975,-50716.619999999995,-86472.98999999999,-50767.424999999996,-16918.92,-21465.045,3778.9649999999997,-45815.985,-0.7966321464334601,-0.6980594922599243,0.32665133651134703,2.6833761648019046,1.3632298730828052,-2.7122325233351954,-2.32630786921114,0.414198653582533,0.11242647,-0.796323645,0.617124885,-2.48738,-2.2889999999999997,10.7583,72.0
1774821800.091915,0.0051805973052978516,2026-03-29T22:03:20.091,2026-03-29T18:03:20.091,-32099.67,-50700.96,-86452.245,-50745.915,-16898.625,-21450.96,3775.545,-45834.84,-2.6657561366675555,2.288324660316865,6.167215285670314,9.165028239187542,8.228072085197725,5.02584709328777,0.08193788713049467,-3.8401702413843073,0.11242647,-0.796323645,0.617124885,-2.48738,-2.2889999999999997,10.7583,72.0
1774821800.091931,1.621246337890625e-05,2026-03-29T22:03:20.091,2026-03-29T18:03:20.091,-32089.14,-50697.585,-86451.56999999999,-50750.955,-16903.665,-21456.09,3782.25,-45826.695,-3.168943314608458,4.449245705048598,9.399427151755189,11.651292287936812,11.51442109061682,10.608754183354664,2.6821213322891087,-6.28832654270971,0.11242647,-0.796323645,0.617124885,-2.48738,-2.2889999999999997,10.7583,72.0
1774821800.0946336,0.002702474594116211,2026-03-29T22:03:20.094,2026-03-29T18:03:20.094,-32081.489999999998,-50701.994999999995,-86464.845,-50765.715,-16914.42,-21458.024999999998,3801.06,-45815.534999999996,-2.206806012528583,4.75793090616308,8.64159586677569,9.180552743170683,9.843042062330749,11.534153163409412,4.008804588825285,-5.960152966267536,0.11242647,-0.796323645,0.617124885,-2.48738,-2.2889999999999997,10.7583,72.0
1774821800.0946443,1.0728836059570312e-05,2026-03-29T22:03:20.094,2026-03-29T18:03:20.094,-32077.215,-50704.29,-86466.555,-50768.235,-16918.559999999998,-21455.594999999998,3802.185,-45808.695,-0.3520784164910295,2.967563610880563,4.217693722625284,2.9110856335917314,3.982497092482534,7.359452124541561,3.204773421877631,-3.1097702590972607,0.11242647,-0.796323645,0.617124885,-2.48738,-2.2889999999999997,10.7583,72.0
1774821800.1000936,0.0054492950439453125,2026-03-29T22:03:20.100,2026-03-29T18:03:20.100,-32078.385,-50713.02,-86478.75,-50783.265,-16934.67,-21475.71,3757.9049999999997,-45806.895,1.4691394818745223,-0.22550750514304632,-1.9746459739848121,-4.417539300479419,-3.4978238449604038,-0.07368257513924488,0.5438072587821865,0.941321450113152,0.11242647,-0.796323645,0.617124885,-2.48738,-2.2889999999999997,10.7583,72.0
1774821800.1001124,1.8835067749023438e-05,2026-03-29T22:03:20.100,2026-03-29T18:03:20.100,-32081.399999999998,-50710.77,-86475.645,-50778.36,-16929.585,-21474.45,3746.115,-45811.259999999995,2.4317880856106906,-3.450407578541988,-7.280389966624541,-9.685508961498767,-9.35704830719257,-7.45124864494663,-2.646240535789388,4.412750754334036,0.11242647,-0.796323645,0.617124885,-2.48738,-2.2889999999999997,10.7583,72.0
1774821800.102836,0.0027234554290771484,2026-03-29T22:03:20.102,2026-03-29T18:03:20.102,-32088.96,-50701.814999999995,-86456.385,-50754.689999999995,-16903.665,-21447.719999999998,3793.185,-45821.564999999995,2.1818676846264746,-5.259453610767528,-9.435238394587218,-10.727695096152308,-11.096667128299096,-11.47750613584418,-4.6490394914538085,5.847079534520785,0.113097855,-0.795835365,0.61950525,-2.7010199999999998,-1.6175599999999999,11.6739,72.0
1774821800.1028476,1.1682510375976562e-05,2026-03-29T22:03:20.102,2026-03-29T18:03:20.102,-32061.285,-50690.744999999995,-86452.425,-50754.689999999995,-16907.265,-21451.454999999998,3825.99,-45787.77,0.9578395994780404,-4.789756737690097,-7.544454203354206,-7.2282472462307075,-8.037669756113885,-10.367797836551869,-4.278517189201234,4.721994258320001,0.113097855,-0.795835365,0.61950525,-2.7010199999999998,-1.6175599999999999,11.6739,72.0
1774821800.1074705,0.004622936248779297,2026-03-29T22:03:20.107,2026-03-29T18:03:20.107,-32052.105,-50697.72,-86469.56999999999,-50773.049999999996,-16928.415,-21478.815,3805.245,-45772.695,-0.5729477902390688,-2.181014256793581,-2.4634386029803768,-0.8033122411960641,-1.5913577189464787,-4.658168096431608,-1.5609187634354555,1.6355701994072167,0.113097855,-0.795835365,0.61950525,-2.7010199999999998,-1.6175599999999999,11.6739,72.0
1774821800.1074817,1.1205673217773438e-05,2026-03-29T22:03:20.107,2026-03-29T18:03:20.107,-32059.44,-50704.83,-86477.4,-50782.365,-16937.864999999998,-21488.265,3790.305,-45779.354999999996,-1.663816089557571,1.4552209354124601,3.5860498395896845,5.741997613097828,5.3871621346426135,3.0438235784203402,2.203582687724268,-1.998872788057481,0.113097855,-0.795835365,0.61950525,-2.7010199999999998,-1.6175599999999999,11.6739,72.0
1774821800.1107225,0.003240823745727539,2026-03-29T22:03:20.110,2026-03-29T18:03:20.110,-32079.015,-50699.384999999995,-86456.06999999999,-50756.67,-16909.11,-21453.57,3797.2799999999997,-45808.74,-1.8460795655227336,4.515309703432559,7.992938602841649,9.641774126770208,9.868288063852154,9.255047153285682,5.0650849130045374,-4.59721828643048,0.113097855,-0.795835365,0.61950525,-2.7010199999999998,-1.6175599999999999,11.6739,72.0
1774821800.1107392,1.6689300537109375e-05,2026-03-29T22:03:20.110,2026-03-29T18:03:20.110,-32076.719999999998,-50696.235,-86451.93,-50750.145,-16897.364999999998,-21429.315,3811.095,-45809.009999999995,-1.125816170499242,5.622068492423207,8.89481074069358,9.343442342548991,9.973622493605157,11.20860038608642,5.4324812025149605,-5.0956895209189,0.113097855,-0.795835365,0.61950525,-2.7010199999999998,-1.6175599999999999,11.6739,72.0
1774821800.11456,0.003820657730102539,2026-03-29T22:03:20.114,2026-03-29T18:03:20.114,-32075.91,-50699.115,-86459.715,-50756.715,-16903.845,-21436.29,3810.42,-45801.54,0.060136408041738414,4.254817136552626,5.975813754440669,5.12739002269476,5.7734196999590806,8.106581783834166,2.9447890547199336,-3.386822607010432,0.113097855,-0.795835365,0.61950525,-2.7010199999999998,-1.6175599999999999,11.6739,72.0
1774821800.1145844,2.4557113647460938e-05,2026-03-29T22:03:20.114,2026-03-29T18:03:20.114,-32067.495,-50702.715,-86469.03,-50767.244999999995,-16915.68,-21453.03,3799.035,-45784.395,1.0896842386270111,0.998169354800374,0.5776912432641744,-1.0756410361010127,-0.7873475268859498,1.457524558142365,-1.2664271439216503,-0.321163724401539,0.113097855,-0.795835365,0.61950525,-2.7010199999999998,-1.6175599999999999,11.6739,72.0
1774821800.1203856,0.005801200866699219,2026-03-29T22:03:20.120,2026-03-29T18:03:20.120,-32066.954999999998,-50704.02,-86466.69,-50764.59,-16912.215,-21450.69,3795.8399999999997,-45782.505,1.4706408267266804,-2.7107093245263414,-4.915753839006129,-6.56536866835039,-6.786275323842199,-5.650137095633252,-5.092323549391312,2.707775530067741,0.113097855,-0.795835365,0.61950525,-2.7010199999999998,-1.6175599999999999,11.6739,72.0
1774821800.120412,2.6464462280273438e-05,2026-03-29T22:03:20.120,2026-03-29T18:03:20.120,-32073.84,-50708.79,-86469.03,-50771.835,-16921.305,-21459.735,3794.7599999999998,-45786.33,1.0698636241501789,-5.225545507709577,-8.13863707507804,-9.05053819250195,-9.631519360590579,-9.991195916538645,-6.504086365051354,4.395992372918019,0.113097855,-0.795835365,0.61950525,-2.7010199999999998,-1.6175599999999999,11.6739,72.0
1774821800.1224287,0.0020165443420410156,2026-03-29T22:03:20.122,2026-03-29T18:03:20.122,-32097.285,-50705.145,-86454.9,-50750.955,-16901.19,-21444.93,3796.02,-45820.575,0.15224922353563716,-5.432622610357445,-7.772773594592452,-7.609830739647927,-8.192453271476241,-9.685183753490561,-4.620802612996855,4.092219007617891,0.11584443,-0.79907022,0.62023767,-1.63282,-0.9003399999999999,13.3525,72.0
1774821800.1224377,9.059906005859375e-06,2026-03-29T22:03:20.122,2026-03-29T18:03:20.122,-32088.105,-50704.064999999995,-86467.815,-50764.95,-16916.805,-21463.02,3787.1099999999997,-45813.6,-0.7767865536814358,-3.2515427271363664,-4.0941146418595995,-3.030356153437503,-3.254975440486533,-5.027682658149692,-0.22867871811702825,2.0476386752709606,0.11584443,-0.79907022,0.62023767,-1.63282,-0.9003399999999999,13.3525,72.0
1774821800.127043,0.004605293273925781,2026-03-29T22:03:20.127,2026-03-29T18:03:20.127,-32087.295,-50705.009999999995,-86467.5,-50769.045,-16920.675,-21465.45,3770.8199999999997,-45812.43,-1.2369948224261202,0.3333806269833673,1.1942390634050546,2.5992959331913186,2.8851360672219273,1.7039465925797317,4.543526738048691,-0.7432903047421366,0.11584443,-0.79907022,0.62023767,-1.63282,-0.9003399999999999,13.3525,72.0
1774821800.127062,1.9073486328125e-05,2026-03-29T22:03:20.127,2026-03-29T18:03:20.127,-32085.09,-50706.99,-86471.01,-50777.415,-16927.02,-21467.655,3771.54,-45809.549999999996,-1.0118462581001961,3.723255933481731,5.750897939353666,6.83863974696238,7.487854258826073,7.35947957430654,7.260287185172835,-3.0209426693759602,0.11584443,-0.79907022,0.62023767,-1.63282,-0.9003399999999999,13.3525,72.0
1774821800.132501,0.005438804626464844,2026-03-29T22:03:20.132,2026-03-29T18:03:20.132,-32076.855,-50704.38,-86473.75499999999,-50778.405,-16927.47,-21468.87,3772.35,-45802.17,-0.2450211406417613,5.427564243739852,7.641185534889402,7.957244133023359,8.599644186877502,9.400919598986967,6.4196847834486235,-3.829872605989007,0.11584443,-0.79907022,0.62023767,-1.63282,-0.9003399999999999,13.3525,72.0
1774821800.1325169,1.5974044799804688e-05,2026-03-29T22:03:20.132,2026-03-29T18:03:20.132,-32057.91,-50682.42,-86447.925,-50752.619999999995,-16903.079999999998,-21445.515,3791.9249999999997,-45790.695,0.6457553681891647,4.728467486359358,6.168111266290182,5.645483721721452,5.893044468633283,7.058768590083433,2.2670412890282483,-2.921544345190579,0.11584443,-0.79907022,0.62023767,-1.63282,-0.9003399999999999,13.3525,72.0
1774821800.134783,0.0022661685943603516,2026-03-29T22:03:20.134,2026-03-29T18:03:20.134,-32062.545,-50689.08,-86451.93,-50756.265,-16907.94,-21451.5,3804.435,-45786.465,1.1879282356605927,1.9863134044083508,2.1278959726465994,1.0800263971472799,0.7492853106505435,1.6247964234431647,-3.2527680793288334,-0.8195030109296835,0.11584443,-0.79907022,0.62023767,-1.63282,-0.9003399999999999,13.3525,72.0
1774821800.1347992,1.621246337890625e-05,2026-03-29T22:03:20.134,2026-03-29T18:03:20.134,-32078.699999999997,-50706.494999999995,-86470.47,-50774.445,-16926.66,-21472.92,3788.19,-45794.115,1.0943308150682152,-1.545063166539311,-2.603339899715917,-3.657842223839806,-4.429694492554164,-4.232258108261459,-7.4123749012379925,1.4637888153178187,0.11584443,-0.79907022,0.62023767,-1.63282,-0.9003399999999999,13.3525,72.0
1774821800.1402187,0.005419492721557617,2026-03-29T22:03:20.140,2026-03-29T18:03:20.140,-32064.975,-50700.33,-86468.58,-50769.765,-16919.774999999998,-21464.55,3780.1349999999998,-45785.61,0.40607228000555085,-4.298768686235348,-5.942859253643063,-6.529880505946818,-7.343296823437371,-7.774967662990657,-8.052423479171216,2.911397825586585,0.11584443,-0.79907022,0.62023767,-1.63282,-0.9003399999999999,13.3525,72.0
1774821800.1402464,2.765655517578125e-05,2026-03-29T22:03:20.140,2026-03-29T18:03:20.140,-32053.454999999998,-50702.759999999995,-86480.50499999999,-50779.845,-16925.895,-21462.434999999998,3801.015,-45767.07,-0.529688449699087,-5.0989771264049715,-6.526981578572646,-6.423666531171786,-6.823924168255912,-7.488636620086708,-4.694740151958007,2.956985181119398,0.11584443,-0.79907022,0.62023767,-1.63282,-0.9003399999999999,13.3525,72.0
1774821800.145064,0.0048177242279052734,2026-03-29T22:03:20.145,2026-03-29T18:03:20.145,-32059.844999999998,-50713.92,-86494.36499999999,-50795.055,-16943.805,-21483.719999999998,3776.265,-45764.189999999995,-1.2334990996703374,-3.6681854789149884,-4.273590960119984,-3.5854220139026656,-3.3111341452708922,-3.7411518669354074,1.1530704467008395,1.7056441031910676,0.11682099,-0.79943643,0.620420775,-1.2971,-0.6409199999999999,13.642439999999999,72.0
1774821800.145074,9.775161743164062e-06,2026-03-29T22:03:20.145,2026-03-29T18:03:20.145,-32067.27,-50709.15,-86477.355,-50781.24,-16929.18,-21464.91,3801.5099999999998,-45770.354999999996,-1.3325641464686273,-0.7163470236982128,-0.3464095116357328,0.5671795938947788,1.4279367488568155,1.4822474940664456,6.681007725733114,-0.16564280009599433,0.11682099,-0.79943643,0.620420775,-1.2971,-0.6409199999999999,13.642439999999999,72.0
1774821800.1450849,1.0967254638671875e-05,2026-03-29T22:03:20.145,2026-03-29T18:03:20.145,-32066.82,-50702.895,-86469.165,-50772.15,-16917.255,-21451.14,3816.225,-45769.994999999995,-0.7484118142371191,2.412421809042391,3.433698551739145,4.139275086513749,5.173924337312649,5.608092850948467,9.13473250032256,-1.7615308018421103,0.11682099,-0.79943643,0.620420775,-1.2971,-0.6409199999999999,13.642439999999999,72.0
1774821800.1450908,5.9604644775390625e-06,2026-03-29T22:03:20.145,2026-03-29T18:03:20.145,-32075.28,-50701.455,-86461.605,-50760.27,-16909.695,-21450.059999999998,3795.795,-45785.34,0.2576309940674137,4.359114660640105,5.436814466849204,5.625337143747251,6.297691930319065,6.74200024871142,7.187831702885479,-2.395595151076215,0.11682099,-0.79943643,0.620420775,-1.2971,-0.6409199999999999,13.642439999999999,72.0
1774821800.1620913,0.017000436782836914,2026-03-29T22:03:20.162,2026-03-29T18:03:20.162,-32056.829999999998,-50695.604999999996,-86462.145,-50768.055,-16923.105,-21466.844999999998,3779.145,-45767.97,1.2038780901694877,4.346350247550828,4.934450541222627,4.55068569053358,4.478571247773799,4.549782991054568,1.6440013675407326,-1.8876152926581122,0.11682099,-0.79943643,0.620420775,-1.2971,-0.6409199999999999,13.642439999999999,72.0
1774821800.1621156,2.4318695068359375e-05,2026-03-29T22:03:20.162,2026-03-29T18:03:20.162,-32075.91,-50688.765,-86441.67,-50742.27,-16895.43,-21443.579999999998,3783.7349999999997,-45802.439999999995,1.6170073998751258,2.4873139430685103,2.3588456654690524,1.6108773188186398,0.7768382857870378,0.337274920823293,-4.897206402686575,-0.6008216670155936,0.11682099,-0.79943643,0.620420775,-1.2971,-0.6409199999999999,13.642439999999999,72.0
1774821800.1621387,2.3126602172851562e-05,2026-03-29T22:03:20.162,2026-03-29T18:03:20.162,-32068.215,-50689.575,-86449.095,-50754.869999999995,-16911.225,-21460.454999999998,3768.165,-45789.84,1.2624094377487622,-0.3147808331867823,-0.9787559941235435,-1.726267942107001,-2.944960019875578,-3.678932200766277,-9.270355310073818,0.7795596281779201,0.11682099,-0.79943643,0.620420775,-1.2971,-0.6409199999999999,13.642439999999999,72.0
1774821800.162149,1.0251998901367188e-05,2026-03-29T22:03:20.162,2026-03-29T18:03:20.162,-32061.42,-50699.07,-86469.75,-50780.25,-16936.425,-21485.79,3761.91,-45773.145,0.266670733731486,-2.808092763280469,-3.5468067641028815,-3.943117766634228,-4.948524150275392,-5.517930704594985,-9.282390918859166,1.6016882621661772,0.11682099,-0.79943643,0.620420775,-1.2971,-0.6409199999999999,13.642439999999999,72.0
1774821800.1621609,1.1920928955078125e-05,2026-03-29T22:03:20.162,2026-03-29T18:03:20.162,-32075.19,-50720.22,-86489.055,-50795.775,-16948.98,-21495.42,3774.06,-45777.104999999996,-0.9282203774627763,-3.9573584449641674,-4.3011100132344104,-4.167171214863806,-4.436841651114468,-4.411958624941255,-4.808331847066207,1.5552765114646527,0.11682099,-0.79943643,0.620420775,-1.2971,-0.6409199999999999,13.642439999999999,72.0
1774821800.1621697,8.821487426757812e-06,2026-03-29T22:03:20.162,2026-03-29T18:03:20.162,-32089.05,-50719.229999999996,-86479.02,-50778.36,-16925.22,-21466.53,3810.06,-45789.84,-1.7618063891081857,-3.3748143716113703,-3.1118529097876353,-2.517637118783795,-1.8749607628493767,-1.1318707177745402,2.101704207235517,0.7863059939508544,0.11682099,-0.79943643,0.620420775,-1.2971,-0.6409199999999999,13.642439999999999,72.0
1774821800.1621804,1.0728836059570312e-05,2026-03-29T22:03:20.162,2026-03-29T18:03:20.162,-32089.545,-50704.515,-86460.525,-50757.84,-16901.595,-21437.64,3838.3199999999997,-45805.5,-1.815364714538111,-1.4369656761788507,-0.7337438423215762,0.03652755251346255,1.3171995997643713,2.480032839401189,8.173706395140787,-0.22321344598373719,0.11743134,-0.7979715900000001,0.617979375,-1.3734,-2.77732,13.59666,72.0
1774821800.162189,8.58306884765625e-06,2026-03-29T22:03:20.162,2026-03-29T18:03:20.162,-32076.27,-50699.79,-86459.805,-50759.325,-16904.565,-21443.399999999998,3833.37,-45791.775,-1.0159432361453722,0.9391213069790924,1.6299162803914877,2.208184444555294,3.5208699889042405,4.505906566897584,10.47208444499713,-0.932465621224777,0.11743134,-0.7979715900000001,0.617979375,-1.3734,-2.77732,13.59666,72.0
1774821800.1684656,0.006276607513427734,2026-03-29T22:03:20.168,2026-03-29T18:03:20.168,-32078.07,-50697.765,-86456.34,-50749.83,-16895.655,-21442.725,3819.285,-45797.625,0.3126757886325996,2.7330579459745854,2.9300778219768495,3.033297605706033,3.7309912052499565,3.951562286989686,7.822309748610826,-1.0241191779917425,0.11743134,-0.7979715900000001,0.617979375,-1.3734,-2.77732,13.59666,72.0
1774821800.168479,1.33514404296875e-05,2026-03-29T22:03:20.168,2026-03-29T18:03:20.168,-32074.92,-50700.15,-86467.68,-50764.229999999996,-16912.575,-21464.325,3792.285,-45795.195,1.5815138373781472,3.2617541599126976,2.7413586468377864,2.3045437538930975,2.0199233946571686,1.2348334883067387,1.4027640431276647,-0.5466219829813799,0.11743134,-0.7979715900000001,0.617979375,-1.3734,-2.77732,13.59666,72.0
1774821800.170896,0.0024170875549316406,2026-03-29T22:03:20.170,2026-03-29T18:03:20.170,-32079.555,-50710.005,-86479.37999999999,-50774.4,-16922.97,-21473.774999999998,3766.0049999999997,-45794.655,2.1969653656036896,2.431924390079554,1.3857654392916656,0.5989453834722256,-0.5645681939399488,-2.0773380137362976,-5.789102220619129,0.1478290232012793,0.11743134,-0.7979715900000001,0.617979375,-1.3734,-2.77732,13.59666,72.0
1774821800.1709058,9.775161743164062e-06,2026-03-29T22:03:20.170,2026-03-29T18:03:20.170,-32071.815,-50702.895,-86463.94499999999,-50765.49,-16914.645,-21456.719999999998,3780.81,-45783.27,1.8356918166551697,0.7154884734710513,-0.31624414322726346,-1.0871800977008552,-2.5924041422679696,-4.1310646103212605,-10.349461941557138,0.6237119388465957,0.11743134,-0.7979715900000001,0.617979375,-1.3734,-2.77732,13.59666,72.0
1774821800.174806,0.003900289535522461,2026-03-29T22:03:20.174,2026-03-29T18:03:20.174,-32063.265,-50699.205,-86461.29,-50765.715,-16912.215,-21445.065,3797.0099999999998,-45773.549999999996,0.6079574262790487,-1.109810867167665,-1.5090446251869793,-1.8867715888570107,-3.014561773162257,-3.7862169727822033,-10.087760855615235,0.6135126258820726,0.11743134,-0.7979715900000001,0.617979375,-1.3734,-2.77732,13.59666,72.0
1774821800.1748188,1.2636184692382812e-05,2026-03-29T22:03:20.174,2026-03-29T18:03:20.174,-32069.07,-50702.265,-86466.105,-50764.77,-16908.704999999998,-21441.735,3799.305,-45780.75,-0.9707537195852973,-2.3149353452783834,-1.7280171068324601,-1.502408375567554,-1.6983507363839345,-1.227817548149137,-5.078806895070906,0.16138067247315924,0.11743134,-0.7979715900000001,0.617979375,-1.3734,-2.77732,13.59666,72.0
1774821800.1788723,0.004053592681884766,2026-03-29T22:03:20.178,2026-03-29T18:03:20.178,-32064.75,-50697.99,-86467.905,-50765.04,-16909.649999999998,-21448.89,3800.205,-45782.82,-2.195848503262287,-2.5064850902158002,-1.0772369109303939,-0.31611941167573976,0.5364665918692002,2.1326262813012633,2.3577662189188047,-0.41619865380797255,0.11743134,-0.7979715900000001,0.617979375,-1.3734,-2.77732,13.59666,72.0
1774821800.178883,1.0728836059570312e-05,2026-03-29T22:03:20.178,2026-03-29T18:03:20.178,-32060.745,-50699.115,-86468.715,-50769.27,-16911.809999999998,-21447.27,3807.585,-45774.045,-2.487401296929308,-1.7354970489233665,-0.09215471342349112,0.872319075420029,2.3876509754037554,4.4136076077237245,8.744051882984175,-0.7257090026757261,0.11743134,-0.7979715900000001,0.617979375,-1.3734,-2.77732,13.59666,72.0
1774821800.1949453,0.016062259674072266,2026-03-29T22:03:20.194,2026-03-29T18:03:20.194,-32057.28,-50700.24,-86471.685,-50779.439999999995,-16922.475,-21455.505,3801.555,-45766.665,-1.6625287479465318,-0.4109856858781446,0.6100981511487404,1.322134272128006,2.789695259225156,4.280163475952638,11.081757329790731,-0.5350451509256398,0.12072723,-0.797788485,0.615660045,-1.32762,-4.07442,14.329139999999999,72.0
1774821800.194964,1.8596649169921875e-05,2026-03-29T22:03:20.194,2026-03-29T18:03:20.194,-32062.004999999997,-50705.055,-86474.97,-50778.225,-16922.475,-21457.8,3796.9649999999997,-45768.33,-0.039424543134371694,0.9129049848145597,0.6858222554016394,0.7766324391525005,1.4977708360034965,1.6836677719395978,8.26515533242746,0.08094354689374912,0.12072723,-0.797788485,0.615660045,-1.32762,-4.07442,14.329139999999999,72.0
1774821800.1949804,1.6450881958007812e-05,2026-03-29T22:03:20.194,2026-03-29T18:03:20.194,-32066.864999999998,-50697.134999999995,-86462.73,-50763.645,-16907.175,-21443.805,3802.8599999999997,-45782.865,1.683087002570677,1.7666898003013063,0.2301540252925603,-0.39664266994393205,-0.7744051801326407,-2.071769033615307,1.601291226346235,0.7721113620097305,0.12072723,-0.797788485,0.615660045,-1.32762,-4.07442,14.329139999999999,72.0
1774821800.1949868,6.4373016357421875e-06,2026-03-29T22:03:20.194,2026-03-29T18:03:20.194,-32055.524999999998,-50698.665,-86473.17,-50778.854999999996,-16925.399999999998,-21462.39,3780.18,-45771.75,2.726475599281944,1.918128361220152,-0.3261977559544122,-1.4257478851429626,-2.737442229191509,-4.984580912727171,-5.805630507995377,1.1075972803630463,0.12072723,-0.797788485,0.615660045,-1.32762,-4.07442,14.329139999999999,72.0
1774821800.1949947,7.867813110351562e-06,2026-03-29T22:03:20.194,2026-03-29T18:03:20.194,-32051.745,-50703.255,-86477.44499999999,-50786.595,-16939.8,-21479.67,3757.455,-45760.32,2.5847626831883104,1.4066917644740229,-0.5140360285252152,-1.5910955705350045,-3.228744949436374,-5.403223486649547,-10.51146511388233,0.827150857072767,0.12072723,-0.797788485,0.615660045,-1.32762,-4.07442,14.329139999999999,72.0
1774821800.195001,6.198883056640625e-06,2026-03-29T22:03:20.195,2026-03-29T18:03:20.195,-32077.89,-50699.97,-86453.09999999999,-50754.375,-16906.905,-21450.465,3775.6349999999998,-45788.58,1.268789837210413,0.47727474392509206,-0.13499992454145304,-0.6639288851456633,-1.8616922487393064,-2.9244258914130286,-10.342084726700188,0.008199480719661279,0.12072723,-0.797788485,0.615660045,-1.32762,-4.07442,14.329139999999999,72.0
1774821800.1950088,7.867813110351562e-06,2026-03-29T22:03:20.195,2026-03-29T18:03:20.195,-32068.62,-50684.715,-86432.175,-50736.375,-16890.93,-21437.954999999998,3808.845,-45783.225,-0.6751096221462881,-0.5347400327775297,0.6009457000099178,0.9231087171345982,0.7285544829508389,1.3336347763210454,-5.400259721365619,-0.9499996041442561,0.12072723,-0.797788485,0.615660045,-1.32762,-4.07442,14.329139999999999,72.0
1774821800.1950142,5.4836273193359375e-06,2026-03-29T22:03:20.195,2026-03-29T18:03:20.195,-32050.215,-50680.755,-86438.16,-50747.715,-16900.829999999998,-21448.62,3805.1099999999997,-45763.47,-2.3913919517228095,-1.314090253967894,1.1926814112704205,2.280656887662021,3.1851874376307068,5.245787358409274,1.9973054191175048,-1.525704994298009,0.12072723,-0.797788485,0.615660045,-1.32762,-4.07442,14.329139999999999,72.0
1774821800.1988895,0.003875255584716797,2026-03-29T22:03:20.198,2026-03-29T18:03:20.198,-32042.295,-50671.935,-86424.25499999999,-50734.665,-16888.23,-21434.94,3790.395,-45762.345,-3.093611930151859,-1.642057248608182,1.1547083414637695,2.5450357367689382,4.132134735859515,6.740706311422499,8.41427159090422,-1.3564420869403986,0.12072723,-0.797788485,0.615660045,-1.32762,-4.07442,14.329139999999999,72.0
1774821800.198911,2.1457672119140625e-05,2026-03-29T22:03:20.198,2026-03-29T18:03:20.198,-32044.995,-50664.33,-86411.34,-50721.299999999996,-16873.47,-21415.95,3809.97,-45768.915,-2.427024252236064,-1.4354065721893041,0.33635647175483774,1.382501588979205,2.918196883843382,4.878263561540897,10.899928943260688,-0.4521017163477571,0.12072723,-0.797788485,0.615660045,-1.32762,-4.07442,14.329139999999999,72.0
1774821800.202892,0.003981113433837891,2026-03-29T22:03:20.202,2026-03-29T18:03:20.202,-32062.454999999998,-50694.435,-86453.86499999999,-50758.65,-16909.065,-21450.015,3787.47,-45775.305,-0.6473050221139073,-0.7575486726868976,-0.9371468053722086,-0.7652495009214286,0.009535792372344405,0.38982623422149904,8.35211391876225,0.7811554319372767,0.124572435,-0.800107815,0.61413417,-0.82404,-3.4335,15.916179999999999,72.0
1774821800.2029045,1.239776611328125e-05,2026-03-29T22:03:20.202,2026-03-29T18:03:20.202,-32061.87,-50713.74,-86486.805,-50790.33,-16938.495,-21477.555,3789.045,-45757.35,1.4748025452360636,0.19242164258902694,-1.9977873069032137,-2.848075697778151,-3.190907165794109,-4.613704906245707,2.0062539472411993,1.7296085216713672,0.124572435,-0.800107815,0.61413417,-0.82404,-3.4335,15.916179999999999,72.0
1774821800.2067964,0.0038919448852539062,2026-03-29T22:03:20.206,2026-03-29T18:03:20.206,-32046.84,-50709.555,-86487.705,-50791.365,-16937.145,-21473.864999999998,3820.41,-45733.68,2.9894057101770515,1.1180362450847863,-2.18560700489301,-3.7244694727389995,-5.026273049866481,-7.646685842977886,-5.166081873112338,1.8831272840084072,0.124572435,-0.800107815,0.61413417,-0.82404,-3.4335,15.916179999999999,72.0
1774821800.2068148,1.8358230590820312e-05,2026-03-29T22:03:20.206,2026-03-29T18:03:20.206,-32072.489999999998,-50706.494999999995,-86469.12,-50768.64,-16913.79,-21453.434999999998,3808.035,-45769.814999999995,3.1970069216693573,1.6990920526602569,-1.2332483917583685,-2.772936213323834,-4.436102602511915,-7.082791367226449,-9.855374364671727,1.1089875182487168,0.124572435,-0.800107815,0.61413417,-0.82404,-3.4335,15.916179999999999,72.0
1774821800.2108157,0.00400090217590332,2026-03-29T22:03:20.210,2026-03-29T18:03:20.210,-32083.829999999998,-50706.63,-86462.73,-50757.57,-16899.975,-21438.315,3809.295,-45791.82,1.9755749638333844,1.6951482865818461,0.5311009779503884,-0.27542386519131584,-1.5404145767114632,-3.0056909672294942,-9.948807485497348,-0.25832522226367194,0.124572435,-0.800107815,0.61413417,-0.82404,-3.4335,15.916179999999999,72.0
1774821800.2108269,1.1205673217773438e-05,2026-03-29T22:03:20.210,2026-03-29T18:03:20.210,-32068.395,-50714.549999999996,-86482.17,-50777.82,-16920.0,-21456.989999999998,3804.12,-45768.6,-0.14983805763944893,1.0494137620774835,2.2915007291498757,2.6479559119699205,2.3547600668538147,2.761127278523551,-5.487144320329637,-1.5664810794760706,0.124572435,-0.800107815,0.61413417,-0.82404,-3.4335,15.916179999999999,72.0
1774821800.2150204,0.004193544387817383,2026-03-29T22:03:20.215,2026-03-29T18:03:20.215,-32057.28,-50713.064999999995,-86488.69499999999,-50784.975,-16929.63,-21470.04,3789.0899999999997,-45756.405,-2.2343398535500403,-0.05438214921999613,3.1301269959752345,4.550051512147045,5.357507841247691,7.485363379231665,1.391214420923025,-2.1651926918726123,0.124572435,-0.800107815,0.61413417,-0.82404,-3.4335,15.916179999999999,72.0
1774821800.2150412,2.0742416381835938e-05,2026-03-29T22:03:20.215,2026-03-29T18:03:20.215,-32074.559999999998,-50712.39,-86476.635,-50768.64,-16915.995,-21461.219999999998,3765.5099999999998,-45776.88,-3.338769615012815,-1.224506590592094,2.5051847581068007,4.376745727446661,5.915233398627937,8.831929197909545,7.476586652659014,-1.7364254840721396,0.124572435,-0.800107815,0.61413417,-0.82404,-3.4335,15.916179999999999,72.0
1774821800.220768,0.005726814270019531,2026-03-29T22:03:20.220,2026-03-29T18:03:20.220,-32088.42,-50713.604999999996,-86470.785,-50761.305,-16909.38,-21455.415,3762.6299999999997,-45793.305,-2.959632767074948,-1.992371754716509,0.5726020470995997,2.0363548499830983,3.60989400323973,6.014720037482861,9.991972956060604,-0.4646049985465355,0.124572435,-0.800107815,0.61413417,-0.82404,-3.4335,15.916179999999999,72.0
1774821800.2207882,2.0265579223632812e-05,2026-03-29T22:03:20.220,2026-03-29T18:03:20.220,-32069.655,-50702.22,-86460.795,-50756.534999999996,-16908.885,-21458.88,3785.67,-45772.92,-1.2633097655187813,-2.0027377264246375,-1.8303644169331015,-1.4839023967506773,-0.5813309608892188,0.22678058684255376,7.8678728272075205,1.0448228338243695,0.124572435,-0.800107815,0.61413417,-0.82404,-3.4335,15.916179999999999,72.0
1774821800.222823,0.0020346641540527344,2026-03-29T22:03:20.222,2026-03-29T18:03:20.222,-32053.094999999998,-50690.655,-86456.655,-50762.88,-16912.98,-21460.905,3810.7799999999997,-45754.65,0.987008120184078,-1.1839984098935994,-3.555465705915386,-4.540734800641748,-4.709200723201961,-5.877303717046065,2.1998853113011494,2.0618684901315394,0.123107595,-0.8007792,0.61315761,-0.4578,-4.1964999999999995,16.60288,72.0
1774821800.222832,9.059906005859375e-06,2026-03-29T22:03:20.222,2026-03-29T18:03:20.222,-32061.239999999998,-50690.52,-86453.055,-50757.57,-16907.85,-21457.665,3809.7,-45768.735,2.7801432838880524,0.1858967638235966,-3.7003442899370325,-5.612892150454941,-6.771865215510928,-9.416031240706085,-4.308029295973544,2.095217994308938,0.123107595,-0.8007792,0.61315761,-0.4578,-4.1964999999999995,16.60288,72.0
1774821800.2296236,0.006791591644287109,2026-03-29T22:03:20.229,2026-03-29T18:03:20.229,-32062.77,-50697.45,-86458.905,-50759.865,-16911.18,-21463.425,3792.645,-45767.159999999996,3.319934097192258,1.564643841326874,-2.0786466668803714,-4.061542512966563,-5.691379476023334,-8.650807822704174,-8.635253584954905,1.137472088054419,0.123107595,-0.8007792,0.61315761,-0.4578,-4.1964999999999995,16.60288,72.0
1774821800.2296414,1.7881393432617188e-05,2026-03-29T22:03:20.229,2026-03-29T18:03:20.229,-32061.645,-50699.744999999995,-86467.14,-50767.695,-16916.94,-21466.575,3778.1099999999997,-45766.125,2.3863940529345418,2.3611958009310126,0.6404713808073559,-0.4915932372070422,-1.8685254309485526,-3.835609437214181,-8.853909289067294,-0.3333269211920486,0.123107595,-0.8007792,0.61315761,-0.4578,-4.1964999999999995,16.60288,72.0
1774821800.2313492,0.0017077922821044922,2026-03-29T22:03:20.231,2026-03-29T18:03:20.231,-32065.92,-50694.299999999996,-86455.665,-50754.96,-16900.649999999998,-21440.925,3784.455,-45771.435,0.4271913745278974,2.195111201267959,3.2118848655103096,3.4839440266923893,2.9665919159069642,2.8670713439941484,-4.995528650608908,-1.5968385075193519,0.123107595,-0.8007792,0.61315761,-0.4578,-4.1964999999999995,16.60288,72.0
1774821800.2313643,1.5020370483398438e-05,2026-03-29T22:03:20.231,2026-03-29T18:03:20.231,-32059.26,-50691.555,-86450.265,-50751.854999999996,-16896.915,-21429.945,3792.105,-45761.805,-1.6601594981044692,1.0825924241862688,4.394449714670141,5.984882397577241,6.551684780032311,8.37508259630172,1.0181066003382235,-2.0531861798294555,0.123107595,-0.8007792,0.61315761,-0.4578,-4.1964999999999995,16.60288,72.0
1774821800.2383676,0.007003307342529297,2026-03-29T22:03:20.238,2026-03-29T18:03:20.238,-32049.765,-50698.979999999996,-86464.98,-50765.58,-16910.55,-21448.575,3799.2149999999997,-45744.659999999996,-2.9485039692107615,-0.5436722778713761,3.556988817872295,5.764426479842554,7.163596874862125,10.120044346726495,6.325854342700409,-1.5189244690399293,0.123107595,-0.8007792,0.61315761,-0.4578,-4.1964999999999995,16.60288,72.0
1774821800.2383912,2.3603439331054688e-05,2026-03-29T22:03:20.238,2026-03-29T18:03:20.238,-32059.215,-50713.244999999995,-86480.19,-50774.58,-16920.405,-21467.16,3806.8199999999997,-45746.235,-2.902891867392971,-2.0023835738927427,1.0118175362451294,2.8332665733361337,4.450948942114325,7.251586949221093,8.492232454229079,-0.3055136954620039,0.123107595,-0.8007792,0.61315761,-0.4578,-4.1964999999999995,16.60288,72.0
1774821800.2384083,1.71661376953125e-05,2026-03-29T22:03:20.238,2026-03-29T18:03:20.238,-32084.64,-50716.89,-86473.34999999999,-50759.595,-16905.42,-21455.19,3829.68,-45773.955,-1.6070897377259274,-2.6538502035242604,-2.098808135681764,-1.5061910175731412,-0.3761515499016232,1.0448899451431168,6.634007254358098,0.9561196414228461,0.123107595,-0.8007792,0.61315761,-0.4578,-4.1964999999999995,16.60288,72.0
1774821800.2384157,7.3909759521484375e-06,2026-03-29T22:03:20.238,2026-03-29T18:03:20.238,-32081.175,-50707.89,-86467.545,-50756.58,-16902.315,-21452.13,3816.3599999999997,-45777.869999999995,0.30397473740532643,-2.1861314693182248,-4.323399920028772,-5.248345683455231,-5.097895186463997,-5.681034440787849,1.7831982547123444,1.6486654341835456,0.123107595,-0.8007792,0.61315761,-0.4578,-4.1964999999999995,16.60288,72.0
1774821800.2429152,0.0044994354248046875,2026-03-29T22:03:20.242,2026-03-29T18:03:20.242,-32064.93,-50692.905,-86457.15,-50757.119999999995,-16901.325,-21446.37,3788.19,-45772.875,1.9615723671642835,-0.7662840459996701,-4.588043549084977,-6.625285520817168,-7.520999717652895,-9.862087242861051,-3.6646342686042006,1.4819192396266447,0.119079285,-0.802915425,0.611875875,0.07629999999999999,-5.35626,17.7016,72.0
1774821800.2429423,2.7179718017578125e-05,2026-03-29T22:03:20.242,2026-03-29T18:03:20.242,-32049.315,-50681.025,-86449.095,-50753.655,-16899.93,-21443.445,3773.835,-45766.395,2.6692834404865127,1.0173003003332557,-2.720357170113548,-4.9525584711616695,-6.508871046330507,-9.598287231906111,-7.129734455226847,0.6230474232431147,0.119079285,-0.802915425,0.611875875,0.07629999999999999,-5.35626,17.7016,72.0
1774821800.2470372,0.004094839096069336,2026-03-29T22:03:20.247,2026-03-29T18:03:20.247,-32025.239999999998,-50679.54,-86455.98,-50761.305,-16909.155,-21459.015,3783.7799999999997,-45740.295,2.2026474360663437,2.402230784654741,0.4470651437554061,-0.9706993676082759,-2.516851885502649,-5.0194287392109835,-7.076126193457198,-0.4194152122594348,0.119079285,-0.802915425,0.611875875,0.07629999999999999,-5.35626,17.7016,72.0
1774821800.2470665,2.9325485229492188e-05,2026-03-29T22:03:20.247,2026-03-29T18:03:20.247,-32042.879999999997,-50703.075,-86476.41,-50775.84,-16922.97,-21477.645,3773.97,-45736.47,0.8693208862943455,2.7829682673962886,3.452689748823839,3.488440826588462,2.6204648668480335,1.7881295714392167,-3.7008414782625203,-1.0876340425649325,0.119079285,-0.802915425,0.611875875,0.07629999999999999,-5.35626,17.7016,72.0
1774821800.2511308,0.004064321517944336,2026-03-29T22:03:20.251,2026-03-29T18:03:20.251,-32073.344999999998,-50706.765,-86466.33,-50756.625,-16898.22,-21445.38,3791.745,-45757.575,-0.6797369885911602,1.978990951488871,4.889385801290084,6.3575140104519985,6.546989973335887,7.749273680081336,1.2290755632246755,-1.0786324828992462,0.119079285,-0.802915425,0.611875875,0.07629999999999999,-5.35626,17.7016,72.0
1774821800.251153,2.2172927856445312e-05,2026-03-29T22:03:20.251,2026-03-29T18:03:20.251,-32090.805,-50709.15,-86457.23999999999,-50749.83,-16886.25,-21423.735,3821.805,-45777.33,-1.7771465659859014,0.3200068199186541,4.071688158651156,6.305993936983992,7.48042027455103,10.205918397636294,5.28663769952317,-0.4932296351010655,0.119079285,-0.802915425,0.611875875,0.07629999999999999,-5.35626,17.7016,72.0
1774821800.260038,0.008884906768798828,2026-03-29T22:03:20.260,2026-03-29T18:03:20.260,-32084.414999999997,-50718.915,-86475.87,-50773.275,-16911.0,-21447.0,3818.79,-45765.54,-2.036016050017471,-1.4915377910383427,1.367070543439376,3.365558096778943,5.0292871125663385,8.110575092595456,6.579033226786159,0.24863640361904665,0.119079285,-0.802915425,0.611875875,0.07629999999999999,-5.35626,17.7016,72.0
1774821800.2600589,2.09808349609375e-05,2026-03-29T22:03:20.260,2026-03-29T18:03:20.260,-32064.39,-50715.765,-86485.455,-50781.78,-16924.05,-21466.8,3802.68,-45744.57,-1.4797132751015356,-2.6817273500518315,-1.9704302967809164,-1.0891166481354606,0.3535767160273088,2.4680291985811453,4.63826018646958,0.6724083489759269,0.119079285,-0.802915425,0.611875875,0.07629999999999999,-5.35626,17.7016,72.0
1774821800.2600744,1.5497207641601562e-05,2026-03-29T22:03:20.260,2026-03-29T18:03:20.260,-32058.495,-50708.115,-86477.355,-50773.095,-16915.725,-21462.885,3791.52,-45740.88,-0.4642344435081115,-2.7389081502359756,-4.388206152806105,-4.992689218291037,-4.394980609293835,-4.158335982995232,0.5854749869454968,0.5375089927976622,0.119079285,-0.802915425,0.611875875,0.07629999999999999,-5.35626,17.7016,72.0
1774821800.2600808,6.4373016357421875e-06,2026-03-29T22:03:20.260,2026-03-29T18:03:20.260,-32055.074999999997,-50705.055,-86482.215,-50787.72,-16927.155,-21469.454999999998,3786.345,-45740.25,0.5392918427021907,-1.6345559343446123,-4.7660747309612566,-6.560751991598004,-7.078260078174539,-8.828141709031062,-3.4864407313953008,-0.019630821432518583,0.119079285,-0.802915425,0.611875875,0.07629999999999999,-5.35626,17.7016,72.0
1774821800.2628005,0.0027196407318115234,2026-03-29T22:03:20.262,2026-03-29T18:03:20.262,-32052.78,-50707.305,-86488.83,-50799.689999999995,-16943.13,-21487.995,3760.6949999999997,-45737.055,1.1730156126433826,0.16414699006814587,-2.942371524281984,-5.11729798279513,-6.54616665533629,-9.541118864755072,-5.582392422958715,-0.5743646815024384,0.11791962,-0.8032206000000001,0.6124251900000001,1.35814,-5.5393799999999995,16.99964,72.0
1774821800.2628143,1.3828277587890625e-05,2026-03-29T22:03:20.262,2026-03-29T18:03:20.262,-32092.965,-50705.729999999996,-86459.04,-50754.689999999995,-16898.715,-21449.79,3780.855,-45792.54,1.3162321694813026,1.894488904069782,0.2149221367041889,-1.3889617616798888,-3.1306415707522515,-6.094031601130235,-4.7840952124787846,-0.685394234562042,0.11791962,-0.8032206000000001,0.6124251900000001,1.35814,-5.5393799999999995,16.99964,72.0
1774821800.2682283,0.005414009094238281,2026-03-29T22:03:20.268,2026-03-29T18:03:20.268,-32083.335,-50710.365,-86474.61,-50769.09,-16917.255,-21469.77,3799.4849999999997,-45778.545,1.0632592503362606,2.823910001254089,3.22413506630098,2.8633493876809295,1.5533207435903105,-0.11052275539418599,-1.657053937643985,-0.18927576732697635,0.11791962,-0.8032206000000001,0.6124251900000001,1.35814,-5.5393799999999995,16.99964,72.0
1774821800.2682502,2.193450927734375e-05,2026-03-29T22:03:20.268,2026-03-29T18:03:20.268,-32062.454999999998,-50712.479999999996,-86487.56999999999,-50779.17,-16927.155,-21479.175,3788.73,-45747.854999999996,0.601370398980901,2.561097499119639,4.692277856369096,5.687567782882756,5.383668938617719,5.737334267732966,2.097418031913367,0.6630859116745378,0.11791962,-0.8032206000000001,0.6124251900000001,1.35814,-5.5393799999999995,16.99964,72.0
1774821800.2711742,0.0029239654541015625,2026-03-29T22:03:20.271,2026-03-29T18:03:20.271,-32067.18,-50712.705,-86480.955,-50772.555,-16912.53,-21455.684999999998,3799.5299999999997,-45746.909999999996,0.08432481047671955,1.2202711446816663,3.9677699861357882,5.849465653146886,6.705951884945673,8.936543824955997,4.5457974001973644,1.3239942578802757,0.11791962,-0.8032206000000001,0.6124251900000001,1.35814,-5.5393799999999995,16.99964,72.0
1774821800.271194,1.9788742065429688e-05,2026-03-29T22:03:20.271,2026-03-29T18:03:20.271,-32074.515,-50701.455,-86458.00499999999,-50756.04,-16894.89,-21433.5,3816.045,-45760.455,-0.41747486869118683,-0.6296499993035806,1.434198816475237,3.3782718788236337,5.052762400979183,8.217385373803468,4.5093443563414,1.2695464913555914,0.11791962,-0.8032206000000001,0.6124251900000001,1.35814,-5.5393799999999995,16.99964,72.0
1774821800.2752316,0.004037618637084961,2026-03-29T22:03:20.275,2026-03-29T18:03:20.275,-32063.219999999998,-50694.795,-86456.52,-50757.479999999996,-16899.48,-21443.175,3802.3199999999997,-45753.345,-0.8738817207077222,-2.2075706575005607,-1.6893885426551065,-0.4952996378099209,1.292819656459066,4.044607064549944,2.1334606601228345,0.3451964458748432,0.11791962,-0.8032206000000001,0.6124251900000001,1.35814,-5.5393799999999995,16.99964,72.0
1774821800.2752612,2.956390380859375e-05,2026-03-29T22:03:20.275,2026-03-29T18:03:20.275,-32066.73,-50700.24,-86462.055,-50758.02,-16899.255,-21444.93,3793.095,-45758.79,-1.2133650256595432,-2.850559267893893,-3.938822750455466,-3.956979367844067,-2.8275565101677214,-1.6670088988190819,-1.2368692249321809,-1.0731599169409554,0.11791962,-0.8032206000000001,0.6124251900000001,1.35814,-5.5393799999999995,16.99964,72.0
1774821800.2791605,0.0038993358612060547,2026-03-29T22:03:20.279,2026-03-29T18:03:20.279,-32052.329999999998,-50705.82,-86475.465,-50772.465,-16912.8,-21459.465,3790.305,-45734.985,-1.2868614894378765,-2.292375256375618,-4.298146185978313,-5.470279736142383,-5.5078549338557545,-6.44469597631579,-3.792219392020659,-2.2223831779101504,0.11791962,-0.8032206000000001,0.6124251900000001,1.35814,-5.5393799999999995,16.99964,72.0
1774821800.2791772,1.6689300537109375e-05,2026-03-29T22:03:20.279,2026-03-29T18:03:20.279,-32045.805,-50701.905,-86473.44,-50773.32,-16919.864999999998,-21475.215,3783.825,-45727.56,-0.9290454878736459,-0.773583739907058,-2.6644366951090515,-4.46687418581874,-5.687658298156605,-8.33549083299507,-4.2116357146517425,-2.3511533204161874,0.11791962,-0.8032206000000001,0.6124251900000001,1.35814,-5.5393799999999995,16.99964,72.0
1774821800.2836137,0.004436492919921875,2026-03-29T22:03:20.283,2026-03-29T18:03:20.283,-32073.84,-50702.67,-86462.37,-50755.229999999996,-16903.17,-21463.065,3779.19,-45763.244999999995,-0.09453773902767187,1.0619488156385029,0.13132372058775985,-1.5516999551596082,-3.457704614611824,-6.69644779982858,-2.3377554803477487,-1.170442299759676,0.11584443,-0.79992471,0.6127914,0.94612,-5.82932,16.69444,72.0
1774821800.283626,1.239776611328125e-05,2026-03-29T22:03:20.283,2026-03-29T18:03:20.283,-32069.114999999998,-50696.82,-86461.155,-50753.295,-16898.985,-21450.87,3783.06,-45757.799999999996,1.0214902090165139,2.439749005291289,2.745560734778374,1.846354549909435,0.06675287280256761,-2.382163609805655,0.7685502887514928,0.9019802015687608,0.11584443,-0.79992471,0.6127914,0.94612,-5.82932,16.69444,72.0
1774821800.2873116,0.003685474395751953,2026-03-29T22:03:20.287,2026-03-29T18:03:20.287,-32060.34,-50694.57,-86457.42,-50755.229999999996,-16894.53,-21432.96,3798.585,-45743.58,1.9822013561600125,2.781554762143047,3.9723346110874456,4.181756500132655,3.30988123454022,2.7042336171509334,3.410481433565581,2.870604533719044,0.11584443,-0.79992471,0.6127914,0.94612,-5.82932,16.69444,72.0
1774821800.2873328,2.1219253540039062e-05,2026-03-29T22:03:20.287,2026-03-29T18:03:20.287,-32065.469999999998,-50691.15,-86446.44,-50746.229999999996,-16884.899999999998,-21423.825,3800.205,-45751.905,2.272955285915929,1.9487239584976188,3.3055954008872255,4.504169541907663,4.948543678741157,6.45932366926083,4.161380052124549,3.6378782200888264,0.11584443,-0.79992471,0.6127914,0.94612,-5.82932,16.69444,72.0
1774821800.2914765,0.004143714904785156,2026-03-29T22:03:20.291,2026-03-29T18:03:20.291,-32053.364999999998,-50680.665,-86438.745,-50735.07,-16876.035,-21423.239999999998,3797.865,-45747.99,1.5735255104767576,0.2997021802740058,1.148439152232814,2.842537465333927,4.44768261727967,7.444358506770403,2.6178482472818567,2.600532286285778,0.11584443,-0.79992471,0.6127914,0.94612,-5.82932,16.69444,72.0
1774821800.2914927,1.621246337890625e-05,2026-03-29T22:03:20.291,2026-03-29T18:03:20.291,-32045.129999999997,-50693.625,-86469.03,-50770.395,-16911.18,-21455.325,3771.4049999999997,-45736.92,-0.0038509772264113382,-1.462896996845027,-1.4174814174076553,0.10760508375254613,2.2036264258369536,5.414000608530545,-0.39195012616710245,0.0481184853088715,0.11584443,-0.79992471,0.6127914,0.94612,-5.82932,16.69444,72.0
1774821800.2968032,0.005310535430908203,2026-03-29T22:03:20.296,2026-03-29T18:03:20.296,-32065.425,-50717.655,-86494.185,-50795.369999999995,-16934.625,-21476.204999999998,3742.875,-45744.795,-1.865038480801244,-2.5912425164753077,-3.1747832873931556,-2.4015832970080933,-0.7214413312567601,1.3279848445812057,-3.2497512564031203,-2.8791082325577664,0.11584443,-0.79992471,0.6127914,0.94612,-5.82932,16.69444,72.0
1774821800.2968185,1.52587890625e-05,2026-03-29T22:03:20.296,2026-03-29T18:03:20.296,-32085.989999999998,-50716.845,-86476.905,-50771.115,-16909.38,-21454.02,3786.615,-45763.29,-3.145912049922138,-2.610616473521237,-3.352451030525645,-3.6216442052676947,-3.10932071258879,-3.1095021936381255,-4.404370955668523,-4.698845758997288,0.11584443,-0.79992471,0.6127914,0.94612,-5.82932,16.69444,72.0
1774821800.298884,0.002065420150756836,2026-03-29T22:03:20.298,2026-03-29T18:03:20.298,-32079.059999999998,-50714.82,-86476.095,-50769.27,-16906.14,-21452.715,3817.575,-45754.064999999995,-3.117901644462467,-1.5213770870472778,-1.9665139911858898,-3.17599053861976,-4.091641615655063,-6.158113939235988,-3.1950839801363324,-4.336002199934545,0.11584443,-0.79992471,0.6127914,0.94612,-5.82932,16.69444,72.0
1774821800.2988968,1.2874603271484375e-05,2026-03-29T22:03:20.298,2026-03-29T18:03:20.298,-32051.925,-50696.369999999995,-86462.09999999999,-50761.53,-16900.02,-21445.875,3827.295,-45727.56,-1.5952306414542217,0.20241631527653767,0.23255218625863527,-1.4613654627929613,-3.4423513383323563,-6.704166076862997,-0.21038048504608403,-1.7343770601737507,0.11584443,-0.79992471,0.6127914,0.94612,-5.82932,16.69444,72.0
1774821800.3030393,0.0041425228118896484,2026-03-29T22:03:20.303,2026-03-29T18:03:20.303,-32060.835,-50705.145,-86469.97499999999,-50764.95,-16902.315,-21447.54,3815.055,-45732.869999999995,0.8809203763948648,1.817958985512054,2.1602771954955413,0.6286717217741652,-1.5727963979491284,-4.637067126647072,3.0066781862884104,2.0090032022858337,0.113097855,-0.800962305,0.61181484,-0.16785999999999998,-5.82932,16.38924,72.0
1774821800.3030615,2.2172927856445312e-05,2026-03-29T22:03:20.303,2026-03-29T18:03:20.303,-32063.715,-50710.59,-86473.62,-50767.695,-16902.27,-21444.795,3812.85,-45733.005,3.2160261846955307,2.63453031007647,2.934762895633718,2.169135660734499,0.7148292451195136,-0.831364202656837,4.7558326464503535,5.10254994547644,0.113097855,-0.800962305,0.61181484,-0.16785999999999998,-5.82932,16.38924,72.0
1774821800.3077493,0.004687786102294922,2026-03-29T22:03:20.307,2026-03-29T18:03:20.307,-32051.969999999998,-50703.525,-86471.955,-50773.68,-16910.73,-21454.875,3797.595,-45722.7,4.250569110067052,2.31148796284009,2.282629205131389,2.615035502320859,2.5724389610526655,3.2227709418245625,4.067784791140098,5.922914190760299,0.113097855,-0.800962305,0.61181484,-0.16785999999999998,-5.82932,16.38924,72.0
1774821800.3077607,1.1444091796875e-05,2026-03-29T22:03:20.307,2026-03-29T18:03:20.307,-32064.03,-50704.92,-86466.23999999999,-50763.015,-16899.885,-21448.17,3787.02,-45737.325,3.3436237135587654,1.0036415387525541,0.6259645462242175,1.9744466420980586,3.4003590108108046,5.984396765589191,1.2227421225197246,3.8643561694922886,0.113097855,-0.800962305,0.61181484,-0.16785999999999998,-5.82932,16.38924,72.0
1774821800.311368,0.0036072731018066406,2026-03-29T22:03:20.311,2026-03-29T18:03:20.311,-32073.12,-50705.415,-86462.37,-50751.134999999995,-16884.63,-21429.989999999998,3810.5099999999998,-45752.895,0.7548669391640735,-0.7097632872646263,-1.1714308287140422,0.7008243674148298,3.001060804134685,6.418669010550993,-2.3720251247148765,-0.26872868254600757,0.113097855,-0.800962305,0.61181484,-0.16785999999999998,-5.82932,16.38924,72.0
1774821800.3113928,2.47955322265625e-05,2026-03-29T22:03:20.311,2026-03-29T18:03:20.311,-32064.48,-50715.045,-86484.645,-50777.369999999995,-16909.829999999998,-21452.265,3823.02,-45736.56,-2.39693931898341,-2.081328355074842,-2.252214103327889,-0.5943559044087169,1.5811116009908124,4.362069235583606,-4.887926251010219,-4.56430208160872,0.113097855,-0.800962305,0.61181484,-0.16785999999999998,-5.82932,16.38924,72.0
1774821800.31501,0.0036172866821289062,2026-03-29T22:03:20.315,2026-03-29T18:03:20.315,-32058.09,-50710.229999999996,-86483.79,-50784.165,-16919.415,-21466.35,3809.52,-45727.74,-4.619415247735542,-2.523921074547691,-2.17592832691037,-1.4364552365129089,-0.35541196277581744,0.5813657561746204,-5.006373471928095,-6.8940989915028315,0.113097855,-0.800962305,0.61181484,-0.16785999999999998,-5.82932,16.38924,72.0
1774821800.3150237,1.3589859008789062e-05,2026-03-29T22:03:20.315,2026-03-29T18:03:20.315,-32055.12,-50701.095,-86469.97499999999,-50775.345,-16912.035,-21459.915,3801.105,-45725.04,-4.7650366850336106,-1.8658280099697264,-1.094000157280964,-1.6466239005816241,-2.1665829677532273,-3.4928368555479636,-2.600703972911329,-5.975776898338019,0.113097855,-0.800962305,0.61181484,-0.16785999999999998,-5.82932,16.38924,72.0
1774821800.3191953,0.004171609878540039,2026-03-29T22:03:20.319,2026-03-29T18:03:20.319,-32054.399999999998,-50699.79,-86469.20999999999,-50773.725,-16913.43,-21465.989999999998,3798.81,-45721.08,-2.6317724919915144,-0.4198517082831394,0.37790131124723475,-1.3208000197180847,-3.2469661286611458,-6.277042688031944,1.180963378335096,-2.07264509369685,0.113097855,-0.800962305,0.61181484,-0.16785999999999998,-5.82932,16.38924,72.0
1774821800.3192117,1.6450881958007812e-05,2026-03-29T22:03:20.319,2026-03-29T18:03:20.319,-32057.055,-50698.53,-86465.745,-50767.064999999995,-16908.165,-21465.18,3800.3849999999998,-45722.744999999995,0.8714936895158507,1.1630153115589545,1.5022716504405593,-0.6901041166297235,-3.195938261543801,-6.626375421779595,4.477939873283892,3.048301235524151,0.113097855,-0.800962305,0.61181484,-0.16785999999999998,-5.82932,16.38924,72.0
1774821800.3233342,0.004122495651245117,2026-03-29T22:03:20.323,2026-03-29T18:03:20.323,-32068.26,-50701.59,-86465.565,-50763.42,-16903.26,-21463.155,3789.54,-45743.534999999996,4.1099087860713865,2.1878922663900773,1.7891684897509876,0.02493682621602681,-1.9569196091707808,-4.300343820693564,5.643163327622405,6.920937980507282,0.11193819,-0.809140995,0.61315761,3.6318799999999998,-6.653359999999999,15.8704,72.0
1774821800.3233633,2.9087066650390625e-05,2026-03-29T22:03:20.323,2026-03-29T18:03:20.323,-32054.355,-50714.46,-86490.36,-50790.555,-16929.18,-21484.755,3762.54,-45719.685,5.496819096206408,2.224654654001397,1.2069937277842346,0.6792494314537457,0.11456997275859192,-0.11687781245437165,4.067969035888576,7.579317206115916,0.11193819,-0.809140995,0.61315761,3.6318799999999998,-6.653359999999999,15.8704,72.0
1774821800.326824,0.0034606456756591797,2026-03-29T22:03:20.326,2026-03-29T18:03:20.326,-32048.684999999998,-50706.09,-86476.995,-50775.57,-16912.215,-21464.64,3774.375,-45711.63,4.285839799272296,1.2920657026614595,0.14501565169013686,1.1759960700868093,2.306869958903783,4.299064935456046,0.4913243597499151,4.563724980808413,0.11193819,-0.809140995,0.61315761,3.6318799999999998,-6.653359999999999,15.8704,72.0
1774821800.3268409,1.6927719116210938e-05,2026-03-29T22:03:20.326,2026-03-29T18:03:20.326,-32078.25,-50695.29,-86443.875,-50738.174999999996,-16873.785,-21424.905,3796.2,-45759.915,0.9793892920595815,-0.1633377078446187,-0.8282937302596648,1.4078433161175903,3.7605962249360187,7.118881513236126,-3.360776798381154,-0.7844409770685565,0.11193819,-0.809140995,0.61315761,3.6318799999999998,-6.653359999999999,15.8704,72.0
1774821800.330985,0.004144191741943359,2026-03-29T22:03:20.330,2026-03-29T18:03:20.330,-32065.829999999998,-50690.52,-86447.87999999999,-50744.295,-16878.555,-21422.969999999998,3813.39,-45749.744999999995,-2.8719742085282634,-1.4798200594699715,-1.2673846229925574,1.246552739419381,3.793084925190357,7.058543563700354,-5.624145734127023,-5.919023271261165,0.11193819,-0.809140995,0.61315761,3.6318799999999998,-6.653359999999999,15.8704,72.0
1774821800.3310063,2.1219253540039062e-05,2026-03-29T22:03:20.331,2026-03-29T18:03:20.331,-32071.725,-50709.33,-86472.09,-50763.465,-16898.715,-21445.965,3788.5499999999997,-45749.34,-5.404158120565593,-2.0836582280227063,-1.052007468859781,0.616027756497151,2.2242724276247103,3.971209960684882,-5.209493988192666,-8.31236575230763,0.11193819,-0.809140995,0.61315761,3.6318799999999998,-6.653359999999999,15.8704,72.0
1774821800.3374026,0.006396293640136719,2026-03-29T22:03:20.337,2026-03-29T18:03:20.337,-32085.989999999998,-50723.145,-86479.155,-50770.215,-16907.445,-21463.559999999998,3771.4049999999997,-45753.479999999996,-5.3569640951860755,-1.7428482651743946,-0.3981637911118019,-0.39266289360382506,-0.4533900372975461,-0.9924089420774854,-2.3278117131873994,-6.713246459018348,0.11193819,-0.809140995,0.61315761,3.6318799999999998,-6.653359999999999,15.8704,72.0
1774821800.3374245,2.193450927734375e-05,2026-03-29T22:03:20.337,2026-03-29T18:03:20.337,-32088.69,-50719.005,-86475.87,-50774.22,-16915.59,-21475.62,3771.765,-45749.744999999995,-2.7164519650108687,-0.6572511806930544,0.30386314662662,-1.4592374063582325,-3.184599901862196,-5.778439883925472,1.6262060755977488,-1.8079167941578418,0.11193819,-0.809140995,0.61315761,3.6318799999999998,-6.653359999999999,15.8704,72.0
1774821800.3374467,2.2172927856445312e-05,2026-03-29T22:03:20.337,2026-03-29T18:03:20.337,-32065.02,-50699.835,-86455.89,-50752.439999999995,-16896.78,-21462.03,3790.62,-45732.645,1.251238405196827,0.650568821593308,0.7165203510753287,-2.1079779006294035,-4.749843095055472,-8.265619152546213,4.765611692573236,4.067310735734972,0.11193819,-0.809140995,0.61315761,3.6318799999999998,-6.653359999999999,15.8704,72.0
1774821800.337459,1.239776611328125e-05,2026-03-29T22:03:20.337,2026-03-29T18:03:20.337,-32044.094999999998,-50692.545,-86449.31999999999,-50745.465,-16888.005,-21440.43,3815.2349999999997,-45711.72,4.608225938512745,1.5865961811225056,0.7171474120178071,-1.921571767658865,-4.313100610583877,-7.2108166689888105,5.62816094804025,8.045773208519348,0.11193819,-0.809140995,0.61315761,3.6318799999999998,-6.653359999999999,15.8704,72.0
