unix_time_s,dt_s,UTC,LOCAL,EMG1_Raw,EMG2_Raw,EMG3_Raw,EMG4_Raw,EMG5_Raw,EMG6_Raw,EMG7_Raw,EMG8_Raw,EMG1_Filtered,EMG2_Filtered,EMG3_Filtered,EMG4_Filtered,EMG5_Filtered,EMG6_Filtered,EMG7_Filtered,EMG8_Filtered,Accel1_Raw,Accel2_Raw,Accel3_Raw,Gyro1_Raw,Gyro2_Raw,Gyro3_Raw,Battery
1774821922.4442613,,2026-03-29T22:05:22.444,2026-03-29T18:05:22.444,-31730.715,-49926.375,-85167.315,-50350.275,-15508.845,-20655.18,4678.514999999999,-53806.275,-0.014056737118066948,0.4061972936485839,-0.09479031248776502,0.9659692326119848,0.43093457522272144,-0.2047843960895655,-1.4120290509272941,-0.028123655706197563,0.31274334,-0.958066395,-0.027526785,0.07629999999999999,13.291459999999999,5.00528,72.0
1774821922.444294,3.266334533691406e-05,2026-03-29T22:05:22.444,2026-03-29T18:05:22.444,-31730.445,-49928.445,-85163.94,-50350.68,-15514.425,-20661.75,4665.375,-53806.905,0.9195855629749492,-2.1955772879496704,-0.4879644041982007,0.7424307345987315,-0.6312014299904385,-1.2670442638117627,-3.398525190808834,1.436599875159315,0.31274334,-0.958066395,-0.027526785,0.07629999999999999,13.291459999999999,5.00528,72.0
1774821922.447092,0.0027980804443359375,2026-03-29T22:05:22.447,2026-03-29T18:05:22.447,-31726.574999999997,-49945.59,-85175.86499999999,-50359.32,-15524.955,-20669.625,4660.47,-53798.445,1.4173323821221362,-3.9485474883231424,-1.0555018998034855,-0.13854553747229223,-1.6195246479662395,-1.874076940087245,-3.8994562747550345,2.0921396710239133,0.31274334,-0.958066395,-0.027526785,0.07629999999999999,13.291459999999999,5.00528,72.0
1774821922.4471033,1.1205673217773438e-05,2026-03-29T22:05:22.447,2026-03-29T18:05:22.447,-31730.129999999997,-49968.585,-85207.095,-50375.205,-15535.935,-20674.53,4661.28,-53789.22,1.2158945786733517,-4.2116368223875265,-1.7635120602537628,-1.4862139301766508,-2.261956329909759,-1.8617164924308283,-2.6749584714558567,1.6905609542307303,0.31274334,-0.958066395,-0.027526785,0.07629999999999999,13.291459999999999,5.00528,72.0
1774821922.4786825,0.03157925605773926,2026-03-29T22:05:22.478,2026-03-29T18:05:22.478,-31729.995,-49962.869999999995,-85231.89,-50397.165,-15544.845,-20681.73,4658.445,-53788.994999999995,0.40217286568196786,-2.894390488062326,-2.2336759247312115,-2.6579014401530983,-2.2726642452714603,-1.249573646745012,-0.2535743470780048,0.5312642098410232,0.31274334,-0.958066395,-0.027526785,0.07629999999999999,13.291459999999999,5.00528,72.0
1774821922.4787033,2.0742416381835938e-05,2026-03-29T22:05:22.478,2026-03-29T18:05:22.478,-31721.895,-49948.604999999996,-85236.48,-50421.78,-15556.14,-20689.829999999998,4652.46,-53785.619999999995,-0.6257074070883605,-0.4782215201977245,-1.9348354072221134,-2.8637777860784377,-1.4761491539751677,-0.22244944669247615,2.296546127261403,-0.7343505226313901,0.31274334,-0.958066395,-0.027526785,0.07629999999999999,13.291459999999999,5.00528,72.0
1774821922.478722,1.8835067749023438e-05,2026-03-29T22:05:22.478,2026-03-29T18:05:22.478,-31723.605,-49927.275,-85191.84,-50402.295,-15556.095,-20695.725,4642.335,-53798.895,-1.3569462113483453,2.1569129576156763,-0.5670155312465069,-1.6439140456824417,0.03852420021534024,0.9158724341355948,3.841663744612994,-1.4678588791877998,0.31274334,-0.958066395,-0.027526785,0.07629999999999999,13.291459999999999,5.00528,72.0
1774821922.4787292,7.152557373046875e-06,2026-03-29T22:05:22.478,2026-03-29T18:05:22.478,-31733.954999999998,-49909.994999999995,-85141.305,-50352.975,-15521.805,-20667.645,4657.365,-53816.445,-1.4258498078503123,4.038705134715275,1.6017304496881741,0.7545442396631175,1.836576614374733,1.810870128944495,3.690222049804996,-1.3749691570113134,0.31274334,-0.958066395,-0.027526785,0.07629999999999999,13.291459999999999,5.00528,72.0
1774821922.4787376,8.344650268554688e-06,2026-03-29T22:05:22.478,2026-03-29T18:05:22.478,-31728.555,-49894.604999999996,-85125.285,-50331.195,-15500.205,-20649.465,4673.429999999999,-53819.415,-0.7971941496984781,4.4430838822389465,3.692541633115596,3.35024506268322,3.2215225552075535,2.146836632292231,1.9052717753312898,-0.6275296366969627,0.309264345,-0.950253915,-0.02783196,-3.54032,12.391119999999999,3.4335,72.0
1774821922.478744,6.4373016357421875e-06,2026-03-29T22:05:22.478,2026-03-29T18:05:22.478,-31728.239999999998,-49905.63,-85144.815,-50346.945,-15510.015,-20657.024999999998,4671.54,-53815.814999999995,0.21594990331094643,3.1608931454218987,4.56442565171535,4.827398818882052,3.4979110245330767,1.74887729640198,-0.721090456577366,0.276664192459247,0.309264345,-0.950253915,-0.02783196,-3.54032,12.391119999999999,3.4335,72.0
1774821922.478752,7.867813110351562e-06,2026-03-29T22:05:22.478,2026-03-29T18:05:22.478,-31743.899999999998,-49927.275,-85165.65,-50361.525,-15521.849999999999,-20664.405,4671.045,-53826.93,1.1111914314700861,0.6000199353526152,3.420547670762816,4.200676104533879,2.317734707737599,0.6700630212105085,-3.021559978535521,0.8225268540856977,0.309264345,-0.950253915,-0.02783196,-3.54032,12.391119999999999,3.4335,72.0
1774821922.478758,6.198883056640625e-06,2026-03-29T22:05:22.478,2026-03-29T18:05:22.478,-31736.745,-49935.689999999995,-85176.855,-50378.174999999996,-15536.205,-20678.445,4666.275,-53813.88,1.4509640044399637,-2.324144588310439,0.3557603969084389,1.4096938468525895,-0.06114791331686535,-0.7783810138114553,-3.9768269545300883,0.7715189580940905,0.309264345,-0.950253915,-0.02783196,-3.54032,12.391119999999999,3.4335,72.0
1774821922.4787662,8.106231689453125e-06,2026-03-29T22:05:22.478,2026-03-29T18:05:22.478,-31724.37,-49922.865,-85156.605,-50365.53,-15520.994999999999,-20666.204999999998,4664.16,-53800.155,1.0814475286022454,-4.493180345215444,-3.4904952082645764,-2.496856495612161,-2.7679991012983978,-2.0908872634731397,-3.171634794150353,0.2736089700846508,0.309264345,-0.950253915,-0.02783196,-3.54032,12.391119999999999,3.4335,72.0
1774821922.4787724,6.198883056640625e-06,2026-03-29T22:05:22.478,2026-03-29T18:05:22.478,-31724.55,-49934.744999999995,-85182.705,-50376.78,-15532.92,-20677.68,4639.1849999999995,-53803.305,0.20464062252902127,-4.997641036152731,-6.3372259270826286,-5.74354468952874,-4.623076117133158,-2.7303539078974794,-0.9773765025592216,-0.2589854183224559,0.309264345,-0.950253915,-0.02783196,-3.54032,12.391119999999999,3.4335,72.0
1774821922.4787803,7.867813110351562e-06,2026-03-29T22:05:22.478,2026-03-29T18:05:22.478,-31736.879999999997,-49945.905,-85204.665,-50377.86,-15532.064999999999,-20678.219999999998,4637.205,-53821.17,-0.7315241546666075,-3.514554808686655,-6.590668649533558,-6.644271107681904,-4.654993670598827,-2.3456107852206225,1.6204102842416104,-0.4318768143168129,0.309264345,-0.950253915,-0.02783196,-3.54032,12.391119999999999,3.4335,72.0
1774821922.4787865,6.198883056640625e-06,2026-03-29T22:05:22.478,2026-03-29T18:05:22.478,-31735.62,-49933.755,-85192.02,-50360.49,-15515.055,-20659.545,4681.889999999999,-53822.924999999996,-1.265832996092259,-0.4965694307991206,-3.7114543430783935,-4.472729680368819,-2.603279118195694,-0.9567895726411352,3.4692728612910257,-0.1283447964236309,0.309264345,-0.950253915,-0.02783196,-3.54032,12.391119999999999,3.4335,72.0
1774821922.4787943,7.867813110351562e-06,2026-03-29T22:05:22.478,2026-03-29T18:05:22.478,-31726.035,-49923.54,-85170.015,-50353.83,-15510.375,-20651.265,4708.17,-53794.799999999996,-1.1572421577207685,2.9321601076869253,1.3425937396431447,0.060359350763766466,0.8516718901830145,0.9866547406838425,3.766790628093548,0.4118644959915095,0.309264345,-0.950253915,-0.02783196,-3.54032,12.391119999999999,3.4335,72.0
1774821922.4788005,6.198883056640625e-06,2026-03-29T22:05:22.478,2026-03-29T18:05:22.478,-31729.41,-49920.255,-85153.635,-50350.545,-15508.845,-20655.945,4690.26,-53799.119999999995,-0.49860328198904474,5.373276820727897,6.392559913752081,5.0095168192642765,4.287077295108418,2.73101092186878,2.4124587478562427,0.746533914309791,0.309264345,-0.950253915,-0.02783196,-3.54032,12.391119999999999,3.4335,72.0
1774821922.478808,7.3909759521484375e-06,2026-03-29T22:05:22.478,2026-03-29T18:05:22.478,-31720.905,-49920.615,-85154.04,-50350.77,-15510.33,-20659.094999999998,4679.505,-53795.744999999995,0.34534648118226924,5.717481794279275,8.981345637009738,8.037909673695783,6.123827954977999,3.504444601140022,0.03803432577551851,0.5275075806157652,0.30541914,-0.948667005,-0.02966301,-7.52318,8.36248,3.0672599999999997,72.0
1774821922.478814,5.9604644775390625e-06,2026-03-29T22:05:22.478,2026-03-29T18:05:22.478,-31728.735,-49922.685,-85160.97,-50354.145,-15513.57,-20661.885,4678.425,-53800.38,0.9386005577439369,3.6516037976372773,7.574044759381255,7.532247612514682,5.3588641597181965,2.8590128089168716,-2.290985619290535,-0.24223857312413818,0.30541914,-0.948667005,-0.02966301,-7.52318,8.36248,3.0672599999999997,72.0
1774821922.482647,0.0038330554962158203,2026-03-29T22:05:22.482,2026-03-29T18:05:22.482,-31730.355,-49907.835,-85151.83499999999,-50347.35,-15509.835,-20658.87,4676.13,-53810.189999999995,1.0037197231389843,-0.12301763084947685,2.4273881803990123,3.4521996072736556,2.1013953665518876,0.916962130321157,-3.5601308206106803,-1.158313490636013,0.30541914,-0.948667005,-0.02966301,-7.52318,8.36248,3.0672599999999997,72.0
1774821922.4826553,8.344650268554688e-06,2026-03-29T22:05:22.482,2026-03-29T18:05:22.482,-31734.809999999998,-49903.11,-85152.015,-50350.905,-15511.095,-20656.8,4676.535,-53822.295,0.5583656750207846,-4.097065755748456,-4.349927344809893,-2.529092880393557,-2.3693536576429732,-1.6095577939566192,-3.2531297557446806,-1.6219216667463174,0.30541914,-0.948667005,-0.02966301,-7.52318,8.36248,3.0672599999999997,72.0
1774821922.4862895,0.003634214401245117,2026-03-29T22:05:22.486,2026-03-29T18:05:22.486,-31739.715,-49919.4,-85174.425,-50375.43,-15533.91,-20670.84,4679.415,-53823.735,-0.11146916655874078,-6.544729719032426,-9.656265304637264,-7.713245623159515,-6.100054574839765,-3.6676514511660745,-1.56138306770659,-1.200031075604492,0.30541914,-0.948667005,-0.02966301,-7.52318,8.36248,3.0672599999999997,72.0
1774821922.4862971,7.62939453125e-06,2026-03-29T22:05:22.486,2026-03-29T18:05:22.486,-31741.469999999998,-49929.57,-85181.265,-50378.265,-15535.215,-20672.145,4674.105,-53823.195,-0.6220546773951353,-6.275847055656289,-10.828444754201644,-9.609452579678331,-7.3241849761010585,-4.301372789343442,0.729435681944994,0.06835709837096264,0.30541914,-0.948667005,-0.02966301,-7.52318,8.36248,3.0672599999999997,72.0
1774821922.4951568,0.008859634399414062,2026-03-29T22:05:22.495,2026-03-29T18:05:22.495,-31740.12,-49932.854999999996,-85183.29,-50372.82,-15526.845,-20669.625,4665.105,-53819.64,-0.7090087910172742,-3.220466612955462,-6.979759772526753,-7.141659735051035,-5.305232704541538,-3.0968552790306982,2.610908685150981,1.6139678249910292,0.30541914,-0.948667005,-0.02966301,-7.52318,8.36248,3.0672599999999997,72.0
1774821922.4951816,2.47955322265625e-05,2026-03-29T22:05:22.495,2026-03-29T18:05:22.495,-31735.62,-49932.63,-85185.54,-50376.104999999996,-15529.68,-20673.18,4656.78,-53812.619999999995,-0.36962589946305463,1.4433094002344542,0.427982062333205,-1.2407121083505013,-0.7570191615656577,-0.4273809935821712,3.302791916340911,2.5919873158032667,0.30541914,-0.948667005,-0.02966301,-7.52318,8.36248,3.0672599999999997,72.0
1774821922.4952035,2.193450927734375e-05,2026-03-29T22:05:22.495,2026-03-29T18:05:22.495,-31727.07,-49923.9,-85172.58,-50361.93,-15518.925,-20666.385,4653.9,-53805.375,0.14777734601441816,5.724566080228799,8.119660882176133,5.497485604330531,4.39073599943098,2.638800701358446,2.5779420868216327,2.3361994522231866,0.30541914,-0.948667005,-0.02966301,-7.52318,8.36248,3.0672599999999997,72.0
1774821922.4952135,1.0013580322265625e-05,2026-03-29T22:05:22.495,2026-03-29T18:05:22.495,-31725.449999999997,-49917.869999999995,-85157.595,-50345.46,-15508.574999999999,-20657.52,4652.955,-53805.284999999996,0.4993379199726359,7.668762926943582,12.46477530404274,9.96718445861481,7.815238532585538,4.760762635545659,0.8247305025242213,0.7707991944022189,0.30541914,-0.948667005,-0.02966301,-7.52318,8.36248,3.0672599999999997,72.0
1774821922.4985583,0.0033447742462158203,2026-03-29T22:05:22.498,2026-03-29T18:05:22.498,-31721.625,-49915.439999999995,-85157.415,-50348.564999999995,-15515.505,-20662.875,4643.6849999999995,-53802.314999999995,0.4556899230321862,6.25990845078185,11.204684448827505,10.001117831917544,7.859268643221172,4.913373857409102,-1.1624772559973469,-1.4620691876236922,0.30200118,-0.954770505,-0.031188885,-7.7063,6.5618,2.2889999999999997,72.0
1774821922.4985733,1.5020370483398438e-05,2026-03-29T22:05:22.498,2026-03-29T18:05:22.498,-31719.555,-49919.939999999995,-85170.78,-50359.095,-15521.67,-20666.79,4663.845,-53798.13,0.04438426984151073,1.955305502668529,4.621669226536488,5.42923668826727,4.338705086703739,2.8831592831640958,-2.5515383920504853,-3.263234140032734,0.30200118,-0.954770505,-0.031188885,-7.7063,6.5618,2.2889999999999997,72.0
1774821922.5049498,0.006376504898071289,2026-03-29T22:05:22.504,2026-03-29T18:05:22.504,-31721.985,-49929.75,-85187.925,-50371.784999999996,-15529.769999999999,-20671.605,4675.545,-53792.055,-0.46054007816551945,-3.429504750830391,-4.452881890361541,-1.7723107590771638,-1.296552497658525,-0.5682558133417518,-2.824677083693629,-3.621494425535637,0.30200118,-0.954770505,-0.031188885,-7.7063,6.5618,2.2889999999999997,72.0
1774821922.5049677,1.7881393432617188e-05,2026-03-29T22:05:22.504,2026-03-29T18:05:22.504,-31728.69,-49940.1,-85206.87,-50399.369999999995,-15554.295,-20691.899999999998,4664.835,-53792.954999999994,-0.700484705344421,-7.480685864112251,-11.859457401789786,-8.342922387427551,-6.557899728381338,-3.978116804891853,-1.9631596965439797,-2.1704279003270175,0.30200118,-0.954770505,-0.031188885,-7.7063,6.5618,2.2889999999999997,72.0
1774821922.5070431,0.0020754337310791016,2026-03-29T22:05:22.507,2026-03-29T18:05:22.507,-31747.725,-49931.325,-85185.36,-50385.195,-15532.109999999999,-20666.925,4675.23,-53829.314999999995,-0.4557661755216376,-8.276600081935225,-14.032680313208932,-11.230478697382493,-9.026253571455081,-5.802173003355507,-0.4030077537872662,0.546109303941262,0.30200118,-0.954770505,-0.031188885,-7.7063,6.5618,2.2889999999999997,72.0
1774821922.507061,1.7881393432617188e-05,2026-03-29T22:05:22.507,2026-03-29T18:05:22.507,-31750.155,-49921.47,-85163.22,-50367.195,-15519.24,-20655.719999999998,4681.125,-53843.13,0.19973707727140277,-5.312748955387416,-9.729583763044957,-9.024483998766236,-7.475727340684433,-5.118113672843864,1.1917543549245062,3.269852231424839,0.30200118,-0.954770505,-0.031188885,-7.7063,6.5618,2.2889999999999997,72.0
1774821922.512314,0.0052530765533447266,2026-03-29T22:05:22.512,2026-03-29T18:05:22.512,-31743.585,-49925.115,-85166.955,-50367.284999999996,-15529.814999999999,-20671.605,4670.46,-53821.755,0.9103783476568332,0.18963923997540044,-0.7212909197243843,-2.6500925041313987,-2.486145775018858,-2.0909699338765315,2.2181165947712707,4.619858808025946,0.30200118,-0.954770505,-0.031188885,-7.7063,6.5618,2.2889999999999997,72.0
1774821922.5123312,1.71661376953125e-05,2026-03-29T22:05:22.512,2026-03-29T18:05:22.512,-31739.579999999998,-49930.155,-85182.93,-50373.045,-15532.65,-20679.93,4661.1449999999995,-53810.865,1.2237420728671613,5.7748427032026814,8.929095298225262,5.020004454477252,3.7626902264991675,2.0336602354919053,2.3559745238848286,3.7976401352533244,0.30200118,-0.954770505,-0.031188885,-7.7063,6.5618,2.2889999999999997,72.0
1774821922.514998,0.0026667118072509766,2026-03-29T22:05:22.514,2026-03-29T18:05:22.514,-31734.989999999998,-49927.634999999995,-85184.685,-50372.009999999995,-15531.39,-20680.155,4656.96,-53808.525,0.8551131037969426,8.853157930495573,14.711614538679441,10.472632949778735,8.448372360085896,5.437641538227581,1.6441713544078191,1.043025254540531,0.30200118,-0.954770505,-0.031188885,-7.7063,6.5618,2.2889999999999997,72.0
1774821922.515021,2.3126602172851562e-05,2026-03-29T22:05:22.515,2026-03-29T18:05:22.515,-31725.765,-49910.13,-85163.12999999999,-50364.54,-15523.515,-20666.43,4665.599999999999,-53818.875,-0.11613513807932965,7.915768842565616,13.793973827431582,11.179711663322466,9.392270347164876,6.535121336189681,0.4091589793068896,-2.4142734259243954,0.30200118,-0.954770505,-0.031188885,-7.7063,6.5618,2.2889999999999997,72.0
1774821922.5293744,0.014353275299072266,2026-03-29T22:05:22.529,2026-03-29T18:05:22.529,-31742.82,-49929.615,-85183.245,-50385.735,-15539.939999999999,-20677.32,4665.87,-53831.115,-1.2395630089521947,3.28785845876219,6.417332638581191,6.783156524440711,6.083770757034749,4.716781582738762,-0.8931306023119717,-4.913804330201383,0.300231165,-0.961240215,-0.03149406,-5.69198,5.02054,3.44876,72.0
1774821922.5293944,2.002716064453125e-05,2026-03-29T22:05:22.529,2026-03-29T18:05:22.529,-31740.164999999997,-49936.185,-85185.18,-50378.759999999995,-15529.814999999999,-20669.579999999998,4665.0599999999995,-53822.835,-1.9004669821619042,-2.9614277951063372,-4.127765331987448,-0.7212939486108426,-0.04365585709293562,0.6822146403956034,-1.841743829598815,-5.175273950057765,0.300231165,-0.961240215,-0.03149406,-5.69198,5.02054,3.44876,72.0
1774821922.5294137,1.9311904907226562e-05,2026-03-29T22:05:22.529,2026-03-29T18:05:22.529,-31726.8,-49943.97,-85189.095,-50377.994999999995,-15531.345,-20674.215,4653.72,-53806.545,-1.6462711207266194,-7.94350959481742,-12.975962702052334,-7.895964079715529,-6.233054444415502,-3.8182884214966726,-2.163728920808093,-2.9589490415829833,0.300231165,-0.961240215,-0.03149406,-5.69198,5.02054,3.44876,72.0
1774821922.5294209,7.152557373046875e-06,2026-03-29T22:05:22.529,2026-03-29T18:05:22.529,-31732.605,-49954.275,-85189.815,-50373.27,-15532.515,-20677.32,4643.325,-53806.77,-0.4623780728721727,-9.296843380712954,-15.948161491510655,-11.449182216263692,-9.652906839252658,-6.74369224524009,-1.7803877614494201,0.7675853935487379,0.300231165,-0.961240215,-0.03149406,-5.69198,5.02054,3.44876,72.0
1774821922.5294297,8.821487426757812e-06,2026-03-29T22:05:22.529,2026-03-29T18:05:22.529,-31748.355,-49981.994999999995,-85217.265,-50380.875,-15539.039999999999,-20679.165,4656.51,-53800.92,1.1609272717923742,-6.322554907413142,-11.54094657940421,-9.759962330001194,-8.70499793938908,-6.694108598871894,-0.8041527834680322,4.260779233949624,0.300231165,-0.961240215,-0.03149406,-5.69198,5.02054,3.44876,72.0
1774821922.529436,6.4373016357421875e-06,2026-03-29T22:05:22.529,2026-03-29T18:05:22.529,-31738.68,-49957.335,-85201.92,-50384.7,-15547.814999999999,-20683.844999999998,4678.38,-53783.865,2.4293573343945423,-0.3559170681401774,-1.6905580776012168,-3.6272064529260404,-3.7819097891075364,-3.5866738921694123,0.49075164374559194,5.834208813810523,0.300231165,-0.961240215,-0.03149406,-5.69198,5.02054,3.44876,72.0
1774821922.5382357,0.008799552917480469,2026-03-29T22:05:22.538,2026-03-29T18:05:22.538,-31750.02,-49929.165,-85184.955,-50375.52,-15536.295,-20674.35,4683.15,-53806.634999999995,2.632177018092214,5.8274090445188085,9.077838714624228,4.106552672789778,2.8890849397202043,1.2532123022715578,1.71741646571533,4.6874157702490145,0.300231165,-0.961240215,-0.03149406,-5.69198,5.02054,3.44876,72.0
1774821922.5382743,3.8623809814453125e-05,2026-03-29T22:05:22.538,2026-03-29T18:05:22.538,-31733.55,-49915.799999999996,-85177.62,-50369.354999999996,-15526.845,-20670.39,4671.315,-53812.665,1.5274665151500801,9.309244806492432,15.741680986940736,9.879763796300422,8.257053084693329,5.653922146255348,2.456656744016869,1.3163081679199675,0.300231165,-0.961240215,-0.03149406,-5.69198,5.02054,3.44876,72.0
1774821922.5383105,3.62396240234375e-05,2026-03-29T22:05:22.538,2026-03-29T18:05:22.538,-31743.18,-49921.83,-85166.81999999999,-50356.305,-15511.455,-20655.27,4668.84,-53824.365,-0.47951807992936374,8.42081103159231,15.140658544057255,11.064196200756205,9.852904039015478,7.576577433706425,2.37773784877061,-2.7071493632722765,0.300231165,-0.961240215,-0.03149406,-5.69198,5.02054,3.44876,72.0
1774821922.5383317,2.1219253540039062e-05,2026-03-29T22:05:22.538,2026-03-29T18:05:22.538,-31748.129999999997,-49918.59,-85158.045,-50347.89,-15498.945,-20642.355,4682.07,-53842.59,-2.477880935524078,3.5579499585377117,7.488146135395992,7.173210255217615,6.937497299997179,6.067839971158724,1.3798800687465047,-5.485531422155988,0.300231165,-0.961240215,-0.03149406,-5.69198,5.02054,3.44876,72.0
1774821922.5455055,0.007173776626586914,2026-03-29T22:05:22.545,2026-03-29T18:05:22.545,-31734.629999999997,-49915.665,-85161.06,-50351.85,-15511.904999999999,-20650.5,4683.014999999999,-53829.27,-3.467356129411326,-2.9854069544279684,-3.6939525269547975,0.06570808803444386,0.8532796279297499,1.7378451134866937,-0.30264147234560024,-5.710565983828045,0.29687424,-0.963681615,-0.030090255,-3.8912999999999998,4.577999999999999,3.26564,72.0
1774821922.5455322,2.6702880859375e-05,2026-03-29T22:05:22.545,2026-03-29T18:05:22.545,-31723.829999999998,-49914.36,-85168.08,-50362.244999999995,-15522.795,-20654.01,4684.455,-53814.645,-2.857744302824716,-8.10067984283599,-13.203931977002515,-6.941260577013434,-5.591528347017611,-3.4782181155407836,-2.105450450780742,-3.2918498692616285,0.29687424,-0.963681615,-0.030090255,-3.8912999999999998,4.577999999999999,3.26564,72.0
1774821922.5488572,0.0033249855041503906,2026-03-29T22:05:22.548,2026-03-29T18:05:22.548,-31708.934999999998,-49909.814999999995,-85170.555,-50380.604999999996,-15540.84,-20672.594999999998,4665.105,-53799.165,-0.8023361341470221,-9.3523849318887,-16.595517691834996,-10.627353700788717,-9.424518158266846,-7.1864904707058015,-3.294372655389762,0.6085086564871768,0.29687424,-0.963681615,-0.030090255,-3.8912999999999998,4.577999999999999,3.26564,72.0
1774821922.54887,1.2874603271484375e-05,2026-03-29T22:05:22.548,2026-03-29T18:05:22.548,-31699.26,-49901.445,-85161.285,-50381.145,-15540.119999999999,-20677.545,4650.66,-53796.555,1.8171033344857366,-6.152833792683702,-12.272220182571745,-9.359266522373748,-8.890656874107547,-7.640408259344357,-3.2549272109918386,4.147881983462779,0.29687424,-0.963681615,-0.030090255,-3.8912999999999998,4.577999999999999,3.26564,72.0
1774821922.5488813,1.1205673217773438e-05,2026-03-29T22:05:22.548,2026-03-29T18:05:22.548,-31697.594999999998,-49911.659999999996,-85170.33,-50377.005,-15534.539999999999,-20672.19,4662.764999999999,-53787.329999999994,3.7716590953471565,-0.050125921315459655,-2.247107670923457,-3.8224870450403334,-4.267030085805815,-4.572109480794315,-1.802363962844932,5.694468477203453,0.29687424,-0.963681615,-0.030090255,-3.8912999999999998,4.577999999999999,3.26564,72.0
1774821922.5488875,6.198883056640625e-06,2026-03-29T22:05:22.548,2026-03-29T18:05:22.548,-31729.23,-49925.07,-85153.31999999999,-50340.33,-15494.894999999999,-20635.469999999998,4684.005,-53806.275,4.06670286654582,6.017132809890789,8.797239082853759,3.3365901641455484,2.272187465923283,0.6502189048660783,0.6414412777318345,4.597542740739711,0.29687424,-0.963681615,-0.030090255,-3.8912999999999998,4.577999999999999,3.26564,72.0
1774821922.5560343,0.0071468353271484375,2026-03-29T22:05:22.556,2026-03-29T18:05:22.556,-31748.85,-49929.615,-85136.58,-50323.814999999995,-15482.519999999999,-20628.945,4671.045,-53822.744999999995,2.4461704637450112,9.140971676844442,15.708153590282906,8.775221719093594,7.677641738338566,5.63035117548447,3.127838275995999,1.4647013810216931,0.29687424,-0.963681615,-0.030090255,-3.8912999999999998,4.577999999999999,3.26564,72.0
1774821922.5560608,2.6464462280273438e-05,2026-03-29T22:05:22.556,2026-03-29T18:05:22.556,-31734.675,-49926.33,-85145.22,-50348.07,-15510.195,-20654.954999999998,4640.8949999999995,-53814.6,-0.4354802082695754,7.850531387254207,15.282667867951764,10.020883304656415,9.453054267143843,8.04824634128696,4.534989845565938,-2.173891299683058,0.29687424,-0.963681615,-0.030090255,-3.8912999999999998,4.577999999999999,3.26564,72.0
1774821922.556084,2.3126602172851562e-05,2026-03-29T22:05:22.556,2026-03-29T18:05:22.556,-31737.42,-49926.6,-85162.68,-50364.09,-15523.605,-20668.364999999998,4633.605,-53826.57,-3.277698277434266,2.8174023636391596,7.76371050460913,6.603001637950801,6.8178624546308235,6.749478928524931,4.072122158670734,-4.629415189096934,0.29687424,-0.963681615,-0.030090255,-3.8912999999999998,4.577999999999999,3.26564,72.0
1774821922.5560942,1.0251998901367188e-05,2026-03-29T22:05:22.556,2026-03-29T18:05:22.556,-31744.62,-49933.439999999995,-85185.94499999999,-50358.555,-15515.955,-20661.57,4662.36,-53837.685,-4.7280251604372685,-3.484570040444617,-3.2917694207585555,0.2286304538601208,1.05842765967762,2.3044765667529408,1.7087258865637442,-4.858159459911595,0.29687424,-0.963681615,-0.030090255,-3.8912999999999998,4.577999999999999,3.26564,72.0
1774821922.5629263,0.006832122802734375,2026-03-29T22:05:22.562,2026-03-29T18:05:22.562,-31751.19,-49941.99,-85201.37999999999,-50352.345,-15507.675,-20646.54,4703.804999999999,-53824.994999999995,-4.031490959222082,-7.996286516785941,-12.703438651521381,-6.062143982562705,-5.093712320724145,-3.2366824674058288,-1.6991224247962728,-2.913630294731712,0.29394456,-0.9631323,-0.02783196,-3.5860999999999996,3.8455199999999996,3.54032,72.0
1774821922.5629463,2.002716064453125e-05,2026-03-29T22:05:22.562,2026-03-29T18:05:22.562,-31747.635,-49949.28,-85208.895,-50354.415,-15507.449999999999,-20648.52,4697.639999999999,-53814.96,-1.4209207262978243,-8.5675574567222,-16.10946852821717,-9.345665113849739,-8.757987972858063,-7.291136141568988,-4.6961174350503345,0.15304632575287277,0.29394456,-0.9631323,-0.02783196,-3.5860999999999996,3.8455199999999996,3.54032,72.0
1774821922.579393,0.016446590423583984,2026-03-29T22:05:22.579,2026-03-29T18:05:22.579,-31724.37,-49920.119999999995,-85176.765,-50366.205,-15521.939999999999,-20660.67,4688.639999999999,-53802.63,1.9527486790377686,-4.993919647912297,-12.001566461974654,-8.177600053872528,-8.259472953987213,-7.953667604799057,-5.846420015425601,2.8624481580311807,0.29394456,-0.9631323,-0.02783196,-3.5860999999999996,3.8455199999999996,3.54032,72.0
1774821922.5794072,1.430511474609375e-05,2026-03-29T22:05:22.579,2026-03-29T18:05:22.579,-31723.02,-49900.14,-85147.56,-50368.905,-15524.955,-20657.43,4689.45,-53809.515,4.5345374697507825,0.9098650320264874,-2.397079317543737,-3.231992672244619,-3.902136028231148,-4.900381838150158,-4.422340050295046,4.0374176027789765,0.29394456,-0.9631323,-0.02783196,-3.5860999999999996,3.8455199999999996,3.54032,72.0
1774821922.57942,1.2874603271484375e-05,2026-03-29T22:05:22.579,2026-03-29T18:05:22.579,-31734.045,-49912.064999999995,-85160.52,-50380.784999999996,-15523.83,-20652.614999999998,4691.205,-53820.765,5.091520102076012,6.227225236958148,8.153496340704022,3.0677442286291363,2.1996587023398795,0.446738293064514,-0.8320285483285846,3.3269758505758684,0.29394456,-0.9631323,-0.02783196,-3.5860999999999996,3.8455199999999996,3.54032,72.0
1774821922.5794246,4.5299530029296875e-06,2026-03-29T22:05:22.579,2026-03-29T18:05:22.579,-31739.76,-49930.2,-85181.4,-50393.384999999995,-15537.555,-20668.41,4675.095,-53821.439999999995,3.3079867101049496,8.385811550549333,14.73433609893983,7.730085110036282,7.142719325274209,5.58027338081901,3.4549487015979996,1.2845275682190371,0.29394456,-0.9631323,-0.02783196,-3.5860999999999996,3.8455199999999996,3.54032,72.0
1774821922.57943,5.4836273193359375e-06,2026-03-29T22:05:22.579,2026-03-29T18:05:22.579,-31739.445,-49930.965,-85172.895,-50376.869999999995,-15535.125,-20670.84,4664.429999999999,-53820.314999999995,-0.04030132006948377,6.412385683636327,14.368940388573568,8.614933040421253,8.617187229452544,8.086604700731192,6.502926881189032,-0.9980850921053491,0.29394456,-0.9631323,-0.02783196,-3.5860999999999996,3.8455199999999996,3.54032,72.0
1774821922.5794337,3.5762786865234375e-06,2026-03-29T22:05:22.579,2026-03-29T18:05:22.579,-31740.254999999997,-49926.24,-85161.87,-50361.299999999996,-15519.914999999999,-20656.98,4668.795,-53825.354999999996,-3.427371024755894,1.3790583355000823,7.374136921560168,5.417749699109594,5.990273774426467,6.787480683244137,6.788853982808056,-2.4766235888070467,0.29394456,-0.9631323,-0.02783196,-3.5860999999999996,3.8455199999999996,3.54032,72.0
1774821922.5933423,0.013908624649047852,2026-03-29T22:05:22.593,2026-03-29T18:05:22.593,-31741.515,-49927.409999999996,-85162.23,-50358.33,-15516.314999999999,-20655.09,4673.5199999999995,-53826.615,-5.282256447811683,-4.167894382110556,-2.8564831454816138,-0.23517115024863042,0.5809374481351067,2.300755924760419,3.963209193935179,-2.6454361441145053,0.29394456,-0.9631323,-0.02783196,-3.5860999999999996,3.8455199999999996,3.54032,72.0
1774821922.5934317,8.940696716308594e-05,2026-03-29T22:05:22.593,2026-03-29T18:05:22.593,-31738.004999999997,-49930.424999999996,-85170.23999999999,-50367.645,-15527.43,-20667.465,4660.785,-53817.704999999994,-4.728276235902124,-7.496777805072169,-11.506204049707417,-5.6041086622864,-4.9950647974865525,-3.2495571847239253,-0.8874867642863465,-1.6967421767839974,0.29394456,-0.9631323,-0.02783196,-3.5860999999999996,3.8455199999999996,3.54032,72.0
1774821922.5934453,1.3589859008789062e-05,2026-03-29T22:05:22.593,2026-03-29T18:05:22.593,-31739.895,-49937.625,-85182.03,-50377.905,-15539.58,-20682.719999999998,4635.179999999999,-53818.74,-2.0040516595455395,-7.043935154600652,-14.616674401531988,-8.15833601849793,-8.086740888144146,-7.239283893833596,-5.645798205063016,-0.30660331818758546,0.295836645,-0.9625829850000001,-0.027770925000000002,-3.815,2.0601,4.36436,72.0
1774821922.5934494,4.0531158447265625e-06,2026-03-29T22:05:22.593,2026-03-29T18:05:22.593,-31739.399999999998,-49944.689999999995,-85196.43,-50392.665,-15555.824999999999,-20697.48,4614.795,-53824.68,1.6387677063013633,-3.1571704638645404,-10.90990629671224,-6.766718131208451,-7.268138341705661,-7.788959051680962,-8.092577510187873,0.7939777427981632,0.295836645,-0.9625829850000001,-0.027770925000000002,-3.815,2.0601,4.36436,72.0
1774821922.5934541,4.76837158203125e-06,2026-03-29T22:05:22.593,2026-03-29T18:05:22.593,-31722.254999999997,-49934.564999999995,-85189.23,-50381.415,-15547.769999999999,-20690.774999999998,4629.78,-53811.585,4.517790457726437,2.1290625068321574,-2.3067701446205855,-2.1968546831784757,-2.9976014574111063,-4.654727011537711,-6.950207309321338,1.2065822273773616,0.295836645,-0.9625829850000001,-0.027770925000000002,-3.815,2.0601,4.36436,72.0
1774821922.5934577,3.5762786865234375e-06,2026-03-29T22:05:22.593,2026-03-29T18:05:22.593,-31708.62,-49916.115,-85165.29,-50351.354999999996,-15517.305,-20662.155,4673.025,-53798.625,5.308491575733675,6.153343477527126,7.0650369651321885,3.2966015162535296,2.6296009165483376,0.6596885493381066,-2.545369759929381,1.0052560160893014,0.295836645,-0.9625829850000001,-0.027770925000000002,-3.815,2.0601,4.36436,72.0
1774821922.5934627,5.0067901611328125e-06,2026-03-29T22:05:22.593,2026-03-29T18:05:22.593,-31709.655,-49906.979999999996,-85148.055,-50334.255,-15497.82,-20641.68,4691.205,-53800.829999999994,3.6647432972123766,6.972031402330434,12.862637355920844,7.077588040037538,6.90466267211384,5.623015061581501,3.251237153967172,0.5824234232897615,0.295836645,-0.9625829850000001,-0.027770925000000002,-3.815,2.0601,4.36436,72.0
1774821922.5934663,3.5762786865234375e-06,2026-03-29T22:05:22.593,2026-03-29T18:05:22.593,-31716.495,-49903.244999999995,-85143.59999999999,-50341.59,-15498.314999999999,-20634.12,4692.33,-53812.799999999996,0.37580993450681277,4.307216580202617,12.552923241355536,7.388029497701294,7.805847783431364,7.883784536628757,7.822075647995078,0.3279606455340268,0.295836645,-0.9625829850000001,-0.027770925000000002,-3.815,2.0601,4.36436,72.0
1774821922.5934713,5.0067901611328125e-06,2026-03-29T22:05:22.593,2026-03-29T18:05:22.593,-31729.635,-49905.72,-85147.73999999999,-50366.025,-15517.439999999999,-20641.274999999998,4697.054999999999,-53824.14,-3.014059962689022,-0.3691072633173688,6.520458429105842,4.160889027359474,4.952386164330145,6.387761756888713,8.995978792753217,0.35638820793265313,0.295836645,-0.9625829850000001,-0.027770925000000002,-3.815,2.0601,4.36436,72.0
1774821922.593476,4.76837158203125e-06,2026-03-29T22:05:22.593,2026-03-29T18:05:22.593,-31720.905,-49908.869999999995,-85149.45,-50368.049999999996,-15523.019999999999,-20650.5,4684.23,-53808.479999999996,-4.939741476943997,-4.634419783704293,-2.2270002237555038,-0.987517359107028,-0.23793278971421641,1.872508661680151,6.088087956879822,0.4530739303954334,0.295836645,-0.9625829850000001,-0.027770925000000002,-3.815,2.0601,4.36436,72.0
1774821922.5990045,0.005528450012207031,2026-03-29T22:05:22.599,2026-03-29T18:05:22.599,-31724.504999999997,-49924.755,-85167.22499999999,-50367.42,-15523.289999999999,-20659.68,4662.675,-53803.935,-4.550522924510569,-6.370093559322394,-9.562583724464696,-5.562814804840586,-5.2508078196602295,-3.494297598355978,0.2842321932370004,0.26528482410672855,0.295836645,-0.9625829850000001,-0.027770925000000002,-3.815,2.0601,4.36436,72.0
1774821922.599027,2.2411346435546875e-05,2026-03-29T22:05:22.599,2026-03-29T18:05:22.599,-31737.914999999997,-49938.75,-85178.97,-50362.29,-15516.18,-20656.8,4667.22,-53813.115,-2.095879082539587,-4.82149323847719,-12.199846780323531,-7.395438440401038,-7.689848454708882,-7.15583922466989,-5.840886853820483,-0.3935660513881423,0.295836645,-0.9625829850000001,-0.027770925000000002,-3.815,2.0601,4.36436,72.0
1774821922.599049,2.2172927856445312e-05,2026-03-29T22:05:22.599,2026-03-29T18:05:22.599,-31737.914999999997,-49936.049999999996,-85176.315,-50359.68,-15512.76,-20652.12,4680.179999999999,-53819.954999999994,1.2177359845270441,-0.9296613422230698,-9.171310210222748,-5.662616043835109,-6.41740718464045,-7.385718010223236,-9.47703508987778,-1.3336181825182591,0.29705734500000003,-0.96276609,-0.03063957,-5.2646999999999995,-0.42728,4.24228,72.0
1774821922.5990565,7.3909759521484375e-06,2026-03-29T22:05:22.599,2026-03-29T18:05:22.599,-31749.795,-49942.17,-85185.98999999999,-50382.18,-15539.49,-20678.175,4653.135,-53837.369999999995,3.8218161733153386,3.213419818259595,-2.1576710522576685,-1.2504241887602503,-2.08003551497306,-4.103137650747971,-8.881352578396855,-2.026926368675258,0.29705734500000003,-0.96276609,-0.03063957,-5.2646999999999995,-0.42728,4.24228,72.0
1774821922.610477,0.011420488357543945,2026-03-29T22:05:22.610,2026-03-29T18:05:22.610,-31745.969999999998,-49918.994999999995,-85154.84999999999,-50354.369999999995,-15512.039999999999,-20650.815,4670.37,-53850.375,4.538486147837309,5.480561724085992,5.428827737733409,3.699958472898187,3.222005538126543,1.1020119216742532,-4.220356771665903,-1.8980336748136408,0.29705734500000003,-0.96276609,-0.03063957,-5.2646999999999995,-0.42728,4.24228,72.0
1774821922.6104963,1.9311904907226562e-05,2026-03-29T22:05:22.610,2026-03-29T18:05:22.610,-31733.055,-49910.805,-85146.39,-50348.34,-15501.375,-20641.094999999998,4688.01,-53836.11,3.1256816931513876,4.8047250196928815,10.113368691988093,6.829127221460586,6.951313766067682,5.739652548525418,2.4588730374808714,-0.7083448311489114,0.29705734500000003,-0.96276609,-0.03063957,-5.2646999999999995,-0.42728,4.24228,72.0
1774821922.6105137,1.7404556274414062e-05,2026-03-29T22:05:22.610,2026-03-29T18:05:22.610,-31735.17,-49928.985,-85171.77,-50365.08,-15513.93,-20654.37,4677.795,-53823.869999999995,0.3571231709794696,1.6886288251714816,9.959498852478301,6.677721626254452,7.343455283016482,7.611450509596743,8.136653843082216,1.199990026463498,0.29705734500000003,-0.96276609,-0.03063957,-5.2646999999999995,-0.42728,4.24228,72.0
1774821922.610518,4.291534423828125e-06,2026-03-29T22:05:22.610,2026-03-29T18:05:22.610,-31733.055,-49940.549999999996,-85193.145,-50381.505,-15533.144999999999,-20669.489999999998,4666.635,-53814.465,-2.3889767771663104,-2.1183129566132672,5.359943478767817,3.3581892210858326,4.234585247601976,5.8526708686842985,10.200814811409625,2.9747078600733494,0.29705734500000003,-0.96276609,-0.03063957,-5.2646999999999995,-0.42728,4.24228,72.0
1774821922.610523,5.0067901611328125e-06,2026-03-29T22:05:22.610,2026-03-29T18:05:22.610,-31742.954999999998,-49950.72,-85207.5,-50379.255,-15532.109999999999,-20666.25,4671.315,-53822.295,-3.8182509265445987,-4.582873474843906,-1.3003495106086076,-1.525492887990844,-0.8788880065578166,1.3298343228829792,7.661180333279957,3.6431032483902754,0.29705734500000003,-0.96276609,-0.03063957,-5.2646999999999995,-0.42728,4.24228,72.0
1774821922.610527,4.0531158447265625e-06,2026-03-29T22:05:22.610,2026-03-29T18:05:22.610,-31759.289999999997,-49949.325,-85197.19499999999,-50363.055,-15514.83,-20649.239999999998,4682.115,-53849.79,-3.341015037590917,-4.468271230405768,-6.877499149073659,-5.655964221256597,-5.565043666557971,-3.787854438446884,1.6278862578176492,2.6377566407481337,0.29705734500000003,-0.96276609,-0.03063957,-5.2646999999999995,-0.42728,4.24228,72.0
1774821922.6149049,0.004377841949462891,2026-03-29T22:05:22.614,2026-03-29T18:05:22.614,-31745.07,-49931.865,-85175.64,-50356.89,-15510.824999999999,-20651.265,4673.474999999999,-53842.32,-1.3234555062845532,-1.9603105123741553,-8.961937894412282,-7.099444100132504,-7.612343696807288,-7.070335540916098,-5.178997566270149,0.17625522588873918,0.29705734500000003,-0.96276609,-0.03063957,-5.2646999999999995,-0.42728,4.24228,72.0
1774821922.6149209,1.5974044799804688e-05,2026-03-29T22:05:22.614,2026-03-29T18:05:22.614,-31727.61,-49914.494999999995,-85158.405,-50349.6,-15508.71,-20654.55,4655.5199999999995,-53833.275,1.1417747416610278,1.4797805765564238,-6.9181714429385375,-5.203027529353981,-6.067061100856855,-6.98022133281208,-9.669373179821779,-2.7353886690818126,0.29705734500000003,-0.96276609,-0.03063957,-5.2646999999999995,-0.42728,4.24228,72.0
1774821922.6189265,0.0040056705474853516,2026-03-29T22:05:22.618,2026-03-29T18:05:22.618,-31732.02,-49924.755,-85178.385,-50366.43,-15525.99,-20672.64,4628.835,-53847.54,2.8143850399750927,3.93906330593998,-2.0233672418456323,-0.8792989560381774,-1.6679423937248559,-3.5901205708188275,-9.800935940298581,-4.7214946576040715,0.294127665,-0.961362285,-0.032653725,-6.271859999999999,-1.46496,3.2045999999999997,72.0
1774821922.6189427,1.621246337890625e-05,2026-03-29T22:05:22.618,2026-03-29T18:05:22.618,-31732.469999999998,-49924.305,-85176.495,-50362.74,-15523.83,-20673.899999999998,4622.4,-53855.145,2.9326737130713467,4.098866652819489,3.2850487148857805,3.8406186466575587,3.515693415489278,1.4698835927388032,-5.517425417261878,-4.698793846130667,0.294127665,-0.961362285,-0.032653725,-6.271859999999999,-1.46496,3.2045999999999997,72.0
1774821922.62611,0.007167339324951172,2026-03-29T22:05:22.626,2026-03-29T18:05:22.626,-31722.885,-49920.525,-85164.165,-50345.145,-15504.255,-20655.27,4659.66,-53835.479999999996,1.570198894525618,1.9380351337910044,6.625390655055392,6.763438450576403,7.061396488671867,5.799232584681644,1.2279259470839643,-2.457262768024907,0.294127665,-0.961362285,-0.032653725,-6.271859999999999,-1.46496,3.2045999999999997,72.0
1774821922.6261292,1.9073486328125e-05,2026-03-29T22:05:22.626,2026-03-29T18:05:22.626,-31739.67,-49963.005,-85189.905,-50357.79,-15513.795,-20658.78,4694.625,-53810.28,-0.4482773251607703,-1.279740057702032,6.743699436715144,6.548114403737935,7.322860992352336,7.366670106430246,7.372955296431957,1.148601940933337,0.294127665,-0.961362285,-0.032653725,-6.271859999999999,-1.46496,3.2045999999999997,72.0
1774821922.6325736,0.006444454193115234,2026-03-29T22:05:22.632,2026-03-29T18:05:22.632,-31758.12,-49980.42,-85192.065,-50360.58,-15513.84,-20649.6,4713.4349999999995,-53811.225,-2.0130836671874546,-3.718653699065479,3.957983451850146,3.3112392282132648,4.185661362603791,5.460836184324778,10.151162764302489,4.52738356373811,0.294127665,-0.961362285,-0.032653725,-6.271859999999999,-1.46496,3.2045999999999997,72.0
1774821922.6325948,2.1219253540039062e-05,2026-03-29T22:05:22.632,2026-03-29T18:05:22.632,-31748.489999999998,-49972.14,-85194.315,-50391.134999999995,-15543.314999999999,-20673.045,4683.915,-53811.72,-2.324797499020461,-3.9906721405070362,-0.16642387144244455,-1.4451852242132668,-0.8935693482070644,1.007693138786123,8.349337384695332,6.0696976145343955,0.294127665,-0.961362285,-0.032653725,-6.271859999999999,-1.46496,3.2045999999999997,72.0
1774821922.6326149,2.002716064453125e-05,2026-03-29T22:05:22.632,2026-03-29T18:05:22.632,-31731.524999999998,-49940.145,-85196.205,-50392.89,-15547.14,-20682.09,4667.22,-53803.665,-1.304291308967568,-1.9260038045894452,-3.6746207115832963,-5.536967066140006,-5.571362021457204,-3.8841840587421492,2.841068761571938,4.9252962884974565,0.294127665,-0.961362285,-0.032653725,-6.271859999999999,-1.46496,3.2045999999999997,72.0
1774821922.6326225,7.62939453125e-06,2026-03-29T22:05:22.632,2026-03-29T18:05:22.632,-31733.324999999997,-49915.485,-85212.135,-50399.415,-15551.01,-20686.59,4661.099999999999,-53822.25,0.39311664176722716,1.3260270635286993,-5.151169427089838,-7.099992518107688,-7.700107633415374,-6.924985563462316,-3.839842992137283,1.4580324711229389,0.294127665,-0.961362285,-0.032653725,-6.271859999999999,-1.46496,3.2045999999999997,72.0
1774821922.6379106,0.005288124084472656,2026-03-29T22:05:22.637,2026-03-29T18:05:22.637,-31737.105,-49903.83,-85194.315,-50381.865,-15533.144999999999,-20671.065,4671.585,-53844.255,1.7585140246353776,3.9232285986342386,-4.278076690131424,-5.4322058430409985,-6.308455308225999,-6.714618787069086,-8.676071962081362,-2.8601829532357446,0.294127665,-0.961362285,-0.032653725,-6.271859999999999,-1.46496,3.2045999999999997,72.0
1774821922.63793,1.9311904907226562e-05,2026-03-29T22:05:22.637,2026-03-29T18:05:22.637,-31728.69,-49896.494999999995,-85166.91,-50359.32,-15505.92,-20644.245,4682.429999999999,-53840.97,1.9953775326656753,4.347040055651202,-1.8097924855068923,-1.2987281915887519,-2.0346475766962246,-3.3826250979549672,-9.541863655583485,-6.090011873207036,0.294127665,-0.961362285,-0.032653725,-6.271859999999999,-1.46496,3.2045999999999997,72.0
1774821922.6430523,0.00512242317199707,2026-03-29T22:05:22.643,2026-03-29T18:05:22.643,-31714.469999999998,-49891.634999999995,-85143.87,-50353.604999999996,-15505.965,-20644.29,4682.25,-53833.095,0.9638840796229111,2.2578535827739254,0.9407583911171142,3.427241116408974,3.175642816375108,1.4931473661401733,-6.144330743794774,-6.712702856865414,0.286925535,-0.959897445,-0.03405753,-8.22514,-3.8607799999999997,0.9919,72.0
1774821922.6430707,1.8358230590820312e-05,2026-03-29T22:05:22.643,2026-03-29T18:05:22.643,-31710.149999999998,-49888.259999999995,-85130.955,-50341.095,-15505.425,-20644.605,4683.0599999999995,-53816.13,-0.737435534691586,-1.2810170447058378,2.7887543835581203,6.61564984542664,6.959741952903311,5.638470740854314,-0.11135355675808103,-4.350573885940629,0.286925535,-0.959897445,-0.03405753,-8.22514,-3.8607799999999997,0.9919,72.0
1774821922.6430893,1.8596649169921875e-05,2026-03-29T22:05:22.643,2026-03-29T18:05:22.643,-31746.465,-49912.29,-85148.415,-50342.265,-15503.58,-20642.895,4683.195,-53837.46,-2.0995478611500475,-4.345403399681754,3.1822369205304444,6.835451262119285,7.607337425040653,7.144795016834695,5.792781287862606,0.024815726900182217,0.286925535,-0.959897445,-0.03405753,-8.22514,-3.8607799999999997,0.9919,72.0
1774821922.6430964,7.152557373046875e-06,2026-03-29T22:05:22.643,2026-03-29T18:05:22.643,-31756.274999999998,-49933.665,-85181.4,-50369.085,-15526.08,-20662.515,4674.78,-53850.42,-2.2665841540939993,-5.1808319807745615,2.3137235061941217,3.9887678685227814,4.826261973359698,5.344951340855624,8.943789657674573,4.5050538825418265,0.286925535,-0.959897445,-0.03405753,-8.22514,-3.8607799999999997,0.9919,72.0
1774821922.6496515,0.006555080413818359,2026-03-29T22:05:22.649,2026-03-29T18:05:22.649,-31743.675,-49930.83,-85183.69499999999,-50374.17,-15530.49,-20665.98,4669.965,-53836.38,-1.0312640122988308,-3.1747405714698185,0.8565924674397303,-0.6532054476450967,-0.13424239027430634,1.102294893259708,8.032053625283567,7.095555806204669,0.286925535,-0.959897445,-0.03405753,-8.22514,-3.8607799999999997,0.9919,72.0
1774821922.6496663,1.4781951904296875e-05,2026-03-29T22:05:22.649,2026-03-29T18:05:22.649,-31741.379999999997,-49928.04,-85181.31,-50375.924999999996,-15532.92,-20669.265,4664.474999999999,-53834.13,1.01185482141537,0.7571870042855787,-0.46914617891265104,-5.021267432021184,-5.050342277124152,-3.6086266665377167,3.6063956188789965,6.6161783918895045,0.286925535,-0.959897445,-0.03405753,-8.22514,-3.8607799999999997,0.9919,72.0
1774821922.6523695,0.0027031898498535156,2026-03-29T22:05:22.652,2026-03-29T18:05:22.652,-31743.945,-49933.485,-85190.805,-50382.945,-15536.609999999999,-20672.055,4658.76,-53837.729999999996,2.7518318888923345,4.596548593906307,-1.2448015567018433,-7.168469934691765,-7.721017878483029,-6.6240410964123715,-2.2378526948198347,3.2391126466285036,0.286925535,-0.959897445,-0.03405753,-8.22514,-3.8607799999999997,0.9919,72.0
1774821922.6523812,1.1682510375976562e-05,2026-03-29T22:05:22.652,2026-03-29T18:05:22.652,-31742.954999999998,-49931.955,-85184.91,-50373.81,-15527.205,-20663.1,4660.74,-53837.82,3.148365294318548,6.257617081187178,-1.450193080913805,-6.132124615518862,-6.949276206463884,-6.583946990332007,-6.854894888750334,-1.5809961020295475,0.286925535,-0.959897445,-0.03405753,-8.22514,-3.8607799999999997,0.9919,72.0
1774821922.658276,0.005894899368286133,2026-03-29T22:05:22.658,2026-03-29T18:05:22.658,-31741.065,-49929.03,-85179.78,-50367.42,-15519.914999999999,-20653.695,4673.115,-53836.92,1.8156646714757525,4.700783858534624,-1.313968515931955,-2.3595787263281087,-3.072622825867165,-3.541224821858963,-8.253211740910743,-5.750686547018999,0.286925535,-0.959897445,-0.03405753,-8.22514,-3.8607799999999997,0.9919,72.0
1774821922.6582932,1.71661376953125e-05,2026-03-29T22:05:22.658,2026-03-29T18:05:22.658,-31739.805,-49927.32,-85178.97,-50363.145,-15514.92,-20651.265,4678.155,-53835.615,-0.7126763973581431,0.5362797767802354,-1.0623750619089283,2.487257030563129,2.1889129226870216,1.0835296655133493,-5.957612371218056,-7.461527355679218,0.286925535,-0.959897445,-0.03405753,-8.22514,-3.8607799999999997,0.9919,72.0
1774821922.663148,0.004854679107666016,2026-03-29T22:05:22.663,2026-03-29T18:05:22.663,-31740.12,-49937.22,-85193.73,-50379.119999999995,-15531.93,-20670.66,4654.485,-53825.625,-3.197814595145972,-4.217497280992214,-0.7489866328746387,6.262200476737238,6.496819865332861,5.168700151628305,-1.1546998285240444,-5.979310149091894,0.28259205,-0.9583715700000001,-0.03466788,-13.33724,-6.28712,0.21364,72.0
1774821922.663168,2.002716064453125e-05,2026-03-29T22:05:22.663,2026-03-29T18:05:22.663,-31742.504999999997,-49940.729999999996,-85198.77,-50390.055,-15547.32,-20685.555,4634.415,-53823.465,-4.302415849451212,-7.123102226328725,-0.27001483911776997,7.280709669712894,7.9312155813999,6.865754970424206,3.912492759832215,-1.9521869420914173,0.28259205,-0.9583715700000001,-0.03466788,-13.33724,-6.28712,0.21364,72.0
1774821922.6631837,1.5735626220703125e-05,2026-03-29T22:05:22.663,2026-03-29T18:05:22.663,-31729.68,-49913.369999999995,-85161.555,-50354.055,-15516.494999999999,-20655.719999999998,4653.405,-53829.54,-3.2924629478190934,-6.570391751394468,0.4663191324269306,5.067744329625146,5.843267345951577,5.433714133928859,6.99456348878555,2.8873439174061453,0.28259205,-0.9583715700000001,-0.03466788,-13.33724,-6.28712,0.21364,72.0
1774821922.6631904,6.67572021484375e-06,2026-03-29T22:05:22.663,2026-03-29T18:05:22.663,-31718.52,-49901.13,-85144.31999999999,-50333.354999999996,-15498.359999999999,-20644.965,4666.86,-53827.38,-0.47168573822833915,-2.64328210955862,1.354994730298816,0.5782263044411075,1.1468455250543617,1.558797790097361,6.837907649800041,6.482212300532688,0.28259205,-0.9583715700000001,-0.03466788,-13.33724,-6.28712,0.21364,72.0
1774821922.6676617,0.004471302032470703,2026-03-29T22:05:22.667,2026-03-29T18:05:22.667,-31705.605,-49892.805,-85134.42,-50330.34,-15500.744999999999,-20652.165,4666.05,-53801.369999999995,2.8934212100511303,2.8509449355155874,2.0452076315395096,-4.211601839498683,-4.0806724812769355,-2.976405870582124,3.69138999310873,7.331824912755961,0.28259205,-0.9583715700000001,-0.03466788,-13.33724,-6.28712,0.21364,72.0
1774821922.667689,2.7418136596679688e-05,2026-03-29T22:05:22.667,2026-03-29T18:05:22.667,-31713.975,-49909.095,-85157.45999999999,-50359.32,-15525.404999999999,-20671.829999999998,4661.865,-53801.145,5.149572576011866,7.229907399250596,2.0902013571773046,-7.169409019431573,-7.515107749298225,-6.114142594129369,-0.8849558393461507,5.11399961791261,0.28259205,-0.9583715700000001,-0.03466788,-13.33724,-6.28712,0.21364,72.0
1774821922.670888,0.003198862075805664,2026-03-29T22:05:22.670,2026-03-29T18:05:22.670,-31735.62,-49939.38,-85188.78,-50377.5,-15535.215,-20673.135,4661.91,-53819.415,5.068181592258785,8.255749181421251,1.224963906994918,-6.9531897079893055,-7.617392197640416,-6.45484431901112,-4.787180315960717,0.7930988706367127,0.28259205,-0.9583715700000001,-0.03466788,-13.33724,-6.28712,0.21364,72.0
1774821922.670904,1.5974044799804688e-05,2026-03-29T22:05:22.670,2026-03-29T18:05:22.670,-31764.059999999998,-49977.99,-85227.25499999999,-50377.5,-15531.57,-20665.755,4659.345,-53842.68,2.493907365924286,5.271973050462122,-0.39591488319029283,-3.6212085440265267,-4.324331311161311,-3.8801693116154294,-6.335596728409759,-3.8123221200041675,0.28259205,-0.9583715700000001,-0.03466788,-13.33724,-6.28712,0.21364,72.0
1774821922.6834712,0.012567281723022461,2026-03-29T22:05:22.683,2026-03-29T18:05:22.683,-31750.559999999998,-49978.755,-85244.355,-50374.08,-15523.515,-20657.969999999998,4652.955,-53837.145,-1.5052515289190327,-0.41796550167817137,-2.165582366329931,1.371774995866326,0.9117850206096709,0.41053858884114597,-4.998262653503176,-6.80187175848115,0.28259205,-0.9583715700000001,-0.03466788,-13.33724,-6.28712,0.21364,72.0
1774821922.6834917,2.0503997802734375e-05,2026-03-29T22:05:22.683,2026-03-29T18:05:22.683,-31767.254999999997,-49964.67,-85222.935,-50370.255,-15517.98,-20654.28,4657.365,-53858.34,-5.087659859441282,-6.136363042484054,-3.257052323078744,5.803023995173759,5.759511372125248,4.458726963092073,-1.558518052869451,-6.974243589759843,0.28259205,-0.9583715700000001,-0.03466788,-13.33724,-6.28712,0.21364,72.0
1774821922.692426,0.008934259414672852,2026-03-29T22:05:22.692,2026-03-29T18:05:22.692,-31759.605,-49927.814999999995,-85180.095,-50360.534999999996,-15513.164999999999,-20649.329999999998,4685.67,-53861.715,-6.494763991557078,-9.109900993798458,-3.0273066996695905,7.6677819781445935,8.044729692316455,6.44059772047601,2.31687310646739,-4.29820482191054,0.280089615,-0.96288816,-0.03674307,-15.519419999999998,-9.41542,-0.74774,72.0
1774821922.6924467,2.0742416381835938e-05,2026-03-29T22:05:22.692,2026-03-29T18:05:22.692,-31732.469999999998,-49913.009999999995,-85170.42,-50361.479999999996,-15512.805,-20651.94,4690.98,-53822.025,-4.912332430913205,-7.82213504149977,-1.3880259553384229,6.0881000810578705,6.728464251066372,5.489321775256176,4.879578366970969,0.10360371166379967,0.280089615,-0.96288816,-0.03674307,-15.519419999999998,-9.41542,-0.74774,72.0
1774821922.6924636,1.6927719116210938e-05,2026-03-29T22:05:22.692,2026-03-29T18:05:22.692,-31735.26,-49917.06,-85181.44499999999,-50385.555,-15525.09,-20656.575,4680.405,-53824.229999999996,-0.9149204682335856,-2.7766588071451226,1.0673146469861483,1.7323711941493174,2.385766963242556,2.07524902976059,5.08816310917287,4.43203942931776,0.280089615,-0.96288816,-0.03674307,-15.519419999999998,-9.41542,-0.74774,72.0
1774821922.692484,2.0265579223632812e-05,2026-03-29T22:05:22.692,2026-03-29T18:05:22.692,-31737.555,-49913.505,-85179.105,-50395.14,-15539.715,-20666.745,4681.035,-53833.994999999995,3.7405241472522,3.709502895456381,3.277472770016118,-3.4574988377243483,-3.0379358789868327,-2.2229545150546866,3.0280756540661904,6.943620612905509,0.280089615,-0.96288816,-0.03674307,-15.519419999999998,-9.41542,-0.74774,72.0
1774821922.6924913,7.3909759521484375e-06,2026-03-29T22:05:22.692,2026-03-29T18:05:22.692,-31749.614999999998,-49908.24,-85158.315,-50373.27,-15522.39,-20651.175,4688.099999999999,-53854.965,6.898417754031438,8.591693027672289,4.190685588632079,-7.125878374827139,-7.094302878240879,-5.446669379323814,-0.20414555599691278,6.6417288261795475,0.280089615,-0.96288816,-0.03674307,-15.519419999999998,-9.41542,-0.74774,72.0
1774821922.6924975,6.198883056640625e-06,2026-03-29T22:05:22.692,2026-03-29T18:05:22.692,-31743.18,-49910.31,-85161.51,-50368.229999999996,-15519.779999999999,-20651.76,4684.679999999999,-53848.125,7.010713415239382,9.543907540359074,3.281226879239678,-7.573296198366573,-7.939509028962097,-6.150541375690508,-3.0665753662710675,3.659783203737377,0.280089615,-0.96288816,-0.03674307,-15.519419999999998,-9.41542,-0.74774,72.0
1774821922.6925058,8.344650268554688e-06,2026-03-29T22:05:22.692,2026-03-29T18:05:22.692,-31743.675,-49927.725,-85182.97499999999,-50381.505,-15535.394999999999,-20665.89,4677.75,-53833.049999999996,3.892279066111166,6.070926254341073,0.844787609241419,-4.550968283104669,-5.180621866177424,-4.053625170918036,-4.302025823009351,-0.8031363922591136,0.280089615,-0.96288816,-0.03674307,-15.519419999999998,-9.41542,-0.74774,72.0
1774821922.6925123,6.4373016357421875e-06,2026-03-29T22:05:22.692,2026-03-29T18:05:22.692,-31747.86,-49934.43,-85187.11499999999,-50386.95,-15541.064999999999,-20670.75,4665.375,-53831.52,-1.1418867932254924,-0.24732661586611984,-2.0903325347020365,0.5943838212419863,-0.069023318370067,-0.1540846070183262,-3.4891971726226965,-4.960404650139292,0.280089615,-0.96288816,-0.03674307,-15.519419999999998,-9.41542,-0.74774,72.0
1774821922.698256,0.005743741989135742,2026-03-29T22:05:22.698,2026-03-29T18:05:22.698,-31751.01,-49932.494999999995,-85180.455,-50373.36,-15524.01,-20657.565,4666.724999999999,-53840.43,-5.840902934500571,-6.4949304151571745,-4.213061749797843,5.511110827987632,5.059036975638694,3.7409886441860163,-1.1740219721731477,-7.141496936389915,0.280089615,-0.96288816,-0.03674307,-15.519419999999998,-9.41542,-0.74774,72.0
1774821922.698285,2.9087066650390625e-05,2026-03-29T22:05:22.698,2026-03-29T18:05:22.698,-31749.84,-49930.2,-85175.145,-50364.09,-15512.49,-20647.665,4669.785,-53841.915,-8.036902495281435,-9.787693105029215,-4.535435196795253,7.9149369874283355,7.849198108909924,5.851740596892739,1.4523592872869389,-6.451205206636726,0.280089615,-0.96288816,-0.03674307,-15.519419999999998,-9.41542,-0.74774,72.0
1774821922.7022133,0.003928184509277344,2026-03-29T22:05:22.702,2026-03-29T18:05:22.702,-31751.954999999998,-49936.5,-85188.69,-50377.77,-15523.47,-20658.195,4662.179999999999,-53845.604999999996,-6.651852322848842,-8.61823778989432,-2.8651315698266786,6.655878955647724,7.0172201832976535,5.242011874233796,3.1515260641179332,-3.1318718914400923,0.27722097,-0.9714940950000001,-0.038146875000000004,-14.16128,-12.31482,0.06104,72.0
1774821922.7022302,1.6927719116210938e-05,2026-03-29T22:05:22.702,2026-03-29T18:05:22.702,-31748.175,-49938.435,-85193.81999999999,-50387.49,-15535.17,-20667.69,4658.985,-53842.68,-2.2218550366361454,-3.5451817503852974,0.08676616951356877,2.2793413415358006,2.952906018239448,2.240652592740871,3.2169148465925717,1.514489141893787,0.27722097,-0.9714940950000001,-0.038146875000000004,-14.16128,-12.31482,0.06104,72.0
1774821922.705679,0.0034487247467041016,2026-03-29T22:05:22.705,2026-03-29T18:05:22.705,-31737.149999999998,-49934.79,-85187.06999999999,-50375.744999999995,-15523.74,-20656.665,4674.0599999999995,-53830.979999999996,3.314207529000848,3.088213254429639,3.0207299196334434,-3.1968640317152315,-2.4498858556634477,-1.7246514144223022,1.7654061002709267,5.623546014873087,0.27722097,-0.9714940950000001,-0.038146875000000004,-14.16128,-12.31482,0.06104,72.0
1774821922.7056944,1.5497207641601562e-05,2026-03-29T22:05:22.705,2026-03-29T18:05:22.705,-31731.21,-49933.17,-85182.93,-50373.27,-15519.914999999999,-20651.805,4675.41,-53827.515,7.476035059900425,8.258567637445964,4.640702468889227,-7.205835790378328,-6.6692487657334265,-4.801253107431393,-0.3776564250766464,7.503608652035672,0.27722097,-0.9714940950000001,-0.038146875000000004,-14.16128,-12.31482,0.06104,72.0
1774821922.7163467,0.010652303695678711,2026-03-29T22:05:22.716,2026-03-29T18:05:22.716,-31724.235,-49925.97,-85177.75499999999,-50387.759999999995,-15540.39,-20671.335,4643.775,-53827.875,8.364858361488215,9.65989838909545,4.243965695391776,-7.83639572735707,-7.735417373936344,-5.57771818548139,-2.121457283255375,6.326588439456286,0.27722097,-0.9714940950000001,-0.038146875000000004,-14.16128,-12.31482,0.06104,72.0
1774821922.7163615,1.4781951904296875e-05,2026-03-29T22:05:22.716,2026-03-29T18:05:22.716,-31722.795,-49910.939999999995,-85165.92,-50391.27,-15549.84,-20685.239999999998,4628.655,-53829.314999999995,5.534504433644744,6.739600158298599,2.03245276071925,-4.753512916840936,-5.161914021940527,-3.7375253043869967,-2.6515339676240406,2.4964798544418825,0.27722097,-0.9714940950000001,-0.038146875000000004,-14.16128,-12.31482,0.06104,72.0
1774821922.7163744,1.2874603271484375e-05,2026-03-29T22:05:22.716,2026-03-29T18:05:22.716,-31729.364999999998,-49892.085,-85139.775,-50347.979999999996,-15505.154999999999,-20648.925,4652.325,-53846.729999999996,0.2090013639688836,0.9042489971082119,-0.9953278010989597,0.6127506370409005,-0.18263230094471217,-0.19502781800197197,-1.8062049453756859,-2.4701539677735522,0.27722097,-0.9714940950000001,-0.038146875000000004,-14.16128,-12.31482,0.06104,72.0
1774821922.716379,4.5299530029296875e-06,2026-03-29T22:05:22.716,2026-03-29T18:05:22.716,-31744.8,-49925.61,-85162.14,-50326.38,-15471.539999999999,-20619.09,4677.21,-53850.645,-5.257013257637839,-5.174184742961558,-3.511935567347213,5.7193161401191395,4.8272126078023305,3.3484943360387294,-0.1153207566546591,-6.52926189791797,0.27722097,-0.9714940950000001,-0.038146875000000004,-14.16128,-12.31482,0.06104,72.0
1774821922.7163837,4.76837158203125e-06,2026-03-29T22:05:22.716,2026-03-29T18:05:22.716,-31737.465,-49947.57,-85182.12,-50333.939999999995,-15480.269999999999,-20624.85,4683.195,-53825.445,-8.43247469934856,-8.803083568556026,-4.4614691401313475,8.111215496076285,7.48000895245267,5.2174563950103545,1.5008822140329916,-7.9436651440246875,0.27722097,-0.9714940950000001,-0.038146875000000004,-14.16128,-12.31482,0.06104,72.0
1774821922.7163873,3.5762786865234375e-06,2026-03-29T22:05:22.716,2026-03-29T18:05:22.716,-31751.954999999998,-49971.104999999996,-85219.11,-50366.159999999996,-15507.045,-20649.465,4675.679999999999,-53824.545,-7.90093402301918,-8.47580851872818,-3.512483947044782,6.606330924525938,6.519838122593345,4.557218177082471,2.2108592911394607,-6.030650045324757,0.27722097,-0.9714940950000001,-0.038146875000000004,-14.16128,-12.31482,0.06104,72.0
1774821922.7189472,0.0025599002838134766,2026-03-29T22:05:22.718,2026-03-29T18:05:22.718,-31757.805,-49967.685,-85226.715,-50379.615,-15523.019999999999,-20663.594999999998,4666.86,-53835.255,-3.894618948627739,-4.493362483267867,-1.16421349229121,1.8901524646613355,2.430990329384488,1.73349378746572,1.6867060997982526,-1.499471175061837,0.27581716500000003,-0.981747975,-0.039977925,-9.918999999999999,-14.10024,1.9075,72.0
1774821922.7189634,1.621246337890625e-05,2026-03-29T22:05:22.718,2026-03-29T18:05:22.718,-31751.91,-49929.84,-85199.355,-50377.5,-15522.525,-20661.165,4673.205,-53838.765,1.8131252825994746,1.2529955864218336,1.5219195859843626,-3.78269609069874,-2.7896771554142346,-1.8544739042753728,0.2525242335839573,3.791411651067511,0.27581716500000003,-0.981747975,-0.039977925,-9.918999999999999,-14.10024,1.9075,72.0
1774821922.7234309,0.004467487335205078,2026-03-29T22:05:22.723,2026-03-29T18:05:22.723,-31719.195,-49883.534999999996,-85163.04,-50391.27,-15532.92,-20660.94,4681.17,-53827.064999999995,6.704388362328965,6.197114809241564,3.419138539366259,-7.656960922535335,-6.596159854459785,-4.4569273904397715,-1.2995770252387158,7.587223831217407,0.27581716500000003,-0.981747975,-0.039977925,-9.918999999999999,-14.10024,1.9075,72.0
1774821922.7234557,2.47955322265625e-05,2026-03-29T22:05:22.723,2026-03-29T18:05:22.723,-31717.485,-49896.72,-85173.03,-50410.35,-15560.91,-20687.489999999998,4668.255,-53823.195,8.639258501706808,8.261204862628142,3.8200912198088313,-7.812826167823094,-7.132328231647832,-4.823567242134666,-2.1264053391937106,8.200721369721679,0.27581716500000003,-0.981747975,-0.039977925,-9.918999999999999,-14.10024,1.9075,72.0
1774821922.7323742,0.008918523788452148,2026-03-29T22:05:22.732,2026-03-29T18:05:22.732,-31728.6,-49917.195,-85189.905,-50403.509999999995,-15555.24,-20685.465,4676.58,-53825.13,6.798756191057949,6.731992574888151,2.6948717899024204,-4.122403902735897,-4.144501675557212,-2.8090252559460054,-1.770945670802397,5.274074068599425,0.27581716500000003,-0.981747975,-0.039977925,-9.918999999999999,-14.10024,1.9075,72.0
1774821922.7324045,3.0279159545898438e-05,2026-03-29T22:05:22.732,2026-03-29T18:05:22.732,-31728.645,-49925.88,-85198.14,-50397.255,-15547.14,-20680.739999999998,4674.599999999999,-53821.305,2.029851596691615,2.479322927484218,0.6313780105968908,1.6519490760532,0.8840939676029514,0.5612697484093592,-0.4002112221440862,-0.010787408173333811,0.27581716500000003,-0.981747975,-0.039977925,-9.918999999999999,-14.10024,1.9075,72.0
1774821922.7324343,2.9802322387695312e-05,2026-03-29T22:05:22.732,2026-03-29T18:05:22.732,-31740.975,-49923.63,-85180.455,-50371.02,-15520.5,-20659.545,4679.054999999999,-53837.595,-3.5516526734980034,-2.5317780208500804,-1.4789047197903886,6.687226498350961,5.453494006433993,3.598979997664335,1.2752672222796388,-5.39662780130802,0.27581716500000003,-0.981747975,-0.039977925,-9.918999999999999,-14.10024,1.9075,72.0
1774821922.7324452,1.0967254638671875e-05,2026-03-29T22:05:22.732,2026-03-29T18:05:22.732,-31745.34,-49922.955,-85170.69,-50361.075,-15515.369999999999,-20657.79,4673.88,-53845.695,-7.5109430228470915,-6.165180279957957,-2.8392632609119297,8.471780788545493,7.27822141198603,4.788234616679239,2.3606900066549636,-8.51544394470895,0.27581716500000003,-0.981747975,-0.039977925,-9.918999999999999,-14.10024,1.9075,72.0
1774821922.73999,0.007544755935668945,2026-03-29T22:05:22.739,2026-03-29T18:05:22.739,-31753.89,-49929.345,-85170.555,-50358.6,-15516.224999999999,-20658.239999999998,4668.795,-53845.515,-8.165393779182985,-7.032371878409592,-3.0457092476884764,6.055937901954571,5.427412767671065,3.539122613027393,2.236588070024257,-7.941279024808959,0.27581716500000003,-0.981747975,-0.039977925,-9.918999999999999,-14.10024,1.9075,72.0
1774821922.7400167,2.6702880859375e-05,2026-03-29T22:05:22.740,2026-03-29T18:05:22.740,-31758.164999999997,-49931.595,-85174.02,-50356.619999999995,-15512.76,-20657.34,4655.835,-53849.79,-5.30197881991872,-5.007112726356674,-2.174445127140432,0.559159481535823,0.8060747119121086,0.4858976214025145,0.8890061449404729,-3.857802237469654,0.27581716500000003,-0.981747975,-0.039977925,-9.918999999999999,-14.10024,1.9075,72.0
1774821922.740042,2.5272369384765625e-05,2026-03-29T22:05:22.740,2026-03-29T18:05:22.740,-31748.625,-49926.78,-85172.22,-50356.665,-15509.07,-20654.37,4652.325,-53849.34,-0.23434284364997107,-1.1547147022650588,-0.6632829558974961,-5.337291061853414,-4.273444329519545,-2.822913894912893,-1.058281827793864,1.9790668807820424,0.272643345,-0.987485265,-0.041198625,-6.45498,-16.72496,4.6543,72.0
1774821922.7400525,1.049041748046875e-05,2026-03-29T22:05:22.740,2026-03-29T18:05:22.740,-31725.855,-49914.585,-85156.875,-50357.52,-15508.755,-20652.3,4656.96,-53824.59,4.807283686800651,2.8297731019422794,0.9168220734672221,-8.687482079440832,-7.23236419957883,-4.69567020701279,-2.633383108842075,6.993052097859898,0.272643345,-0.987485265,-0.041198625,-6.45498,-16.72496,4.6543,72.0
1774821922.7485764,0.008523941040039062,2026-03-29T22:05:22.748,2026-03-29T18:05:22.748,-31720.68,-49922.235,-85170.95999999999,-50381.775,-15526.125,-20662.425,4666.139999999999,-53807.625,7.666675814036352,5.377968162610451,2.077547380725481,-7.744267688999842,-6.521629950193317,-4.1512572957433544,-2.9929328248897162,8.934020171299704,0.272643345,-0.987485265,-0.041198625,-6.45498,-16.72496,4.6543,72.0
1774821922.748604,2.765655517578125e-05,2026-03-29T22:05:22.748,2026-03-29T18:05:22.748,-31737.51,-49952.88,-85214.565,-50406.03,-15549.435,-20684.385,4657.724999999999,-53808.84,7.188753921904497,5.656837538469537,2.534272903372859,-2.8649313361802413,-2.426408529646818,-1.428540222301009,-1.85519675076155,6.904543968291169,0.272643345,-0.987485265,-0.041198625,-6.45498,-16.72496,4.6543,72.0
1774821922.7486281,2.4080276489257812e-05,2026-03-29T22:05:22.748,2026-03-29T18:05:22.748,-31773.329999999998,-49953.104999999996,-85197.915,-50366.835,-15515.369999999999,-20659.545,4659.345,-53857.439999999995,3.682719539806821,3.798599827070884,2.2226465477272943,3.608413259199839,3.0364658972911847,2.111188289106735,0.3264350231003092,1.790289650389512,0.272643345,-0.987485265,-0.041198625,-6.45498,-16.72496,4.6543,72.0
1774821922.748638,9.775161743164062e-06,2026-03-29T22:05:22.748,2026-03-29T18:05:22.748,-31757.129999999997,-49927.32,-85171.36499999999,-50349.375,-15497.279999999999,-20640.555,4675.365,-53858.61,-1.262206945318066,0.716703418155828,1.2568053669560733,8.463875204880326,7.098397038918806,4.652782305022413,2.5456322456182034,-4.1190782086413185,0.272643345,-0.987485265,-0.041198625,-6.45498,-16.72496,4.6543,72.0
1774821922.7624588,0.013820886611938477,2026-03-29T22:05:22.762,2026-03-29T18:05:22.762,-31738.905,-49917.465,-85161.465,-50370.659999999996,-15526.98,-20655.045,4677.974999999999,-53840.564999999995,-5.5035083431133325,-2.348283013299177,-0.11573497997567571,9.203086628663655,7.625099073816462,4.843007666970048,3.707015353191623,-8.160191824545866,0.272643345,-0.987485265,-0.041198625,-6.45498,-16.72496,4.6543,72.0
1774821922.7624865,2.765655517578125e-05,2026-03-29T22:05:22.762,2026-03-29T18:05:22.762,-31740.795,-49938.525,-85190.76,-50389.56,-15540.615,-20670.12,4664.5199999999995,-53840.475,-7.279419820658847,-4.325036946846353,-1.5422473594096453,5.315882507851237,4.2208870598200185,2.4968954996112047,3.1581601116262012,-8.511468111901685,0.272643345,-0.987485265,-0.041198625,-6.45498,-16.72496,4.6543,72.0
1774821922.762514,2.765655517578125e-05,2026-03-29T22:05:22.762,2026-03-29T18:05:22.762,-31742.19,-49947.21,-85199.715,-50396.265,-15534.63,-20667.285,4663.755,-53843.939999999995,-5.940778813505174,-4.6534210276645425,-2.601030546527828,-1.4002423355554459,-1.5141742451477334,-1.2690117507653755,1.0346798611620671,-5.031956051607692,0.272643345,-0.987485265,-0.041198625,-6.45498,-16.72496,4.6543,72.0
1774821922.7625256,1.1444091796875e-05,2026-03-29T22:05:22.762,2026-03-29T18:05:22.762,-31738.004999999997,-49936.049999999996,-85174.47,-50378.445,-15520.814999999999,-20654.19,4677.885,-53833.095,-2.1772251679556947,-3.38323232108087,-2.8873905347746582,-7.66552055035256,-6.729710734081893,-4.561846178380767,-1.7571798910872642,0.671068278805887,0.272643345,-0.987485265,-0.041198625,-6.45498,-16.72496,4.6543,72.0
1774821922.7625387,1.3113021850585938e-05,2026-03-29T22:05:22.762,2026-03-29T18:05:22.762,-31729.545,-49918.77,-85156.37999999999,-50349.735,-15499.619999999999,-20635.92,4684.724999999999,-53821.079999999994,2.3343655371797714,-1.0580483635528357,-2.1609150770765613,-10.31192806092151,-8.728585312693161,-5.651653593377579,-3.929639069314452,5.983690490649593,0.26892021,-0.990903225,-0.04296864,-4.89846,-19.57858,8.6982,72.0
1774821922.7625487,1.0013580322265625e-05,2026-03-29T22:05:22.762,2026-03-29T18:05:22.762,-31721.085,-49907.52,-85166.91,-50351.49,-15499.439999999999,-20636.954999999998,4672.845,-53819.505,5.681234319241187,1.518296078880828,-0.5053806892414471,-7.8738673449533705,-6.342096840634038,-3.8631255789298473,-4.4062514478746735,8.494197679720687,0.26892021,-0.990903225,-0.04296864,-4.89846,-19.57858,8.6982,72.0
1774821922.7725592,0.010010480880737305,2026-03-29T22:05:22.772,2026-03-29T18:05:22.772,-31705.739999999998,-49892.13,-85164.61499999999,-50350.994999999995,-15498.404999999999,-20638.665,4665.0599999999995,-53824.095,6.527498796969738,3.531887594808584,1.5948653314172374,-1.3806575181020233,-0.5824729116556513,0.033795688208507764,-2.846253671750854,7.104994937734014,0.26892021,-0.990903225,-0.04296864,-4.89846,-19.57858,8.6982,72.0
1774821922.7726555,9.632110595703125e-05,2026-03-29T22:05:22.772,2026-03-29T18:05:22.772,-31711.5,-49904.235,-85176.27,-50368.095,-15510.195,-20650.545,4671.045,-53824.095,4.642624595283989,4.365283608581976,3.351019068510732,6.071038043542473,5.781414610661237,4.151540802153206,0.15158748225933288,2.526933439751089,0.26892021,-0.990903225,-0.04296864,-4.89846,-19.57858,8.6982,72.0
1774821922.772722,6.651878356933594e-05,2026-03-29T22:05:22.772,2026-03-29T18:05:22.772,-31725.989999999998,-49914.405,-85183.02,-50392.755,-15525.63,-20657.745,4686.12,-53829.585,0.9395331968128324,3.7427683286194364,3.9535878357925243,10.791529161622394,9.550326905148875,6.393691669519138,3.277574139225284,-3.0735775532698564,0.26892021,-0.990903225,-0.04296864,-4.89846,-19.57858,8.6982,72.0
1774821922.772736,1.4066696166992188e-05,2026-03-29T22:05:22.772,2026-03-29T18:05:22.772,-31738.995,-49920.165,-85180.095,-50385.555,-15523.92,-20652.12,4693.905,-53848.619999999995,-2.965584417691201,1.8111228428545265,2.9497075243142503,10.31830908427529,8.689477158498583,5.509619979906026,5.085568094121785,-7.103346270671001,0.26892021,-0.990903225,-0.04296864,-4.89846,-19.57858,8.6982,72.0
1774821922.772751,1.5020370483398438e-05,2026-03-29T22:05:22.772,2026-03-29T18:05:22.772,-31740.48,-49924.53,-85178.565,-50377.59,-15525.314999999999,-20655.945,4682.16,-53853.479999999996,-5.4602281958270735,-0.8610700320314328,0.5366197840974696,4.686449505339026,3.4016025487369648,1.7690190431013668,4.660660531899984,-7.756531423959164,0.26892021,-0.990903225,-0.04296864,-4.89846,-19.57858,8.6982,72.0
1774821922.7727678,1.6689300537109375e-05,2026-03-29T22:05:22.772,2026-03-29T18:05:22.772,-31733.37,-49926.645,-85188.51,-50385.104999999996,-15528.779999999999,-20661.344999999998,4673.925,-53837.009999999995,-5.599713224880371,-3.3975959977859604,-2.40545342374646,-3.501353756871518,-3.878890903088729,-3.0996985009204145,2.07246892368028,-4.839360699516963,0.26892021,-0.990903225,-0.04296864,-4.89846,-19.57858,8.6982,72.0
1774821922.7750013,0.0022335052490234375,2026-03-29T22:05:22.775,2026-03-29T18:05:22.775,-31740.344999999998,-49935.555,-85192.02,-50387.265,-15531.93,-20667.059999999998,4672.9349999999995,-53830.755,-3.456327600071238,-4.858788173578411,-4.615175911469261,-10.27899096099831,-9.608530217299151,-6.708038886411819,-1.6070492229554425,0.17852412758071692,0.26892021,-0.990903225,-0.04296864,-4.89846,-19.57858,8.6982,72.0
1774821922.775023,2.1696090698242188e-05,2026-03-29T22:05:22.775,2026-03-29T18:05:22.775,-31756.545,-49947.479999999996,-85195.53,-50387.49,-15533.64,-20671.065,4673.295,-53835.525,-0.029404215644907063,-4.576309828508655,-4.995387917476816,-12.238109869519116,-10.85599234127558,-7.174452987192841,-4.749373704719915,4.897096043803234,0.26892021,-0.990903225,-0.04296864,-4.89846,-19.57858,8.6982,72.0
1774821922.7826345,0.007611513137817383,2026-03-29T22:05:22.782,2026-03-29T18:05:22.782,-31765.545,-49945.68,-85190.4,-50376.15,-15518.16,-20658.015,4676.67,-53852.715,3.218567299569393,-2.46723938786336,-3.1645075172161534,-8.235482378275856,-6.787017594234848,-4.091366659073517,-5.8929115224762425,7.140095965760404,0.266295705,-0.990170805,-0.04467762,-3.2198599999999997,-23.43936,11.81124,72.0
1774821922.7826695,3.504753112792969e-05,2026-03-29T22:05:22.782,2026-03-29T18:05:22.782,-31750.155,-49924.979999999996,-85169.205,-50361.075,-15506.64,-20650.545,4663.98,-53850.42,4.985421174398271,0.8236538197222564,0.26551091918729414,-0.03337204219409323,0.8340835971467839,1.1998214743434317,-4.421888885146199,5.972111760386908,0.266295705,-0.990170805,-0.04467762,-3.2198599999999997,-23.43936,11.81124,72.0
1774821922.7827036,3.409385681152344e-05,2026-03-29T22:05:22.782,2026-03-29T18:05:22.782,-31720.545,-49903.875,-85158.62999999999,-50358.42,-15508.845,-20653.649999999998,4659.12,-53830.259999999995,4.647341541750263,4.070252677356516,3.863858656123739,8.476985563603144,8.411504077286823,6.1929032921406275,-0.8857151942669026,2.096996907051941,0.266295705,-0.990170805,-0.04467762,-3.2198599999999997,-23.43936,11.81124,72.0
1774821922.782715,1.1444091796875e-05,2026-03-29T22:05:22.782,2026-03-29T18:05:22.782,-31712.489999999998,-49897.395,-85149.855,-50343.165,-15497.369999999999,-20640.645,4674.15,-53832.06,2.467783635087817,5.903317404919001,5.978636812814856,13.127218249388035,12.219927384548589,8.406266601704163,3.2028367841932517,-2.5364262042075887,0.266295705,-0.990170805,-0.04467762,-3.2198599999999997,-23.43936,11.81124,72.0
1774821922.795356,0.012640953063964844,2026-03-29T22:05:22.795,2026-03-29T18:05:22.795,-31730.67,-49907.115,-85146.12,-50342.49,-15501.869999999999,-20647.125,4674.78,-53851.814999999995,-0.5663451888697476,5.395130131347593,5.508286103497096,11.515483470501705,10.233762000633552,6.61237442991928,6.018518735596092,-5.709666149328083,0.266295705,-0.990170805,-0.04467762,-3.2198599999999997,-23.43936,11.81124,72.0
1774821922.7953715,1.5497207641601562e-05,2026-03-29T22:05:22.795,2026-03-29T18:05:22.795,-31749.254999999997,-49926.509999999995,-85165.11,-50361.119999999995,-15515.144999999999,-20660.265,4669.965,-53857.35,-3.189201088149963,2.5377311834107226,2.480949705354811,4.238880405777912,3.1859927812169295,1.4995971692027734,6.242209625248189,-6.004061027204605,0.266295705,-0.990170805,-0.04467762,-3.2198599999999997,-23.43936,11.81124,72.0
1774821922.795385,1.33514404296875e-05,2026-03-29T22:05:22.795,2026-03-29T18:05:22.795,-31750.649999999998,-49939.74,-85184.64,-50377.005,-15527.519999999999,-20669.265,4678.0199999999995,-53843.895,-4.382247703976902,-1.6347068034965317,-1.8646338454731242,-5.315151588164062,-5.690573929705731,-4.584011902002335,3.678637685395743,-3.445316079791044,0.266295705,-0.990170805,-0.04467762,-3.2198599999999997,-23.43936,11.81124,72.0
1774821922.7953897,4.76837158203125e-06,2026-03-29T22:05:22.795,2026-03-29T18:05:22.795,-31743.09,-49943.835,-85196.43,-50388.705,-15531.345,-20664.0,4680.945,-53836.335,-3.764700046826837,-5.394441970542535,-5.581301827179785,-12.553865289359447,-12.155827177357153,-8.714814057955007,-0.6161146912760522,0.5746979114911701,0.266295705,-0.990170805,-0.04467762,-3.2198599999999997,-23.43936,11.81124,72.0
1774821922.795395,5.245208740234375e-06,2026-03-29T22:05:22.795,2026-03-29T18:05:22.795,-31755.015,-49946.534999999996,-85189.14,-50387.895,-15533.775,-20664.945,4661.775,-53854.02,-1.7012114328782824,-7.0381111166196755,-6.898403677360454,-13.896060552365338,-12.995973437292381,-8.803139973731016,-4.77177430134797,4.035379036430086,0.266295705,-0.990170805,-0.04467762,-3.2198599999999997,-23.43936,11.81124,72.0
1774821922.7953987,3.814697265625e-06,2026-03-29T22:05:22.795,2026-03-29T18:05:22.795,-31762.44,-49941.54,-85180.05,-50379.255,-15522.255,-20651.895,4666.41,-53868.195,0.8957245482119508,-5.674927746610396,-5.082067702841971,-8.546950704730275,-7.619528227798638,-4.647022238208078,-6.924172583903148,5.300002984952242,0.266295705,-0.990170805,-0.04467762,-3.2198599999999997,-23.43936,11.81124,72.0
1774821922.800914,0.005515336990356445,2026-03-29T22:05:22.800,2026-03-29T18:05:22.800,-31746.465,-49934.295,-85180.68,-50369.174999999996,-15508.08,-20638.395,4688.82,-53842.68,2.9671255093431532,-1.71323059989911,-0.8459951321806216,1.0502614229329716,1.5767196692093586,1.900150184989009,-6.056569244212803,3.896656027691923,0.263976375,-0.994443255,-0.049987665,-1.64808,-26.506619999999998,15.80936,72.0
1774821922.8009639,4.982948303222656e-05,2026-03-29T22:05:22.800,2026-03-29T18:05:22.800,-31748.039999999997,-49942.89,-85194.855,-50361.39,-15499.619999999999,-20634.84,4695.929999999999,-53837.775,3.7372538032581626,3.220760438972863,3.9168886139343,10.33642308200344,10.284305178812605,7.7608113511919345,-2.480054077113572,0.6915660491543474,0.263976375,-0.994443255,-0.049987665,-1.64808,-26.506619999999998,15.80936,72.0
1774821922.811646,0.010682106018066406,2026-03-29T22:05:22.811,2026-03-29T18:05:22.811,-31749.704999999998,-49951.89,-85210.65,-50365.845,-15506.91,-20651.04,4681.304999999999,-53849.34,2.9985074807186525,6.947093588791519,6.98859205925643,14.814797353410738,14.315833433383157,10.089217358812045,2.274384656558341,-2.6076264404629743,0.263976375,-0.994443255,-0.049987665,-1.64808,-26.506619999999998,15.80936,72.0
1774821922.8116708,2.47955322265625e-05,2026-03-29T22:05:22.811,2026-03-29T18:05:22.811,-31745.879999999997,-49940.415,-85195.53,-50363.82,-15514.605,-20664.765,4670.865,-53851.14,1.1495817741402448,7.710178720266546,6.877250978735851,12.23988758188132,11.629154258196705,7.6599419616477284,6.116992831210514,-4.345655182093173,0.263976375,-0.994443255,-0.049987665,-1.64808,-26.506619999999998,15.80936,72.0
1774821922.8117533,8.249282836914062e-05,2026-03-29T22:05:22.811,2026-03-29T18:05:22.811,-31738.14,-49930.965,-85186.98,-50369.13,-15522.164999999999,-20668.364999999998,4672.26,-53843.354999999996,-1.0085454832661687,5.02525980081251,3.559407455629755,3.7464414402912833,3.360005445476123,1.508674691355849,7.325805924286232,-3.7481019285867134,0.263976375,-0.994443255,-0.049987665,-1.64808,-26.506619999999998,15.80936,72.0
1774821922.8117645,1.1205673217773438e-05,2026-03-29T22:05:22.811,2026-03-29T18:05:22.811,-31728.824999999997,-49918.634999999995,-85172.04,-50384.295,-15538.5,-20673.585,4670.054999999999,-53832.825,-2.618238256333023,-0.022959920573263615,-1.463016892321905,-6.650611499847169,-6.6588250627987975,-5.508449298204232,5.3243022729777225,-1.2701776985486857,0.263976375,-0.994443255,-0.049987665,-1.64808,-26.506619999999998,15.80936,72.0
1774821922.8117769,1.239776611328125e-05,2026-03-29T22:05:22.811,2026-03-29T18:05:22.811,-31730.309999999998,-49922.189999999995,-85176.0,-50399.369999999995,-15547.859999999999,-20675.07,4664.07,-53832.06,-3.1039954352693777,-5.208480104905543,-5.844316910505769,-13.965667188195596,-13.688810184096825,-10.050895172768545,0.9560615464201156,1.693196410786176,0.263976375,-0.994443255,-0.049987665,-1.64808,-26.506619999999998,15.80936,72.0
1774821922.8117864,9.5367431640625e-06,2026-03-29T22:05:22.811,2026-03-29T18:05:22.811,-31735.079999999998,-49936.994999999995,-85190.805,-50404.905,-15544.215,-20667.69,4665.0599999999995,-53838.27,-2.3714850275953663,-8.155835111822233,-7.5054429734947,-14.648643956727936,-14.344476413123893,-9.896605769498333,-3.8748037427242275,3.5661812190453746,0.263976375,-0.994443255,-0.049987665,-1.64808,-26.506619999999998,15.80936,72.0
1774821922.8164496,0.004663228988647461,2026-03-29T22:05:22.816,2026-03-29T18:05:22.816,-31722.614999999998,-49937.13,-85178.295,-50376.465,-15523.875,-20651.355,4672.845,-53835.299999999996,-0.8011682549725601,-7.4490224075129285,-5.641302805267992,-8.320084991175833,-8.235628689283216,-5.037605879794719,-7.042700445181175,3.415896710053309,0.263976375,-0.994443255,-0.049987665,-1.64808,-26.506619999999998,15.80936,72.0
1774821922.8164673,1.7642974853515625e-05,2026-03-29T22:05:22.816,2026-03-29T18:05:22.816,-31729.05,-49942.439999999995,-85168.125,-50354.055,-15503.715,-20642.219999999998,4672.26,-53839.215,0.9417205595291948,-3.330632899147752,-1.128183660804181,2.018151235822176,1.808819546289495,2.2755367802916244,-7.14542119894685,1.4153995688879348,0.263976375,-0.994443255,-0.049987665,-1.64808,-26.506619999999998,15.80936,72.0
1774821922.820358,0.0038907527923583984,2026-03-29T22:05:22.820,2026-03-29T18:05:22.820,-31735.395,-49934.295,-85140.765,-50323.59,-15479.595,-20628.27,4671.36,-53840.564999999995,2.1885887826609536,2.3616629965767855,3.8816778600420525,11.41347920261617,11.061210617338528,8.582494662750278,-4.130314295101147,-1.2837426893467025,0.26354913,-0.9987157050000001,-0.05224596,1.3428799999999999,-28.74984,18.29674,72.0
1774821922.8203716,1.3589859008789062e-05,2026-03-29T22:05:22.820,2026-03-29T18:05:22.820,-31756.77,-49930.74,-85147.11,-50336.549999999996,-15490.17,-20636.82,4670.37,-53857.979999999996,2.521356946154218,7.018987814239739,6.993786957930198,15.350115045145026,15.139579694577083,10.86447736421755,0.6807685500656709,-3.188464795800343,0.26354913,-0.9987157050000001,-0.05224596,1.3428799999999999,-28.74984,18.29674,72.0
1774821922.8272166,0.006844997406005859,2026-03-29T22:05:22.827,2026-03-29T18:05:22.827,-31748.129999999997,-49917.465,-85165.155,-50370.479999999996,-15518.115,-20658.78,4664.565,-53854.604999999996,1.903415239358405,8.474347449776001,6.73375103829708,11.936322127244244,12.102724980284703,8.004566794803244,5.179281896638029,-3.267244985337139,0.26354913,-0.9987157050000001,-0.05224596,1.3428799999999999,-28.74984,18.29674,72.0
1774821922.8272457,2.9087066650390625e-05,2026-03-29T22:05:22.827,2026-03-29T18:05:22.827,-31729.905,-49917.42,-85173.075,-50361.255,-15510.914999999999,-20656.98,4664.88,-53838.854999999996,0.651325464136937,6.032913579002859,3.2664933607698825,2.8247989882608713,3.3857588151704885,1.3442196905499444,7.4056240892619964,-1.4950624911771522,0.26354913,-0.9987157050000001,-0.05224596,1.3428799999999999,-28.74984,18.29674,72.0
1774821922.8384488,0.01120305061340332,2026-03-29T22:05:22.838,2026-03-29T18:05:22.838,-31732.245,-49918.905,-85166.86499999999,-50359.32,-15505.154999999999,-20643.93,4681.304999999999,-53835.795,-0.7224534767779051,0.8199127094742524,-1.6872590849777485,-7.58651164926235,-6.880031541133676,-5.945670373339638,6.412064146925634,1.1430990093828728,0.26354913,-0.9987157050000001,-0.05224596,1.3428799999999999,-28.74984,18.29674,72.0
1774821922.8384702,2.1457672119140625e-05,2026-03-29T22:05:22.838,2026-03-29T18:05:22.838,-31736.565,-49915.305,-85166.81999999999,-50385.42,-15526.215,-20659.32,4675.995,-53841.42,-1.7193183886655001,-4.7345379730920625,-5.701223883123485,-14.287207892538436,-13.840349097925555,-10.385109012783424,2.668303786044902,3.186974845717462,0.26354913,-0.9987157050000001,-0.05224596,1.3428799999999999,-28.74984,18.29674,72.0
1774821922.8384876,1.7404556274414062e-05,2026-03-29T22:05:22.838,2026-03-29T18:05:22.838,-31749.254999999997,-49944.465,-85205.25,-50408.28,-15546.51,-20680.739999999998,4662.2699999999995,-53842.14,-2.030680528530704,-8.039159602464848,-6.8416563619138975,-14.0822584463252,-14.235514528712011,-9.863765122315527,-2.165292216745796,3.4883286869153998,0.26354913,-0.9987157050000001,-0.05224596,1.3428799999999999,-28.74984,18.29674,72.0
1774821922.8384945,6.9141387939453125e-06,2026-03-29T22:05:22.838,2026-03-29T18:05:22.838,-31749.84,-49963.32,-85222.98,-50408.145,-15554.16,-20689.739999999998,4643.28,-53838.314999999995,-1.6204182113618464,-7.570289748503775,-4.617459217668564,-7.131302544879797,-7.946544854849286,-4.6610672994759765,-5.985672673312253,1.8336555211342147,0.26354913,-0.9987157050000001,-0.05224596,1.3428799999999999,-28.74984,18.29674,72.0
1774821922.8385024,7.867813110351562e-06,2026-03-29T22:05:22.838,2026-03-29T18:05:22.838,-31733.37,-49965.84,-85233.42,-50422.905,-15573.015,-20705.94,4617.945,-53831.204999999994,-0.6990655550775878,-3.5939149138005453,-0.2076748514267421,3.1490606841088993,1.972329997054972,2.692911291413435,-7.174009148609834,-0.9279590416895184,0.26354913,-0.9987157050000001,-0.05224596,1.3428799999999999,-28.74984,18.29674,72.0
1774821922.8385088,6.4373016357421875e-06,2026-03-29T22:05:22.838,2026-03-29T18:05:22.838,-31725.945,-49954.68,-85222.575,-50419.575,-15567.93,-20702.79,4628.61,-53831.025,0.38161911718955804,1.969974849161301,4.146736708341458,11.76640206365322,10.78270508567063,8.65090354918701,-5.2871429280262285,-3.322501341320043,0.26354913,-0.9987157050000001,-0.05224596,1.3428799999999999,-28.74984,18.29674,72.0
1774821922.8385165,7.62939453125e-06,2026-03-29T22:05:22.838,2026-03-29T18:05:22.838,-31725.0,-49923.314999999995,-85176.18,-50383.755,-15531.255,-20666.43,4680.945,-53831.295,1.261647847155735,6.476363771591337,6.278865094909805,14.588796963551744,14.344408433937025,10.374036653820557,-1.2152132753808729,-4.027992658870593,0.260070135,-0.99645741,-0.052062855,2.79258,-31.679759999999998,20.601,72.0
1774821922.838523,6.4373016357421875e-06,2026-03-29T22:05:22.838,2026-03-29T18:05:22.838,-31748.085,-49912.244999999995,-85147.29,-50344.02,-15485.4,-20620.89,4710.87,-53849.7,1.6834114864349585,7.826549425759459,5.18439399933851,10.342082305529756,11.08383469123017,7.104172818968842,3.2464257018941978,-2.5847474370341703,0.260070135,-0.99645741,-0.052062855,2.79258,-31.679759999999998,20.601,72.0
1774821922.8488357,0.010312795639038086,2026-03-29T22:05:22.848,2026-03-29T18:05:22.848,-31750.559999999998,-49909.185,-85148.37,-50339.744999999995,-15476.805,-20614.32,4701.87,-53870.85,1.5508283267735643,5.464080220133647,1.511514592774251,1.1955495825321127,2.7022871967127835,0.5110212920860008,6.201698629743919,0.33596640486720436,0.260070135,-0.99645741,-0.052062855,2.79258,-31.679759999999998,20.601,72.0
1774821922.848853,1.7404556274414062e-05,2026-03-29T22:05:22.848,2026-03-29T18:05:22.848,-31733.28,-49931.28,-85180.545,-50371.695,-15512.58,-20648.295,4689.72,-53844.795,0.9336929117442425,0.6140905197258666,-2.794044140536511,-8.337928319388448,-6.700953165327318,-6.151772293830429,6.4679557063503275,3.253076352851127,0.260070135,-0.99645741,-0.052062855,2.79258,-31.679759999999998,20.601,72.0
1774821922.848873,1.9788742065429688e-05,2026-03-29T22:05:22.848,2026-03-29T18:05:22.848,-31725.989999999998,-49933.08,-85187.295,-50386.77,-15532.965,-20667.465,4683.735,-53831.34,0.03158420308192628,-4.342187669241921,-5.503391546824012,-13.632456554595436,-12.642924883966604,-9.658628998016493,4.045785049039955,4.629189012730849,0.260070135,-0.99645741,-0.052062855,2.79258,-31.679759999999998,20.601,72.0
1774821922.8488772,4.291534423828125e-06,2026-03-29T22:05:22.848,2026-03-29T18:05:22.848,-31725.629999999997,-49932.72,-85192.875,-50412.509999999995,-15565.814999999999,-20691.855,4678.965,-53828.64,-0.8840143928176422,-7.041422217784063,-5.254954263370048,-12.20559550338958,-12.414680188964748,-8.39084093929589,0.05952326752447032,3.672031182695089,0.260070135,-0.99645741,-0.052062855,2.79258,-31.679759999999998,20.601,72.0
1774821922.856474,0.007596731185913086,2026-03-29T22:05:22.856,2026-03-29T18:05:22.856,-31727.204999999998,-49922.369999999995,-85167.27,-50387.49,-15542.055,-20671.155,4672.53,-53837.865,-1.5361718219069145,-6.278922287859369,-2.248054656913967,-4.894531398031419,-6.334691537422609,-3.101909718573628,-3.77542125140131,0.7691151508314054,0.260070135,-0.99645741,-0.052062855,2.79258,-31.679759999999998,20.601,72.0
1774821922.856495,2.09808349609375e-05,2026-03-29T22:05:22.856,2026-03-29T18:05:22.856,-31736.835,-49912.155,-85135.59,-50346.314999999995,-15505.83,-20642.895,4666.635,-53863.695,-1.7106770118864034,-2.558842588781071,1.8775575216831857,4.610790974239239,2.49057381108377,3.500919322391872,-5.901116202727558,-2.6758600937297325,0.260070135,-0.99645741,-0.052062855,2.79258,-31.679759999999998,20.601,72.0
1774821922.8565166,2.1696090698242188e-05,2026-03-29T22:05:22.856,2026-03-29T18:05:22.856,-31748.535,-49931.909999999996,-85167.765,-50352.345,-15511.23,-20652.03,4652.82,-53870.174999999996,-1.3189770144877624,2.203528753923032,4.912042078853052,11.625074904771033,9.747892658570137,8.136208278789107,-5.549549194439006,-4.9321634933752785,0.260070135,-0.99645741,-0.052062855,2.79258,-31.679759999999998,20.601,72.0
1774821922.8565238,7.152557373046875e-06,2026-03-29T22:05:22.856,2026-03-29T18:05:22.856,-31737.69,-49945.5,-85215.59999999999,-50371.155,-15521.894999999999,-20663.145,4651.0199999999995,-53854.74,-0.44193334720767125,5.661587939182275,5.241739802896054,12.781760620133538,12.037330505016886,8.58819968445322,-3.0023006881449747,-4.8139595421721015,0.260070135,-0.99645741,-0.052062855,2.79258,-31.679759999999998,20.601,72.0
1774821922.86852,0.011996269226074219,2026-03-29T22:05:22.868,2026-03-29T18:05:22.868,-31738.184999999998,-49934.475,-85201.69499999999,-50366.475,-15513.84,-20655.54,4661.595,-53852.759999999995,0.6665921577510475,6.199574540769738,2.701731479047671,7.658046679928169,8.483351905656521,4.783365707703821,0.5996645716592816,-2.294518313648226,0.253478355,-0.98864493,-0.051086295000000004,0.85456,-35.49476,20.02112,72.0
1774821922.8685355,1.5497207641601562e-05,2026-03-29T22:05:22.868,2026-03-29T18:05:22.868,-31734.045,-49918.14,-85177.89,-50366.564999999995,-15503.22,-20639.34,4692.554999999999,-53844.345,1.6346156731421668,3.698102134955354,-1.3339293808697148,-1.0779066729918905,1.065045554672929,-1.2272952124496461,3.777578520733825,1.4523310251303654,0.253478355,-0.98864493,-0.051086295000000004,0.85456,-35.49476,20.02112,72.0
1774821922.8685544,1.8835067749023438e-05,2026-03-29T22:05:22.868,2026-03-29T18:05:22.868,-31735.8,-49930.965,-85190.94,-50397.75,-15535.574999999999,-20671.02,4685.4,-53837.64,2.0858153309074687,-0.4648399065497757,-4.676408837073096,-9.04439010553579,-6.4568261386909125,-6.3530001610086915,5.324190485716472,4.612521413611629,0.253478355,-0.98864493,-0.051086295000000004,0.85456,-35.49476,20.02112,72.0
1774821922.8685591,4.76837158203125e-06,2026-03-29T22:05:22.868,2026-03-29T18:05:22.868,-31755.69,-49947.119999999995,-85187.43,-50393.43,-15541.064999999999,-20678.445,4679.01,-53852.895,1.783904235300306,-4.154932093638,-5.4855160317351395,-12.340926605469177,-10.444338748266032,-8.048689187825637,4.748401131146123,5.620395340386442,0.253478355,-0.98864493,-0.051086295000000004,0.85456,-35.49476,20.02112,72.0
1774821922.8685644,5.245208740234375e-06,2026-03-29T22:05:22.868,2026-03-29T18:05:22.868,-31753.035,-49936.814999999995,-85171.41,-50381.64,-15526.755,-20661.57,4689.585,-53863.695,0.7533647352819,-5.571987924154727,-3.2620441117608276,-9.461135812461324,-9.153914280085564,-5.5888751402541,2.399396767580921,3.9357945679727497,0.253478355,-0.98864493,-0.051086295000000004,0.85456,-35.49476,20.02112,72.0
1774821922.868568,3.5762786865234375e-06,2026-03-29T22:05:22.868,2026-03-29T18:05:22.868,-31744.53,-49916.7,-85143.95999999999,-50352.165,-15504.705,-20645.325,4681.53,-53869.365,-0.683932727651054,-4.13319601396221,0.8589774573658269,-1.9834508700357243,-3.506295462434853,-0.38748850747507935,-0.7389536088185092,0.3230265098900105,0.253478355,-0.98864493,-0.051086295000000004,0.85456,-35.49476,20.02112,72.0
1774821922.8830929,0.01452493667602539,2026-03-29T22:05:22.883,2026-03-29T18:05:22.883,-31735.395,-49913.729999999996,-85146.165,-50344.29,-15494.265,-20638.17,4669.2,-53859.6,-1.9931667368361452,-0.7128848987257692,4.681333077014214,6.278043314993187,3.4887891753459717,4.782378543289154,-3.4647645586279743,-3.5087314653467807,0.253478355,-0.98864493,-0.051086295000000004,0.85456,-35.49476,20.02112,72.0
1774821922.8831208,2.7894973754882812e-05,2026-03-29T22:05:22.883,2026-03-29T18:05:22.883,-31730.085,-49913.82,-85152.42,-50346.99,-15491.88,-20636.864999999998,4667.8949999999995,-53851.814999999995,-2.620002578504246,2.8600250476358173,6.099895252278774,11.211268263013023,8.316897182603892,7.249274010881686,-4.806823998313369,-5.728495561103635,0.253478355,-0.98864493,-0.051086295000000004,0.85456,-35.49476,20.02112,72.0
1774821922.8831403,1.9550323486328125e-05,2026-03-29T22:05:22.883,2026-03-29T18:05:22.883,-31732.92,-49917.689999999995,-85160.06999999999,-50355.63,-15498.449999999999,-20639.16,4674.51,-53858.52,-2.2261405758148656,4.767392701211775,4.23381123655982,10.449895601043748,8.724728410812743,5.82122475673571,-4.344268521531059,-5.2672078151239505,0.253478355,-0.98864493,-0.051086295000000004,0.85456,-35.49476,20.02112,72.0
1774821922.8831477,7.3909759521484375e-06,2026-03-29T22:05:22.883,2026-03-29T18:05:22.883,-31740.57,-49936.68,-85184.55,-50387.49,-15530.265,-20663.954999999998,4667.625,-53865.854999999996,-0.8666166342815603,4.124498812364206,-0.060382757226291904,4.507553954263415,4.779173342233692,1.370221559487915,-2.3083109626399345,-2.3315829169110156,0.253478355,-0.98864493,-0.051086295000000004,0.85456,-35.49476,20.02112,72.0
1774821922.8831563,8.58306884765625e-06,2026-03-29T22:05:22.883,2026-03-29T18:05:22.883,-31742.324999999997,-49947.479999999996,-85189.275,-50402.25,-15551.234999999999,-20682.45,4658.67,-53851.32,0.9821577022795158,1.391910780927526,-4.583767874886078,-3.541180685205935,-1.281956185462251,-3.667363245172353,0.5369527438217603,1.6986407475125576,0.245665875,-0.986752845,-0.053405625,-1.2207999999999999,-41.33934,22.44746,72.0
1774821922.8831627,6.4373016357421875e-06,2026-03-29T22:05:22.883,2026-03-29T18:05:22.883,-31751.64,-49973.354999999996,-85206.23999999999,-50399.415,-15548.4,-20685.6,4646.7,-53853.479999999996,2.5792704203446544,-1.9162286634874,-6.915291946976471,-9.643939947945539,-6.28273500012675,-6.598879618685718,3.171611628608805,4.934492661680478,0.245665875,-0.986752845,-0.053405625,-1.2207999999999999,-41.33934,22.44746,72.0
1774821922.8831708,8.106231689453125e-06,2026-03-29T22:05:22.883,2026-03-29T18:05:22.883,-31744.17,-49977.405,-85211.775,-50388.93,-15539.76,-20678.579999999998,4654.17,-53847.765,3.215182211919324,-4.054161027169725,-5.688422688077026,-10.804855044621226,-7.7587840172634825,-5.898484562656354,4.65983052556262,5.876417468995814,0.245665875,-0.986752845,-0.053405625,-1.2207999999999999,-41.33934,22.44746,72.0
1774821922.8831768,5.9604644775390625e-06,2026-03-29T22:05:22.883,2026-03-29T18:05:22.883,-31742.82,-49969.619999999995,-85210.73999999999,-50386.095,-15535.305,-20670.93,4685.8949999999995,-53838.27,2.5290428898940065,-3.9564322542273027,-1.357708973058703,-6.550065060748943,-5.171385286114476,-1.998358006311478,4.454977014613179,4.114202986794442,0.245665875,-0.986752845,-0.053405625,-1.2207999999999999,-41.33934,22.44746,72.0
1774821922.8878508,0.004673957824707031,2026-03-29T22:05:22.887,2026-03-29T18:05:22.887,-31737.375,-49944.015,-85186.08,-50371.02,-15523.289999999999,-20659.005,4701.0599999999995,-53823.645,0.7046142152421305,-1.766335894720907,3.963271214988835,0.8910571093198243,-0.08715860609365224,2.9617530534276812,2.5875816447129636,0.49914694110351426,0.245665875,-0.986752845,-0.053405625,-1.2207999999999999,-41.33934,22.44746,72.0
1774821922.887874,2.3126602172851562e-05,2026-03-29T22:05:22.887,2026-03-29T18:05:22.887,-31748.94,-49924.845,-85176.315,-50377.005,-15526.125,-20658.42,4690.845,-53843.445,-1.55861192074463,1.2807461580166677,7.538618612307552,7.750980605951589,4.725948655039563,6.287010983743481,-0.32048156366980235,-3.280251706985112,0.245665875,-0.986752845,-0.053405625,-1.2207999999999999,-41.33934,22.44746,72.0
1774821922.8913374,0.0034635066986083984,2026-03-29T22:05:22.891,2026-03-29T18:05:22.891,-31757.039999999997,-49920.75,-85172.22,-50366.655,-15510.015,-20643.48,4686.21,-53869.049999999996,-3.3095215752770706,3.539364869308768,7.41066632574703,10.627461897485375,6.779824353789097,6.168747126462426,-3.2346989852768724,-5.502090150030341,0.245665875,-0.986752845,-0.053405625,-1.2207999999999999,-41.33934,22.44746,72.0
1774821922.8913505,1.3113021850585938e-05,2026-03-29T22:05:22.891,2026-03-29T18:05:22.891,-31747.635,-49928.939999999995,-85193.64,-50388.93,-15521.715,-20653.92,4682.61,-53858.52,-3.747122882940312,3.830385320868505,3.4494653005509877,8.164459883844545,5.140649419133913,2.6513739587664253,-5.046654155291325,-5.204813254939024,0.245665875,-0.986752845,-0.053405625,-1.2207999999999999,-41.33934,22.44746,72.0
1774821922.8988643,0.007513761520385742,2026-03-29T22:05:22.898,2026-03-29T18:05:22.898,-31733.594999999998,-49927.275,-85199.12999999999,-50392.979999999996,-15530.894999999999,-20668.094999999998,4672.845,-53848.575,-2.589240139164948,2.049229566790524,-2.5035106277037418,1.6818299454252552,0.8473882655151587,-2.3865215118592342,-4.980036962924441,-2.6006883793628894,0.245665875,-0.986752845,-0.053405625,-1.2207999999999999,-41.33934,22.44746,72.0
1774821922.8988779,1.3589859008789062e-05,2026-03-29T22:05:22.898,2026-03-29T18:05:22.898,-31732.605,-49933.439999999995,-85199.48999999999,-50390.28,-15534.494999999999,-20676.015,4668.345,-53843.759999999995,-0.23737429659154102,-0.8054062637483291,-7.50157868710773,-5.53451778223762,-3.710515441634234,-6.2278286278850095,-2.924424664922239,1.0672119871755619,0.245665875,-0.986752845,-0.053405625,-1.2207999999999999,-41.33934,22.44746,72.0
1774821922.8988967,1.8835067749023438e-05,2026-03-29T22:05:22.898,2026-03-29T18:05:22.898,-31733.28,-49930.784999999996,-85194.855,-50398.875,-15541.154999999999,-20681.594999999998,4666.41,-53840.43,2.353522750658459,-3.183964090239412,-8.957091472463661,-9.899809517595138,-6.096288508526907,-6.764375678685479,0.4471252171511086,4.132540313523823,0.240538935,-0.99328359,-0.056823585,1.7549,-46.25306,22.32538,72.0
1774821922.8989007,4.0531158447265625e-06,2026-03-29T22:05:22.898,2026-03-29T18:05:22.898,-31731.84,-49917.869999999995,-85179.555,-50389.784999999996,-15536.205,-20673.405,4670.46,-53848.215,4.063206955853943,-3.8172811114750704,-5.9735950049608,-9.307971843301765,-5.108533812746567,-3.6312025196684736,3.8628262744204642,5.274592641382152,0.240538935,-0.99328359,-0.056823585,1.7549,-46.25306,22.32538,72.0
1774821922.90333,0.004429340362548828,2026-03-29T22:05:22.903,2026-03-29T18:05:22.903,-31739.219999999998,-49913.595,-85165.92,-50366.52,-15511.949999999999,-20646.719999999998,4681.17,-53873.64,4.094187509824144,-2.3845611241676075,0.1372445193181284,-4.1387323759564465,-1.3749244294408907,1.575109785320628,5.912365532804959,4.088227887543281,0.240538935,-0.99328359,-0.056823585,1.7549,-46.25306,22.32538,72.0
1774821922.903338,7.867813110351562e-06,2026-03-29T22:05:22.903,2026-03-29T18:05:22.903,-31730.039999999997,-49927.77,-85190.805,-50389.965,-15534.539999999999,-20665.8,4669.38,-53853.479999999996,2.345237749654853,0.33019842542130595,6.440717016878864,2.9839028729899413,3.0326255038893306,6.116688991968096,5.627514834145721,1.208636974191985,0.240538935,-0.99328359,-0.056823585,1.7549,-46.25306,22.32538,72.0
1774821922.911939,0.008600950241088867,2026-03-29T22:05:22.911,2026-03-29T18:05:22.911,-31730.399999999998,-49928.085,-85192.37999999999,-50391.945,-15536.744999999999,-20668.364999999998,4670.235,-53844.884999999995,-0.5053362251575573,2.8673223267942816,9.801337743844565,8.5316297692459,5.731936917823059,7.549197883951356,2.9451584876286288,-2.0346368068386824,0.240538935,-0.99328359,-0.056823585,1.7549,-46.25306,22.32538,72.0
1774821922.9119637,2.47955322265625e-05,2026-03-29T22:05:22.911,2026-03-29T18:05:22.911,-31746.555,-49919.265,-85173.56999999999,-50374.665,-15520.769999999999,-20654.415,4683.42,-53869.814999999995,-3.2606096253399404,3.8718091660081875,8.44751269587918,9.822922597941826,5.299159141611692,5.020783017362468,-1.1712606039489972,-4.244214344182809,0.240538935,-0.99328359,-0.056823585,1.7549,-46.25306,22.32538,72.0
1774821922.9119868,2.3126602172851562e-05,2026-03-29T22:05:22.911,2026-03-29T18:05:22.911,-31754.61,-49926.284999999996,-85177.125,-50374.305,-15520.05,-20657.61,4675.905,-53880.165,-4.7107541380931135,2.8098064695393807,2.8955903944526282,6.314438710329375,2.0029609578522245,-0.249604431121392,-5.052331270212837,-4.5609017738362,0.240538935,-0.99328359,-0.056823585,1.7549,-46.25306,22.32538,72.0
1774821922.9119968,1.0013580322265625e-05,2026-03-29T22:05:22.911,2026-03-29T18:05:22.911,-31751.864999999998,-49933.215,-85183.245,-50381.325,-15529.904999999999,-20669.13,4669.335,-53865.674999999996,-4.168261372097332,0.2452013692581182,-4.24509814847879,-0.1875439054127424,-2.3686089527179823,-5.574349521873156,-6.9941912042823375,-2.984612029910737,0.240538935,-0.99328359,-0.056823585,1.7549,-46.25306,22.32538,72.0
1774821922.9193718,0.007375001907348633,2026-03-29T22:05:22.919,2026-03-29T18:05:22.919,-31739.039999999997,-49926.15,-85179.105,-50381.009999999995,-15534.314999999999,-20676.285,4673.385,-53848.439999999995,-1.7939628917865569,-2.464369563007618,-9.513628076007201,-6.468122230015325,-5.477903093865448,-8.176354916379626,-6.013905392070027,-0.2983409441830408,0.240538935,-0.99328359,-0.056823585,1.7549,-46.25306,22.32538,72.0
1774821922.919407,3.504753112792969e-05,2026-03-29T22:05:22.919,2026-03-29T18:05:22.919,-31733.954999999998,-49926.104999999996,-85179.825,-50379.975,-15530.49,-20673.675,4676.4,-53845.65,1.4408791016695677,-3.886906219420614,-10.288214544911044,-9.503317116769441,-5.678983509768155,-6.633875296681532,-2.3502063680399696,2.329977420161244,0.240538935,-0.99328359,-0.056823585,1.7549,-46.25306,22.32538,72.0
1774821922.92802,0.008613109588623047,2026-03-29T22:05:22.928,2026-03-29T18:05:22.928,-31724.235,-49918.365,-85171.05,-50369.715,-15512.4,-20653.829999999998,4679.235,-53850.96,4.153618581871202,-3.2698157960404908,-6.0946650049828754,-7.918280862146468,-2.8746085600275366,-1.6401538663190234,2.546866122877309,3.861607240759192,0.234435435,-0.999692265,-0.059387055,4.68482,-49.1372,22.661099999999998,72.0
1774821922.928033,1.3113021850585938e-05,2026-03-29T22:05:22.928,2026-03-29T18:05:22.928,-31719.69,-49915.845,-85160.79,-50362.29,-15509.07,-20645.684999999998,4672.665,-53851.814999999995,5.145454186964874,-0.9327862870299122,1.1221671094966645,-2.599907574170607,1.4523905523029248,4.3223136044173645,6.579893536895688,3.787837200924207,0.234435435,-0.999692265,-0.059387055,4.68482,-49.1372,22.661099999999998,72.0
1774821922.9280517,1.8596649169921875e-05,2026-03-29T22:05:22.928,2026-03-29T18:05:22.928,-31729.59,-49919.31,-85157.955,-50359.77,-15509.025,-20644.559999999998,4654.3949999999995,-53863.155,3.9344859139325914,1.9031997422249187,7.913358776417559,3.8041440229968333,5.03452489166516,8.233438638750927,7.907777440022184,2.2686668980826563,0.234435435,-0.999692265,-0.059387055,4.68482,-49.1372,22.661099999999998,72.0
1774821922.928056,4.291534423828125e-06,2026-03-29T22:05:22.928,2026-03-29T18:05:22.928,-31742.145,-49939.515,-85192.37999999999,-50377.77,-15524.73,-20652.12,4660.11,-53865.854999999996,0.9880309565657611,3.757375717782369,10.99121187729338,8.217103959557317,6.011840177992564,8.074815424215751,5.79709751254037,-0.007326694556451265,0.234435435,-0.999692265,-0.059387055,4.68482,-49.1372,22.661099999999998,72.0
1774821922.9313688,0.003312826156616211,2026-03-29T22:05:22.931,2026-03-29T18:05:22.931,-31745.07,-49933.755,-85176.045,-50343.615,-15498.765,-20633.219999999998,4685.3099999999995,-53861.354999999996,-2.457093580950321,3.663124204302642,8.833481549732193,8.620567254180205,3.8929600666113995,3.8679236002913204,1.0222450761146926,-2.142433027232041,0.234435435,-0.999692265,-0.059387055,4.68482,-49.1372,22.661099999999998,72.0
1774821922.9313948,2.5987625122070312e-05,2026-03-29T22:05:22.931,2026-03-29T18:05:22.931,-31747.949999999997,-49932.27,-85173.61499999999,-50364.27,-15525.359999999999,-20662.38,4684.86,-53853.57,-4.917304403979146,1.6699040946387171,2.4382995837260233,4.974859831477981,-0.20987026291865923,-2.3218691283527004,-4.401961539248449,-3.3771013665190512,0.234435435,-0.999692265,-0.059387055,4.68482,-49.1372,22.661099999999998,72.0
1774821922.931418,2.3126602172851562e-05,2026-03-29T22:05:22.931,2026-03-29T18:05:22.931,-31747.59,-49950.18,-85211.50499999999,-50406.57,-15560.055,-20694.87,4661.505,-53850.869999999995,-5.305253624886307,-1.1864343790737397,-5.145654992123,-0.8458235304975575,-4.179332383952548,-7.419438484703294,-8.072769802338522,-3.3348962168168796,0.234435435,-0.999692265,-0.059387055,4.68482,-49.1372,22.661099999999998,72.0
1774821922.9314244,6.4373016357421875e-06,2026-03-29T22:05:22.931,2026-03-29T18:05:22.931,-31730.309999999998,-49923.314999999995,-85188.015,-50403.509999999995,-15558.029999999999,-20690.864999999998,4652.955,-53846.82,-3.4124622107549016,-3.4259633636786972,-10.289127166546397,-6.027754959936847,-5.998475967432083,-8.886081721678428,-8.275132451973091,-2.1024126874747924,0.234435435,-0.999692265,-0.059387055,4.68482,-49.1372,22.661099999999998,72.0
1774821922.9354138,0.003989458084106445,2026-03-29T22:05:22.935,2026-03-29T18:05:22.935,-31737.105,-49921.965,-85178.34,-50386.95,-15534.045,-20662.11,4678.47,-53852.085,-0.016461018820978373,-3.894338722640914,-10.536520421878642,-8.191599388867274,-4.781593146449616,-5.992627474661138,-4.793362009718155,-0.1533817230495552,0.234435435,-0.999692265,-0.059387055,4.68482,-49.1372,22.661099999999998,72.0
1774821922.9354367,2.288818359375e-05,2026-03-29T22:05:22.935,2026-03-29T18:05:22.935,-31746.69,-49939.424999999996,-85191.48,-50377.905,-15507.855,-20634.48,4708.62,-53864.595,3.440905969154012,-2.358711135513613,-5.788857154829686,-6.4896389988306336,-1.2015241580706053,-0.1772092667365266,0.9301210208650721,1.8290964734950492,0.234435435,-0.999692265,-0.059387055,4.68482,-49.1372,22.661099999999998,72.0
1774821922.9472544,0.011817693710327148,2026-03-29T22:05:22.947,2026-03-29T18:05:22.947,-31730.985,-49927.77,-85178.43,-50366.295,-15499.035,-20631.69,4696.29,-53852.939999999995,5.469676323012539,0.377830877197436,1.6592130544062433,-1.918566490692725,2.890966657148837,5.686019898493112,6.391077617751696,3.1682887022327417,0.23168886,-1.00842027,-0.06042465,7.35532,-51.41094,25.80466,72.0
1774821922.947287,3.266334533691406e-05,2026-03-29T22:05:22.947,2026-03-29T18:05:22.947,-31739.94,-49922.055,-85165.29,-50359.455,-15507.135,-20645.19,4678.514999999999,-53865.54,5.177197996161392,2.898809572667155,8.240830543776873,3.255786743415809,5.4386003725006375,8.728797964967207,9.128804825224387,3.3947962095867608,0.23168886,-1.00842027,-0.06042465,7.35532,-51.41094,25.80466,72.0
1774821922.9473124,2.5272369384765625e-05,2026-03-29T22:05:22.947,2026-03-29T18:05:22.947,-31730.579999999998,-49914.54,-85160.87999999999,-50364.27,-15515.73,-20649.149999999998,4690.755,-53851.5,2.6617012546149104,3.910668341674028,10.843578397362416,6.634647144082842,5.225042256765825,7.50908976441834,7.847746278638987,2.392955898867138,0.23168886,-1.00842027,-0.06042465,7.35532,-51.41094,25.80466,72.0
1774821922.9473224,1.0013580322265625e-05,2026-03-29T22:05:22.947,2026-03-29T18:05:22.947,-31734.315,-49927.634999999995,-85169.205,-50383.395,-15543.945,-20677.32,4680.945,-53851.725,-1.019830052203988,2.9090630777768194,8.297469335033824,6.808994724458425,2.46032306731874,2.6992945473709136,3.0379261040791965,0.45855693469418546,0.23168886,-1.00842027,-0.06042465,7.35532,-51.41094,25.80466,72.0
1774821922.9523711,0.0050487518310546875,2026-03-29T22:05:22.952,2026-03-29T18:05:22.952,-31730.94,-49922.775,-85150.845,-50361.615,-15531.795,-20670.57,4672.62,-53852.4,-4.299192577361354,0.4311246054569307,1.905562534193408,3.9390397826207937,-1.3791558565090187,-3.288101880000883,-3.206160063245325,-1.7608890603720386,0.23168886,-1.00842027,-0.06042465,7.35532,-51.41094,25.80466,72.0
1774821922.952387,1.5974044799804688e-05,2026-03-29T22:05:22.952,2026-03-29T18:05:22.952,-31730.85,-49920.345,-85155.165,-50348.07,-15518.564999999999,-20659.77,4677.075,-53847.18,-5.768785922564857,-2.2327110654009332,-5.225854019491741,-0.44294435234506935,-4.347046805516663,-7.528290065623921,-8.104655298628202,-3.452170645864646,0.23168886,-1.00842027,-0.06042465,7.35532,-51.41094,25.80466,72.0
1774821922.952418,3.0994415283203125e-05,2026-03-29T22:05:22.952,2026-03-29T18:05:22.952,-31739.039999999997,-49912.875,-85154.12999999999,-50327.955,-15492.914999999999,-20636.594999999998,4675.095,-53866.439999999995,-4.7881595568272655,-3.7127175141358078,-9.71232165858942,-4.252478445073521,-5.028267922963613,-8.033443186956625,-9.442425127399922,-3.9157622761737985,0.23168886,-1.00842027,-0.06042465,7.35532,-51.41094,25.80466,72.0
1774821922.952423,5.0067901611328125e-06,2026-03-29T22:05:22.952,2026-03-29T18:05:22.952,-31741.559999999998,-49918.814999999995,-85178.87999999999,-50357.34,-15512.625,-20652.614999999998,4661.1449999999995,-53882.415,-1.7628574168626983,-3.2670133366417646,-9.516123435174087,-5.857258412456969,-3.2249464812302406,-4.696919816282925,-6.581803594705673,-2.8537200572102286,0.23168886,-1.00842027,-0.06042465,7.35532,-51.41094,25.80466,72.0
1774821922.9580734,0.00565028190612793,2026-03-29T22:05:22.958,2026-03-29T18:05:22.958,-31738.949999999997,-49938.165,-85209.795,-50403.915,-15543.494999999999,-20675.79,4662.179999999999,-53871.795,2.0257314567208784,-1.1557168169766914,-4.8824124290495785,-4.777127030161573,0.009639557751679425,0.7212782529487054,-0.7698037683930782,-0.5479560930064002,0.23168886,-1.00842027,-0.06042465,7.35532,-51.41094,25.80466,72.0
1774821922.9580872,1.3828277587890625e-05,2026-03-29T22:05:22.958,2026-03-29T18:05:22.958,-31736.969999999998,-49954.545,-85217.175,-50418.765,-15551.955,-20671.515,4686.974999999999,-53856.63,4.966965446466258,1.5074755265966342,1.8487479369488378,-1.779808816641563,2.9757321021304373,5.5283650229347705,5.40942250174412,2.1740113729873327,0.23168886,-1.00842027,-0.06042465,7.35532,-51.41094,25.80466,72.0
1774821922.9581003,1.3113021850585938e-05,2026-03-29T22:05:22.958,2026-03-29T18:05:22.958,-31742.055,-49959.225,-85207.455,-50403.78,-15542.189999999999,-20661.885,4699.98,-53852.895,5.809053865156437,3.3429463746074752,7.431375493462545,1.6103457506679746,4.228105221650867,7.454697706402243,9.19421052830665,4.21519612192966,0.232970595,-1.016659995,-0.06262191,13.428799999999999,-52.20446,30.7489,72.0
1774821922.9581048,4.5299530029296875e-06,2026-03-29T22:05:22.958,2026-03-29T18:05:22.958,-31747.364999999998,-49954.005,-85187.11499999999,-50382.72,-15529.904999999999,-20658.69,4685.804999999999,-53857.17,4.193122826245287,3.4219855598266924,9.296578432707964,3.8944670189260018,3.293785145567125,5.741989274881687,8.891372785875673,4.647634324606492,0.232970595,-1.016659995,-0.06262191,13.428799999999999,-52.20446,30.7489,72.0
1774821922.9698448,0.011739969253540039,2026-03-29T22:05:22.969,2026-03-29T18:05:22.969,-31742.82,-49929.57,-85168.485,-50369.265,-15526.17,-20662.2,4679.415,-53851.994999999995,0.8047350593360499,1.7394995690365298,6.7495983440447125,4.268841088317185,0.845119561574525,1.435140399114461,4.640802927071151,3.1394844906606427,0.232970595,-1.016659995,-0.06262191,13.428799999999999,-52.20446,30.7489,72.0
1774821922.9698567,1.1920928955078125e-05,2026-03-29T22:05:22.969,2026-03-29T18:05:22.969,-31753.844999999998,-49918.005,-85171.86,-50378.265,-15534.945,-20674.305,4669.0199999999995,-53868.15,-2.9205066283731287,-0.7992303140924518,1.2158053991186495,2.880116872004583,-1.7312868580645315,-3.2302162776357597,-1.6497114031727838,0.17102992109629703,0.232970595,-1.016659995,-0.06262191,13.428799999999999,-52.20446,30.7489,72.0
1774821922.9698703,1.3589859008789062e-05,2026-03-29T22:05:22.969,2026-03-29T18:05:22.969,-31743.27,-49928.445,-85201.47,-50403.645,-15552.855,-20690.91,4648.679999999999,-53869.814999999995,-5.409240330580416,-2.863868125854834,-4.544230033276559,0.602597383086148,-3.1095989228399876,-5.9946105420621105,-7.1684166713104,-3.0909043018462015,0.232970595,-1.016659995,-0.06262191,13.428799999999999,-52.20446,30.7489,72.0
1774821922.9698753,5.0067901611328125e-06,2026-03-29T22:05:22.969,2026-03-29T18:05:22.969,-31732.515,-49938.39,-85221.45,-50394.825,-15538.994999999999,-20677.995,4650.66,-53859.645,-5.61744859401955,-3.397088645675662,-7.82354820071756,-1.4838296735844305,-2.715339188172275,-5.684837540720666,-9.46706757991201,-5.245630422267535,0.232970595,-1.016659995,-0.06262191,13.428799999999999,-52.20446,30.7489,72.0
1774821922.9784584,0.00858306884765625,2026-03-29T22:05:22.978,2026-03-29T18:05:22.978,-31741.245,-49955.49,-85248.22499999999,-50411.564999999995,-15550.695,-20678.715,4662.9,-53858.52,-3.4682071120178724,-2.1587304387800907,-7.257666735458482,-2.614198915441251,-0.9694758683390443,-2.7155263788196677,-7.555454946744825,-5.265577248171988,0.232970595,-1.016659995,-0.06262191,13.428799999999999,-52.20446,30.7489,72.0
1774821922.978486,2.765655517578125e-05,2026-03-29T22:05:22.978,2026-03-29T18:05:22.978,-31733.774999999998,-49949.685,-85239.045,-50424.479999999996,-15560.099999999999,-20677.95,4686.57,-53848.259999999995,0.12348391501852446,0.1652564349373806,-3.391810971193056,-2.60323645766156,1.0194053443702527,1.2333726825942373,-2.3299024589198742,-2.9911096204218897,0.232970595,-1.016659995,-0.06262191,13.428799999999999,-52.20446,30.7489,72.0
1774821922.9785104,2.4318695068359375e-05,2026-03-29T22:05:22.978,2026-03-29T18:05:22.978,-31728.465,-49901.445,-85151.97,-50383.439999999995,-15540.84,-20665.305,4700.835,-53861.22,3.644670493833478,2.3390227171078544,1.7093397940265733,-1.772316958426542,2.117583294738906,4.149709682518484,3.850145173263033,0.7279035733796485,0.232970595,-1.016659995,-0.06262191,13.428799999999999,-52.20446,30.7489,72.0
1774821922.9785204,1.0013580322265625e-05,2026-03-29T22:05:22.978,2026-03-29T18:05:22.978,-31718.385,-49889.744999999995,-85130.955,-50362.65,-15526.755,-20655.855,4697.955,-53858.07,5.625475391026943,3.2335547722742093,5.561090480778583,-0.6479562285799991,1.801812551042262,4.721318506764687,8.235529026071019,4.340442889318523,0.232970595,-1.016659995,-0.06262191,13.428799999999999,-52.20446,30.7489,72.0
1774821922.9873667,0.008846282958984375,2026-03-29T22:05:22.987,2026-03-29T18:05:22.987,-31716.315,-49912.11,-85165.83,-50379.39,-15540.75,-20668.68,4682.88,-53843.67,5.253655283938735,2.4152179672857397,6.4832570509598915,0.3543067515034106,0.4166802707042112,2.9354055576097924,8.918471156825733,6.245438452680225,0.22631778,-1.017392415,-0.06237777,17.19802,-55.668479999999995,33.15998,72.0
1774821922.9873877,2.09808349609375e-05,2026-03-29T22:05:22.987,2026-03-29T18:05:22.987,-31723.515,-49922.325,-85179.87,-50381.145,-15537.195,-20665.485,4684.139999999999,-53852.67,2.7050716046662915,0.3583043512228529,4.339639738311691,1.077611200159685,-1.0755764984732508,-0.03219668241182433,5.66642345740318,5.509397335193925,0.22631778,-1.017392415,-0.06237777,17.19802,-55.668479999999995,33.15998,72.0
1774821922.987404,1.6450881958007812e-05,2026-03-29T22:05:22.987,2026-03-29T18:05:22.987,-31722.03,-49924.755,-85184.81999999999,-50379.75,-15535.664999999999,-20665.079999999998,4682.88,-53851.994999999995,-0.9431878018890297,-1.8238776031680637,0.46336791628647134,1.5541014711908083,-1.694275144166864,-2.531090307695627,-0.007127126879426773,2.3243372110679017,0.22631778,-1.017392415,-0.06237777,17.19802,-55.668479999999995,33.15998,72.0
1774821922.987409,5.0067901611328125e-06,2026-03-29T22:05:22.987,2026-03-29T18:05:22.987,-31735.215,-49932.405,-85190.355,-50381.189999999995,-15534.72,-20666.295,4677.974999999999,-53860.68,-4.172724623882549,-2.9794825481471716,-3.131445404639982,1.8170291996928292,-1.0362681527859223,-3.3392962760495193,-5.550731462464705,-2.019355677921055,0.22631778,-1.017392415,-0.06237777,17.19802,-55.668479999999995,33.15998,72.0
1774821922.990949,0.0035398006439208984,2026-03-29T22:05:22.990,2026-03-29T18:05:22.990,-31756.184999999998,-49927.634999999995,-85169.745,-50365.619999999995,-15522.029999999999,-20654.82,4680.179999999999,-53886.465,-5.657939409180447,-2.527352914764256,-4.800083511206067,1.7641295005450215,0.4772498787331564,-2.2670059027620897,-8.52863843637596,-5.658184426661501,0.22631778,-1.017392415,-0.06237777,17.19802,-55.668479999999995,33.15998,72.0
1774821922.9909782,2.9325485229492188e-05,2026-03-29T22:05:22.990,2026-03-29T18:05:22.990,-31747.59,-49923.765,-85169.205,-50362.2,-15519.24,-20653.605,4677.929999999999,-53883.81,-4.808185558757354,-0.7522602591721655,-4.030084256230247,1.1939005350758962,1.8478516734183137,-0.160703025063831,-7.695610527564597,-6.96298889192848,0.22631778,-1.017392415,-0.06237777,17.19802,-55.668479999999995,33.15998,72.0
1774821922.9909985,2.0265579223632812e-05,2026-03-29T22:05:22.990,2026-03-29T18:05:22.990,-31737.96,-49927.365,-85178.295,-50372.865,-15530.13,-20664.225,4674.0599999999995,-53871.84,-1.997036656693433,1.3653095944502496,-1.5574786535600658,0.003913984363381481,2.1021974431051325,1.6548763921801708,-3.5169657420578693,-5.273996780975132,0.22631778,-1.017392415,-0.06237777,17.19802,-55.668479999999995,33.15998,72.0
1774821922.9910057,7.152557373046875e-06,2026-03-29T22:05:22.991,2026-03-29T18:05:22.991,-31727.655,-49921.424999999996,-85172.31,-50374.125,-15534.224999999999,-20666.16,4679.28,-53855.009999999995,1.6072912799875174,2.6866108350265305,1.1605393894822889,-1.5902459433366276,0.9034392215769268,2.1580984861472423,2.0823382720055377,-1.2286782953187434,0.22631778,-1.017392415,-0.06237777,17.19802,-55.668479999999995,33.15998,72.0
1774821923.0083585,0.017352819442749023,2026-03-29T22:05:23.008,2026-03-29T18:05:23.008,-31728.78,-49925.88,-85178.745,-50381.955,-15539.805,-20670.12,4677.48,-53849.204999999994,4.530771808035022,2.526676839153002,2.77970402456708,-2.9981322479202936,-1.1886941666076443,1.1914642046641584,6.607022783803715,3.478369148781218,0.22631778,-1.017392415,-0.06237777,17.19802,-55.668479999999995,33.15998,72.0
1774821923.0083773,1.8835067749023438e-05,2026-03-29T22:05:23.008,2026-03-29T18:05:23.008,-31729.86,-49929.975,-85189.5,-50385.195,-15541.47,-20674.62,4665.51,-53858.564999999995,5.595078661232237,1.0123002987304839,2.7413744589101428,-3.460063496181245,-2.9793114464322246,-0.5003213453884635,8.107147453142371,6.812230611730132,0.22631778,-1.017392415,-0.06237777,17.19802,-55.668479999999995,33.15998,72.0
1774821923.0083966,1.9311904907226562e-05,2026-03-29T22:05:23.008,2026-03-29T18:05:23.008,-31722.12,-49937.354999999996,-85214.43,-50398.965,-15553.349999999999,-20684.43,4662.855,-53853.255,4.386708172425816,-1.0024031324102205,1.443534022301399,-2.4514065867165784,-3.298554114530505,-1.7558415283943687,6.020031547102297,7.283594692771848,0.21557562,-1.012021335,-0.06567366,16.633399999999998,-59.1325,35.29638,72.0
1774821923.0084012,4.5299530029296875e-06,2026-03-29T22:05:23.008,2026-03-29T18:05:23.008,-31719.42,-49943.34,-85226.08499999999,-50395.5,-15546.96,-20677.364999999998,4670.325,-53850.015,1.40997841943948,-2.4112589330525727,-0.12850110166174578,-0.07235372822304074,-1.7031411183226461,-1.7130461387382514,1.3748383590092308,4.614536175974098,0.21557562,-1.012021335,-0.06567366,16.633399999999998,-59.1325,35.29638,72.0
1774821923.0084062,5.0067901611328125e-06,2026-03-29T22:05:23.008,2026-03-29T18:05:23.008,-31734.405,-49932.765,-85196.34,-50377.14,-15532.785,-20663.64,4673.745,-53867.564999999995,-2.128108974103619,-2.460518071276552,-1.0496380539063632,2.8276233598571734,1.1818262989192538,-0.3387579876303742,-3.710597504916652,-0.11370967797002698,0.21557562,-1.012021335,-0.06567366,16.633399999999998,-59.1325,35.29638,72.0
1774821923.0084102,4.0531158447265625e-06,2026-03-29T22:05:23.008,2026-03-29T18:05:23.008,-31742.954999999998,-49923.36,-85168.845,-50365.034999999996,-15523.425,-20657.34,4666.7699999999995,-53875.305,-4.806639516825592,-1.153686176564187,-0.9847838204726368,4.928888849695326,3.9029232337721065,1.534834516383056,-6.996211196065292,-4.9040845310783805,0.21557562,-1.012021335,-0.06567366,16.633399999999998,-59.1325,35.29638,72.0
1774821923.01624,0.007829666137695312,2026-03-29T22:05:23.016,2026-03-29T18:05:23.016,-31739.129999999997,-49923.585,-85175.55,-50375.25,-15530.939999999999,-20665.17,4668.4349999999995,-53869.725,-5.555205187647881,0.7612185953466214,-0.3029964737161571,5.047482633256308,4.910458651634175,2.6914300382021312,-7.108282313471029,-7.692558276121482,0.21557562,-1.012021335,-0.06567366,16.633399999999998,-59.1325,35.29638,72.0
1774821923.016261,2.1219253540039062e-05,2026-03-29T22:05:23.016,2026-03-29T18:05:23.016,-31764.195,-49933.17,-85183.92,-50390.64,-15543.945,-20675.79,4675.635,-53892.18,-4.072974694146818,2.2114926178321137,0.2583319148202042,2.7869996419530367,3.413232380663043,2.2586632753482347,-4.1135990285325725,-7.238397786605855,0.21557562,-1.012021335,-0.06567366,16.633399999999998,-59.1325,35.29638,72.0
