unix_time_s,dt_s,UTC,LOCAL,EMG1_Raw,EMG2_Raw,EMG3_Raw,EMG4_Raw,EMG5_Raw,EMG6_Raw,EMG7_Raw,EMG8_Raw,EMG1_Filtered,EMG2_Filtered,EMG3_Filtered,EMG4_Filtered,EMG5_Filtered,EMG6_Filtered,EMG7_Filtered,EMG8_Filtered,Accel1_Raw,Accel2_Raw,Accel3_Raw,Gyro1_Raw,Gyro2_Raw,Gyro3_Raw,Battery
1774822813.8165758,,2026-03-29T22:20:13.816,2026-03-29T18:20:13.816,-32868.945,-46157.625,-85457.745,-49898.7,-12077.955,-17307.18,6860.384999999999,-49619.564999999995,0.10790392333019933,0.7944600780309966,-0.41146879062726854,-0.8417578079594621,-0.05974615908627228,0.2144416345656175,0.06573253761730738,-0.13807647052000593,0.94567629,-0.05322252,0.34045323,-12.31482,-3.5098,-8.6982,69.0
1774822813.816588,1.2159347534179688e-05,2026-03-29T22:20:13.816,2026-03-29T18:20:13.816,-32871.869999999995,-46161.54,-85467.78,-49907.34,-12085.38,-17317.845,6862.275,-49623.93,1.1076888912862186,2.800034949435917,1.6562330449946272,-1.898538745515456,-1.0478074313559462,-0.23492366775331022,1.0331869320683185,-1.63427437686917,0.94567629,-0.05322252,0.34045323,-12.31482,-3.5098,-8.6982,69.0
1774822813.8235,0.0069119930267333984,2026-03-29T22:20:13.823,2026-03-29T18:20:13.823,-32873.49,-46161.045,-85468.00499999999,-49904.505,-12082.949999999999,-17316.855,6858.855,-49632.435,1.7807017987587188,3.628328492234347,3.0476043791270633,-2.016455178433156,-1.6060343374724333,-0.6880086816003577,1.500694154198794,-2.244987518301351,0.94567629,-0.05322252,0.34045323,-12.31482,-3.5098,-8.6982,69.0
1774822813.8235183,1.8358230590820312e-05,2026-03-29T22:20:13.823,2026-03-29T18:20:13.823,-32867.415,-46156.994999999995,-85463.73,-49898.564999999995,-12073.455,-17298.0,6863.804999999999,-49630.59,1.886802385779826,2.818178753050924,3.0352652809958722,-1.170787525866298,-1.5764704733592034,-1.09059526376998,1.1748806251487847,-1.5894357724337862,0.94567629,-0.05322252,0.34045323,-12.31482,-3.5098,-8.6982,69.0
1774822813.823536,1.7642974853515625e-05,2026-03-29T22:20:13.823,2026-03-29T18:20:13.823,-32869.17,-46158.705,-85466.655,-49901.985,-12074.49,-17292.915,6864.389999999999,-49631.939999999995,1.3353989458464761,0.6494697474984708,1.536087538586602,0.1938308101848219,-1.010205685667545,-1.2979130341709137,0.17477387575916126,0.019742894667425657,0.94567629,-0.05322252,0.34045323,-12.31482,-3.5098,-8.6982,69.0
1774822813.8235433,7.3909759521484375e-06,2026-03-29T22:20:13.823,2026-03-29T18:20:13.823,-32866.38,-46154.475,-85460.76,-49896.27,-12069.765,-17292.329999999998,6868.3949999999995,-49628.88,0.24816145733710462,-1.9451501436111849,-0.8098529073607528,1.3950401838544078,-0.12745754312600135,-1.1226877645839886,-1.0093902919265727,1.7272290196624658,0.94567629,-0.05322252,0.34045323,-12.31482,-3.5098,-8.6982,69.0
1774822813.833186,0.009642601013183594,2026-03-29T22:20:13.833,2026-03-29T18:20:13.833,-32868.315,-46153.935,-85456.305,-49890.015,-12065.175,-17288.01,6871.905,-49627.125,-1.036469762972066,-3.7818336380051334,-2.9103829460422364,1.8569875868307577,0.7675813743023246,-0.4609897768243548,-1.7566067310256417,2.5851650147551553,0.94567629,-0.05322252,0.34045323,-12.31482,-3.5098,-8.6982,69.0
1774822813.833208,2.2172927856445312e-05,2026-03-29T22:20:13.833,2026-03-29T18:20:13.833,-32875.02,-46161.18,-85465.62,-49896.18,-12070.17,-17292.915,6869.384999999999,-49628.34,-2.047627135576481,-3.967559752503026,-3.729143353635527,1.3921182012412723,1.3844776777425427,0.5794692213228624,-1.6366620858024228,2.0672225401967568,0.94567629,-0.05322252,0.34045323,-12.31482,-3.5098,-8.6982,69.0
1774822813.8332264,1.8358230590820312e-05,2026-03-29T22:20:13.833,2026-03-29T18:20:13.833,-32880.015,-46168.02,-85476.645,-49908.78,-12080.34,-17301.69,6864.795,-49627.935,-2.348716169797104,-2.3335420389123187,-2.7944428841932734,0.28006220681048216,1.5296505658608612,1.643391805539944,-0.6476329921823951,0.37183041849216486,0.9436011,-0.051208365,0.3405753,-14.817459999999999,-4.48644,-7.202719999999999,69.0
1774822813.8332343,7.867813110351562e-06,2026-03-29T22:20:13.833,2026-03-29T18:20:13.833,-32876.955,-46168.38,-85481.955,-49914.854999999996,-12084.795,-17305.155,6867.9,-49627.799999999996,-1.7307859560969168,0.45044441717914074,-0.45986893910727283,-0.8910980633376797,1.1579886992034045,2.2387369522308003,0.7584782006276926,-1.6539676847405647,0.9436011,-0.051208365,0.3405753,-14.817459999999999,-4.48644,-7.202719999999999,69.0
1774822813.8394065,0.00617218017578125,2026-03-29T22:20:13.839,2026-03-29T18:20:13.839,-32872.545,-46164.735,-85477.995,-49914.494999999995,-12088.08,-17310.69,6865.92,-49626.314999999995,-0.3443409951952019,3.1502317954517993,2.223980483302362,-1.5340480909146335,0.3850672050631456,1.9662414080492214,1.884724406419715,-2.9406956148907226,0.9436011,-0.051208365,0.3405753,-14.817459999999999,-4.48644,-7.202719999999999,69.0
1774822813.839423,1.6450881958007812e-05,2026-03-29T22:20:13.839,2026-03-29T18:20:13.839,-32869.215,-46161.225,-85471.155,-49913.505,-12092.984999999999,-17316.135,6861.96,-49624.47,1.3095866709861954,4.518313382784589,3.983842814285568,-1.3598175769799028,-0.5422263475871809,0.7597358360012529,2.1350921469348942,-2.75686058563444,0.9436011,-0.051208365,0.3405753,-14.817459999999999,-4.48644,-7.202719999999999,69.0
1774822813.84192,0.002496957778930664,2026-03-29T22:20:13.841,2026-03-29T18:20:13.841,-32866.83,-46166.939999999995,-85482.94499999999,-49921.604999999996,-12100.545,-17324.864999999998,6858.495,-49623.299999999996,2.5529797396734386,3.874020889948274,3.9296750909779528,-0.5115212710313594,-1.3135285609683829,-0.9993589257361251,1.3252783991890642,-1.1112370085693264,0.9436011,-0.051208365,0.3405753,-14.817459999999999,-4.48644,-7.202719999999999,69.0
1774822813.8419404,2.0503997802734375e-05,2026-03-29T22:20:13.841,2026-03-29T18:20:13.841,-32857.65,-46165.905,-85478.58,-49913.46,-12096.27,-17323.739999999998,6852.195,-49613.805,2.813210148834615,1.4410253146971164,2.0028040292443308,0.5294863006238162,-1.649691477581626,-2.583658294162846,-0.20216114360856374,1.2197403153728534,0.9436011,-0.051208365,0.3405753,-14.817459999999999,-4.48644,-7.202719999999999,69.0
1774822813.8444505,0.00251007080078125,2026-03-29T22:20:13.844,2026-03-29T18:20:13.844,-32855.445,-46166.49,-85481.19,-49918.994999999995,-12101.85,-17329.184999999998,6844.905,-49605.345,1.894135042925226,-1.7253358020508225,-0.9590828836126479,1.2090912005221084,-1.4010249577228537,-3.2228313872563246,-1.7249165340976214,3.065335814434026,0.9436011,-0.051208365,0.3405753,-14.817459999999999,-4.48644,-7.202719999999999,69.0
1774822813.844462,1.1444091796875e-05,2026-03-29T22:20:13.844,2026-03-29T18:20:13.844,-32872.32,-46165.275,-85472.91,-49909.545,-12093.615,-17325.315,6845.219999999999,-49622.805,0.10395860285777242,-4.200631507413996,-3.5881361005133057,1.1935964134445405,-0.616104205152979,-2.480847258717876,-2.48607308970007,3.451994749117896,0.9436011,-0.051208365,0.3405753,-14.817459999999999,-4.48644,-7.202719999999999,69.0
1774822813.8485527,0.004090785980224609,2026-03-29T22:20:13.848,2026-03-29T18:20:13.848,-32881.005,-46165.095,-85473.22499999999,-49908.24,-12089.295,-17321.085,6857.46,-49633.604999999996,-1.8379877371499016,-4.839034999515095,-4.623222314966241,0.5359085543225228,0.4513845716021115,-0.5215982120792662,-2.070779047706305,2.1125101541901246,0.9436011,-0.051208365,0.3405753,-14.817459999999999,-4.48644,-7.202719999999999,69.0
1774822813.8485644,1.1682510375976562e-05,2026-03-29T22:20:13.848,2026-03-29T18:20:13.848,-32881.005,-46170.674999999996,-85483.44,-49911.345,-12087.539999999999,-17315.145,6860.88,-49633.244999999995,-3.093629542611768,-3.3083265470209438,-3.518706539775704,-0.36913004999568094,1.4140997167622182,1.8896221181110562,-0.6266488938905307,-0.35201633465887533,0.9436011,-0.051208365,0.3405753,-14.817459999999999,-4.48644,-7.202719999999999,69.0
1774822813.8565912,0.008026838302612305,2026-03-29T22:20:13.856,2026-03-29T18:20:13.856,-32885.909999999996,-46167.705,-85474.70999999999,-49897.53,-12066.75,-17282.565,6869.384999999999,-49637.7,-3.076850779383375,-0.259845164593323,-0.729213700129358,-1.0104660224586282,1.8873708899014396,3.6834341647414788,1.1873057486952678,-2.749376517834197,0.94140384,-0.0500487,0.34081944000000003,-14.55804,-4.577999999999999,-7.38584,69.0
1774822813.856608,1.6689300537109375e-05,2026-03-29T22:20:13.856,2026-03-29T18:20:13.856,-32882.445,-46170.45,-85481.50499999999,-49913.189999999995,-12077.369999999999,-17289.765,6870.6449999999995,-49634.505,-1.7338534725851726,2.953098145184315,2.4777935381434766,-1.0421705158583918,1.644844802046556,3.968000580840619,2.5062618696018406,-3.881366186210909,0.94140384,-0.0500487,0.34081944000000003,-14.55804,-4.577999999999999,-7.38584,69.0
1774822813.8566456,3.7670135498046875e-05,2026-03-29T22:20:13.856,2026-03-29T18:20:13.856,-32881.86,-46179.765,-85488.25499999999,-49914.585,-12082.814999999999,-17301.195,6869.655,-49630.14,0.4041799028227597,4.884822363217537,4.604821406069586,-0.4678281247597594,0.7295596623557761,2.4748163370033067,2.6758306625980013,-3.1460214415085535,0.94140384,-0.0500487,0.34081944000000003,-14.55804,-4.577999999999999,-7.38584,69.0
1774822813.8566527,7.152557373046875e-06,2026-03-29T22:20:13.856,2026-03-29T18:20:13.856,-32881.545,-46186.92,-85491.855,-49914.314999999995,-12089.654999999999,-17311.68,6863.715,-49626.674999999996,2.4333484202971043,4.656207877829205,4.631681554809961,0.3696898218562252,-0.5351357584780642,-0.2551163749589375,1.5768801923004154,-0.8527390151590029,0.94140384,-0.0500487,0.34081944000000003,-14.55804,-4.577999999999999,-7.38584,69.0
1774822813.8637383,0.007085561752319336,2026-03-29T22:20:13.863,2026-03-29T18:20:13.863,-32871.104999999996,-46181.475,-85490.28,-49913.189999999995,-12090.285,-17312.535,6864.165,-49617.54,3.467976595692701,2.3583821284302875,2.5094934272490854,0.9842481262719937,-1.653889547398278,-3.0594174153374065,-0.302491505597983,1.9130094918936127,0.94140384,-0.0500487,0.34081944000000003,-14.55804,-4.577999999999999,-7.38584,69.0
1774822813.8637507,1.239776611328125e-05,2026-03-29T22:20:13.863,2026-03-29T18:20:13.863,-32866.65,-46178.595,-85500.09,-49918.14,-12094.244999999999,-17316.18,6858.945,-49612.5,3.0364546571868845,-0.9864139656922588,-0.8003928142212543,1.0190176355691394,-2.154116818777744,-4.655911599411749,-2.088243184954128,3.8136504034175283,0.94140384,-0.0500487,0.34081944000000003,-14.55804,-4.577999999999999,-7.38584,69.0
1774822813.8637626,1.1920928955078125e-05,2026-03-29T22:20:13.863,2026-03-29T18:20:13.863,-32870.205,-46186.155,-85523.44499999999,-49927.14,-12096.539999999999,-17316.45,6860.925,-49616.46,1.3003473358696107,-3.8889164888986647,-3.768543123818722,0.445859416466883,-1.7903523970715614,-4.238211228054352,-2.9325778640657747,3.9148231690022115,0.94140384,-0.0500487,0.34081944000000003,-14.55804,-4.577999999999999,-7.38584,69.0
1774822813.8637688,6.198883056640625e-06,2026-03-29T22:20:13.863,2026-03-29T18:20:13.863,-32878.755,-46205.055,-85527.675,-49933.305,-12097.17,-17314.739999999998,6858.719999999999,-49614.659999999996,-1.0070142679578007,-5.067017724102692,-5.01464399200023,-0.41743862648471075,-0.6676420265579868,-1.8846186566487477,-2.420158895685153,2.1473456116107092,0.94140384,-0.0500487,0.34081944000000003,-14.55804,-4.577999999999999,-7.38584,69.0
1774822813.8729267,0.009157896041870117,2026-03-29T22:20:13.872,2026-03-29T18:20:13.872,-32895.945,-46205.549999999996,-85505.04,-49921.515,-12079.89,-17298.18,6860.88,-49628.295,-2.89829493878563,-4.019470126013341,-3.958770140361302,-1.0814831235653601,0.7791410892910348,1.4275596208172745,-0.7720845545336069,-0.6537769097097361,0.94140384,-0.0500487,0.34081944000000003,-14.55804,-4.577999999999999,-7.38584,69.0
1774822813.8729537,2.6941299438476562e-05,2026-03-29T22:20:13.872,2026-03-29T18:20:13.872,-32888.07,-46166.265,-85474.665,-49915.08,-12075.795,-17292.465,6859.8,-49634.82,-3.564268741740942,-1.2384956518478356,-1.0949508439556177,-1.1561903675475274,1.9530755459616589,4.2315114138426155,1.252496074134288,-3.1531529299285275,0.94140384,-0.0500487,0.34081944000000003,-14.55804,-4.577999999999999,-7.38584,69.0
1774822813.8729768,2.3126602172851562e-05,2026-03-29T22:20:13.872,2026-03-29T18:20:13.872,-32875.335,-46141.695,-85468.815,-49931.145,-12089.295,-17306.954999999998,6855.48,-49632.525,-2.726150418561283,2.0289289400595143,2.244111516842273,-0.5704671836450524,2.345793690329538,5.230967726112094,2.711937716258862,-4.16233290251964,0.94396731,-0.0512694,0.34069737,-10.941419999999999,-4.97476,-6.88226,69.0
1774822813.8729887,1.1920928955078125e-05,2026-03-29T22:20:13.872,2026-03-29T18:20:13.872,-32859.99,-46136.924999999996,-85455.72,-49928.49,-12091.005,-17309.475,6864.12,-49620.645,-0.7516532966269676,4.352432124758244,4.5176752606531565,0.38006040373415967,1.7636613621873272,3.90913036430153,2.925727095509387,-3.2122752190046318,0.94396731,-0.0512694,0.34069737,-10.941419999999999,-4.97476,-6.88226,69.0
1774822813.8765347,0.003545999526977539,2026-03-29T22:20:13.876,2026-03-29T18:20:13.876,-32866.83,-46140.345,-85442.94,-49902.39,-12081.869999999999,-17304.48,6867.495,-49624.47,1.5130227590442378,4.754743099052485,4.700019266948786,1.1854992558823534,0.4261520242117781,0.7963287228885394,1.7947124060929154,-0.7720051731295877,0.94396731,-0.0512694,0.34069737,-10.941419999999999,-4.97476,-6.88226,69.0
1774822813.8765593,2.4557113647460938e-05,2026-03-29T22:20:13.876,2026-03-29T18:20:13.876,-32874.345,-46153.755,-85460.76,-49905.585,-12085.289999999999,-17313.165,6858.134999999999,-49628.655,3.115061689475228,3.124868053491911,2.7510314766789388,1.394391008803937,-1.1146345782149747,-2.7422407496479146,-0.15403341074443888,1.9887404774697033,0.94396731,-0.0512694,0.34069737,-10.941419999999999,-4.97476,-6.88226,69.0
1774822813.8810806,0.004521369934082031,2026-03-29T22:20:13.881,2026-03-29T18:20:13.881,-32874.93,-46161.09,-85469.44499999999,-49909.5,-12083.535,-17310.195,6856.785,-49626.314999999995,3.4025163649059578,0.23190087940341517,-0.3854612954156626,0.8610052797583034,-2.2051606822363037,-5.114059150734712,-2.0174986410933418,3.77047167300169,0.94396731,-0.0512694,0.34069737,-10.941419999999999,-4.97476,-6.88226,69.0
1774822813.8817325,0.0006518363952636719,2026-03-29T22:20:13.881,2026-03-29T18:20:13.881,-32873.67,-46162.215,-85467.33,-49912.604999999996,-12088.395,-17314.38,6857.099999999999,-49624.064999999995,2.2896981490005333,-2.648312004353043,-3.2457232526604742,-0.16635962799302378,-2.373999376565759,-5.2277510875277615,-2.9412957949042378,3.7654740332273313,0.94396731,-0.0512694,0.34069737,-10.941419999999999,-4.97476,-6.88226,69.0
1774822813.8911636,0.009431123733520508,2026-03-29T22:20:13.891,2026-03-29T18:20:13.891,-32870.52,-46165.365,-85473.72,-49916.295,-12093.164999999999,-17319.645,6859.035,-49621.409999999996,0.27255772645100806,-4.308007824831235,-4.541549436628232,-1.1660040700632885,-1.5417352845285448,-3.004071975552321,-2.5162084098847113,2.0283617572611767,0.94396731,-0.0512694,0.34069737,-10.941419999999999,-4.97476,-6.88226,69.0
1774822813.8911815,1.7881393432617188e-05,2026-03-29T22:20:13.891,2026-03-29T18:20:13.891,-32865.75,-46169.189999999995,-85484.83499999999,-49922.415,-12099.375,-17326.53,6857.82,-49615.424999999996,-1.8003308685096109,-4.118917771396597,-3.751198631588602,-1.611511074501333,-0.060912468425460976,0.5735645182283996,-0.9605591363039802,-0.5762777438025264,0.94396731,-0.0512694,0.34069737,-10.941419999999999,-4.97476,-6.88226,69.0
1774822813.8912065,2.5033950805664062e-05,2026-03-29T22:20:13.891,2026-03-29T18:20:13.891,-32864.895,-46162.89,-85476.15,-49911.705,-12089.16,-17314.739999999998,6862.86,-49615.83,-3.0914411714393495,-2.2610011912639663,-1.3296514149734893,-1.2484954500369645,1.4350969814947454,3.899469980371869,0.9933084714789966,-2.810845209415309,0.94396731,-0.0512694,0.34069737,-10.941419999999999,-4.97476,-6.88226,69.0
1774822813.8912165,1.0013580322265625e-05,2026-03-29T22:20:13.891,2026-03-29T18:20:13.891,-32871.375,-46158.165,-85469.76,-49905.134999999995,-12081.33,-17306.64,6865.0199999999995,-49627.439999999995,-3.1132346324271967,0.4095983028619135,1.5467483872428371,-0.23395002424407385,2.3087073611235174,5.4772302969412126,2.448904131241298,-3.6628172837686157,0.94396731,-0.0512694,0.34069737,-10.941419999999999,-4.97476,-6.88226,69.0
1774822813.8912272,1.0728836059570312e-05,2026-03-29T22:20:13.891,2026-03-29T18:20:13.891,-32872.455,-46154.744999999995,-85466.205,-49902.615,-12073.77,-17294.76,6879.554999999999,-49632.39,-1.9050052219499607,2.766719244876368,3.560480475165159,0.9362083240437099,2.1967132563271203,4.6042366855743095,2.762442267342071,-2.810615196237522,0.949399425,-0.04980456,0.338805285,-8.48456,-3.67766,-4.3491,69.0
1774822813.8912337,6.4373016357421875e-06,2026-03-29T22:20:13.891,2026-03-29T18:20:13.891,-32868.18,-46156.59,-85471.785,-49908.735,-12079.98,-17301.195,6879.33,-49628.79,0.011996982734100249,3.8965196616503768,3.867978439215468,1.6756364595984126,1.165834902956854,1.6910879921382895,1.8304032369140504,-0.7397344622883117,0.949399425,-0.04980456,0.338805285,-8.48456,-3.67766,-4.3491,69.0
1774822813.8967533,0.0055196285247802734,2026-03-29T22:20:13.896,2026-03-29T18:20:13.896,-32861.88,-46151.505,-85466.43,-49904.64,-12079.305,-17303.985,6874.155,-49622.58,1.8658644732846796,3.4455359098539624,2.4571668303174365,1.6049059249880069,-0.32368110475696277,-1.932161613425956,0.11813449061252979,1.5295924260546832,0.949399425,-0.04980456,0.338805285,-8.48456,-3.67766,-4.3491,69.0
1774822813.8967915,3.814697265625e-05,2026-03-29T22:20:13.896,2026-03-29T18:20:13.896,-32864.265,-46153.125,-85467.87,-49904.909999999996,-12081.15,-17310.69,6870.285,-49623.615,2.945811102349694,1.7053324031015278,0.09378855793563708,0.7453178458862914,-1.6275338440117586,-4.631029515159189,-1.5745724094123905,2.952248541287096,0.949399425,-0.04980456,0.338805285,-8.48456,-3.67766,-4.3491,69.0
1774822813.900646,0.003854513168334961,2026-03-29T22:20:13.900,2026-03-29T18:20:13.900,-32866.244999999995,-46157.805,-85474.75499999999,-49912.02,-12086.01,-17319.645,6868.844999999999,-49626.63,2.8679982427239716,-0.5680776150049599,-2.091111335346226,-0.48953570272808355,-2.202717880114528,-5.21494851403353,-2.4919483007376013,2.947841817556358,0.949399425,-0.04980456,0.338805285,-8.48456,-3.67766,-4.3491,69.0
1774822813.9006648,1.8835067749023438e-05,2026-03-29T22:20:13.900,2026-03-29T18:20:13.900,-32866.695,-46161.674999999996,-85481.64,-49921.604999999996,-12093.074999999999,-17321.04,6865.875,-49628.43,1.7000033505278858,-2.491670853660924,-3.1514705835188868,-1.4993128608026869,-1.8391692832248092,-3.4713337905275115,-2.2634925874955942,1.636999885812668,0.949399425,-0.04980456,0.338805285,-8.48456,-3.67766,-4.3491,69.0
1774822813.9046137,0.00394892692565918,2026-03-29T22:20:13.904,2026-03-29T18:20:13.904,-32862.465,-46157.174999999996,-85475.205,-49911.435,-12079.8,-17297.82,6873.705,-49627.71,-0.08866665870858223,-3.394687351622348,-2.742549397461053,-1.794448560361569,-0.7360919522320842,-0.2418214882596625,-1.0522289664741875,-0.2714579297378192,0.949399425,-0.04980456,0.338805285,-8.48456,-3.67766,-4.3491,69.0
1774822813.9046335,1.9788742065429688e-05,2026-03-29T22:20:13.904,2026-03-29T18:20:13.904,-32865.03,-46159.38,-85475.16,-49908.78,-12077.279999999999,-17296.785,6873.705,-49629.284999999996,-1.8167790644068265,-3.0313982620452125,-1.2169130208166685,-1.2356427898541522,0.6047173291192625,2.9859822812385155,0.5484451559700207,-1.8624363625994567,0.949399425,-0.04980456,0.338805285,-8.48456,-3.67766,-4.3491,69.0
1774822813.9100933,0.005459785461425781,2026-03-29T22:20:13.910,2026-03-29T18:20:13.910,-32868.99,-46159.155,-85472.235,-49905.27,-12077.324999999999,-17303.309999999998,6868.62,-49634.055,-2.8443933461681925,-1.6131684374011541,0.6160523105410786,-0.09719685278444536,1.612180164773178,4.7720797148438905,1.8079252431685973,-2.4604739309695853,0.949399425,-0.04980456,0.338805285,-8.48456,-3.67766,-4.3491,69.0
1774822813.9101171,2.384185791015625e-05,2026-03-29T22:20:13.910,2026-03-29T18:20:13.910,-32870.07,-46161.314999999995,-85476.15,-49910.04,-12081.15,-17307.809999999998,6866.955,-49634.235,-2.7984910781124253,0.3156255233975801,1.9183406208323384,1.0732969584901095,1.8950115987203684,4.375753677385163,2.1956282102074463,-1.9192839616473145,0.949399425,-0.04980456,0.338805285,-8.48456,-3.67766,-4.3491,69.0
1774822813.9132886,0.0031714439392089844,2026-03-29T22:20:13.913,2026-03-29T18:20:13.913,-32868.72,-46162.35,-85479.525,-49913.505,-12084.255,-17309.925,6866.6849999999995,-49630.455,-1.698595690140354,2.0852040603301405,2.212998760472991,1.7245949853947276,1.3949717138584512,2.0661946672552505,1.6049331089442047,-0.6294962475682321,0.952939455,-0.04614246,0.335753535,-7.38584,-3.5098,-1.9227599999999998,69.0
1774822813.9133077,1.9073486328125e-05,2026-03-29T22:20:13.913,2026-03-29T18:20:13.913,-32866.02,-46159.604999999996,-85473.54,-49910.13,-12084.029999999999,-17311.41,6867.045,-49626.81,0.05372323380905412,3.1130142119585247,1.5510531052654037,1.5650703446776286,0.38344387044841965,-1.0397241630692529,0.36927375009010355,0.7309348424837085,0.952939455,-0.04614246,0.335753535,-7.38584,-3.5098,-1.9227599999999998,69.0
1774822813.916722,0.0034143924713134766,2026-03-29T22:20:13.916,2026-03-29T18:20:13.916,-32862.284999999996,-46156.634999999995,-85471.92,-49908.284999999996,-12083.58,-17315.954999999998,6868.3949999999995,-49624.38,1.8148843119605933,3.066348472784722,0.4019970851032479,0.6921677882943243,-0.68408939096518,-3.5203701686527933,-0.9215087209206521,1.5539499173457707,0.952939455,-0.04614246,0.335753535,-7.38584,-3.5098,-1.9227599999999998,69.0
1774822813.916741,1.8835067749023438e-05,2026-03-29T22:20:13.916,2026-03-29T18:20:13.916,-32860.89,-46157.13,-85476.015,-49913.009999999995,-12087.045,-17321.895,6866.19,-49626.045,2.923922505184202,1.9491226211509562,-0.6410375393399065,-0.46863232749121236,-1.3780988762650048,-4.307492294534126,-1.7049679359109728,1.5777245382105893,0.952939455,-0.04614246,0.335753535,-7.38584,-3.5098,-1.9227599999999998,69.0
1774822813.920499,0.0037581920623779297,2026-03-29T22:20:13.920,2026-03-29T18:20:13.920,-32855.985,-46159.335,-85482.405,-49920.345,-12093.75,-17326.98,6864.4349999999995,-49624.064999999995,2.9403959425405457,0.10480974874615122,-1.1671751791142253,-1.3769363976874316,-1.4702570515790767,-3.1514018469692835,-1.6924014607256281,0.9543708975159464,0.952939455,-0.04614246,0.335753535,-7.38584,-3.5098,-1.9227599999999998,69.0
1774822813.9205177,1.8596649169921875e-05,2026-03-29T22:20:13.920,2026-03-29T18:20:13.920,-32853.24,-46163.79,-85490.64,-49927.86,-12099.779999999999,-17329.59,6861.33,-49623.03,1.8160224007573005,-1.8666109149755814,-1.1068707237985136,-1.6331612737422798,-1.0009522590327866,-0.6882567767379347,-0.9693358332423556,0.1020747004596031,0.952939455,-0.04614246,0.335753535,-7.38584,-3.5098,-1.9227599999999998,69.0
1774822813.924844,0.004326343536376953,2026-03-29T22:20:13.924,2026-03-29T18:20:13.924,-32850.99,-46163.835,-85491.98999999999,-49927.68,-12098.925,-17326.215,6859.9349999999995,-49618.755,-0.06492427578712912,-3.2732201015520546,-0.6843122134564815,-1.1537908599005477,-0.22371521599515415,1.900864682093799,0.08115324945371363,-0.55253511967237,0.952939455,-0.04614246,0.335753535,-7.38584,-3.5098,-1.9227599999999998,69.0
1774822813.924856,1.1920928955078125e-05,2026-03-29T22:20:13.924,2026-03-29T18:20:13.924,-32861.07,-46159.965,-85480.47,-49910.895,-12080.744999999999,-17307.63,6868.259999999999,-49629.33,-2.003370308218608,-3.552657695395292,-0.22280001937367788,-0.18975886940809836,0.5308202105370825,3.4592285606948385,0.9791255589514581,-0.7904897381964555,0.952939455,-0.04614246,0.335753535,-7.38584,-3.5098,-1.9227599999999998,69.0
1774822813.9433904,0.018534421920776367,2026-03-29T22:20:13.943,2026-03-29T18:20:13.943,-32865.57,-46165.365,-85483.395,-49912.02,-12081.645,-17308.62,6871.094999999999,-49630.994999999995,-3.233889915141627,-2.493171627012848,0.06354714732324428,0.8087873035532963,0.9985208320076323,3.376014793433149,1.3680418181150145,-0.6644751483579319,0.952939455,-0.04614246,0.335753535,-7.38584,-3.5098,-1.9227599999999998,69.0
1774822813.9434183,2.7894973754882812e-05,2026-03-29T22:20:13.943,2026-03-29T18:20:13.943,-32867.415,-46166.354999999996,-85478.58,-49904.82,-12075.345,-17304.84,6871.005,-49634.145,-3.222289968058264,-0.36951208250505546,0.16758010045060842,1.406732289190011,1.0688647969338658,1.822723948406409,1.153049110815003,-0.39790956305206016,0.952939455,-0.04614246,0.335753535,-7.38584,-3.5098,-1.9227599999999998,69.0
1774822813.9434345,1.621246337890625e-05,2026-03-29T22:20:13.943,2026-03-29T18:20:13.943,-32865.705,-46168.604999999996,-85479.25499999999,-49905.0,-12079.98,-17315.55,6862.634999999999,-49632.615,-1.899276123683978,2.0871799206179786,0.23240617132151664,1.3731486464787115,0.7898444871035792,-0.38526273843628067,0.5056420566084049,-0.20234021202366403,0.9545874,-0.04187001,0.33276282,-5.6767199999999995,-2.8994,0.03052,69.0
1774822813.943441,6.4373016357421875e-06,2026-03-29T22:20:13.943,2026-03-29T18:20:13.943,-32874.21,-46163.61,-85469.04,-49894.29,-12070.89,-17304.39,6864.795,-49639.994999999995,0.27290563089903025,3.9163182770386653,0.39587497585259646,0.7634447226726315,0.3090951430949489,-2.210920165929453,-0.24895686548131304,-0.1362507904119599,0.9545874,-0.04187001,0.33276282,-5.6767199999999995,-2.8994,0.03052,69.0
1774822813.9434483,7.3909759521484375e-06,2026-03-29T22:20:13.943,2026-03-29T18:20:13.943,-32869.17,-46152.045,-85466.43,-49890.915,-12065.039999999999,-17292.555,6875.054999999999,-49637.88,2.4480369015321175,4.2970307837310395,0.6511288398466017,-0.12994656123194945,-0.2041970862369038,-2.884620158068152,-0.7938392085836693,-0.09222022384308133,0.9545874,-0.04187001,0.33276282,-5.6767199999999995,-2.8994,0.03052,69.0
1774822813.943454,5.7220458984375e-06,2026-03-29T22:20:13.943,2026-03-29T18:20:13.943,-32860.305,-46154.475,-85474.62,-49902.57,-12077.1,-17308.125,6868.665,-49632.659999999996,3.7192326669210596,2.9214101561070556,0.8229472456395461,-0.9215130272699582,-0.614995299819808,-2.228138082597562,-0.9515227151115689,0.0879271443639141,0.9545874,-0.04187001,0.33276282,-5.6767199999999995,-2.8994,0.03052,69.0
1774822813.9434617,7.62939453125e-06,2026-03-29T22:20:13.943,2026-03-29T18:20:13.943,-32856.479999999996,-46153.53,-85474.62,-49910.31,-12079.395,-17307.405,6872.535,-49631.805,3.4980229209980407,0.19970695451573123,0.6814398473630932,-1.2984044705840936,-0.8394637758325852,-0.6775344492401942,-0.7310412022350316,0.45469247390460854,0.9545874,-0.04187001,0.33276282,-5.6767199999999995,-2.8994,0.03052,69.0
1774822813.9434676,5.9604644775390625e-06,2026-03-29T22:20:13.943,2026-03-29T18:20:13.943,-32851.305,-46153.89,-85475.295,-49917.195,-12090.105,-17317.44,6869.115,-49626.99,1.790249133489733,-2.828112249306368,0.12220167351457681,-1.1369784733921315,-0.8360257369430086,0.9784691100216247,-0.28600320082808367,0.8637963104681216,0.9545874,-0.04187001,0.33276282,-5.6767199999999995,-2.8994,0.03052,69.0
1774822813.9494672,0.005999565124511719,2026-03-29T22:20:13.949,2026-03-29T18:20:13.949,-32857.47,-46161.18,-85470.12,-49911.03,-12093.074999999999,-17321.715,6864.75,-49624.38,-0.7622454319538164,-4.880039841988007,-0.7074897761454679,-0.5313046441781522,-0.5966651853622682,1.9956813374359996,0.17917644750077574,1.0315940272362725,0.9545874,-0.04187001,0.33276282,-5.6767199999999995,-2.8994,0.03052,69.0
1774822813.9494839,1.6689300537109375e-05,2026-03-29T22:20:13.949,2026-03-29T18:20:13.949,-32868.9,-46161.854999999996,-85463.145,-49894.244999999995,-12075.39,-17304.48,6869.925,-49633.02,-3.1141817337557995,-4.980101603608574,-1.4316958122022527,0.2632288893624589,-0.15562514579520698,2.008200532526512,0.5012414474054396,0.7126533398963679,0.9545874,-0.04187001,0.33276282,-5.6767199999999995,-2.8994,0.03052,69.0
1774822813.9495053,2.1457672119140625e-05,2026-03-29T22:20:13.949,2026-03-29T18:20:13.949,-32867.865,-46167.299999999996,-85488.12,-49908.15,-12080.385,-17308.755,6871.59,-49632.884999999995,-4.244343302353927,-2.929892548642862,-1.6260973078776304,0.9368296613080048,0.39080861917753096,1.1492062642941197,0.6077595395281153,-0.10556899416459177,0.9545874,-0.04187001,0.33276282,-5.6767199999999995,-2.8994,0.03052,69.0
1774822813.9495137,8.344650268554688e-06,2026-03-29T22:20:13.949,2026-03-29T18:20:13.949,-32868.585,-46176.21,-85514.895,-49922.189999999995,-12083.984999999999,-17314.155,6867.315,-49633.29,-3.603446639814832,0.5277207878868341,-1.0646538866397575,1.238216497261547,0.879367549342242,-0.07429654204085732,0.5145298857356319,-1.1207286043135445,0.9545874,-0.04187001,0.33276282,-5.6767199999999995,-2.8994,0.03052,69.0
1774822813.9545465,0.005032777786254883,2026-03-29T22:20:13.954,2026-03-29T18:20:13.954,-32859.72,-46168.29,-85513.455,-49934.159999999996,-12088.845,-17319.105,6857.594999999999,-49629.24,-1.3837443638038496,3.9633044178873873,0.10955420924466239,1.0573690444849093,1.1152702163002006,-1.0649872501180042,0.2892991170135935,-1.8210736411575492,0.956967765,-0.03527823,0.330870735,-7.889419999999999,-1.3428799999999999,2.07536,69.0
1774822813.954561,1.4543533325195312e-05,2026-03-29T22:20:13.954,2026-03-29T18:20:13.954,-32848.875,-46151.28,-85484.97,-49934.34,-12082.994999999999,-17308.44,6862.679999999999,-49622.715,1.5231479808656303,5.855416433369066,1.4014895811798462,0.4584875729492298,0.9502701033270397,-1.4232527304399882,0.011778157916165618,-1.7455156737823163,0.956967765,-0.03527823,0.330870735,-7.889419999999999,-1.3428799999999999,2.07536,69.0
1774822813.9566033,0.0020422935485839844,2026-03-29T22:20:13.956,2026-03-29T18:20:13.956,-32847.119999999995,-46144.439999999995,-85459.59,-49911.435,-12076.695,-17306.325,6872.985,-49627.485,3.881939944186902,5.2759661788739445,2.1826403607505895,-0.3412547253367857,0.3721262331822774,-1.1019016059808802,-0.24866074761659326,-0.7653804659337915,0.956967765,-0.03527823,0.330870735,-7.889419999999999,-1.3428799999999999,2.07536,69.0
1774822813.956617,1.3828277587890625e-05,2026-03-29T22:20:13.956,2026-03-29T18:20:13.956,-32848.695,-46164.465,-85478.985,-49906.439999999995,-12082.23,-17318.295,6869.16,-49630.455,4.6422618178877775,2.352008470799718,2.0095539093647092,-1.0408030750830102,-0.4467783748041839,-0.37134253623882946,-0.43560319947179815,0.7769246001562392,0.956967765,-0.03527823,0.330870735,-7.889419999999999,-1.3428799999999999,2.07536,69.0
1774822813.9608,0.0041828155517578125,2026-03-29T22:20:13.960,2026-03-29T18:20:13.960,-32861.88,-46194.57,-85499.50499999999,-49912.74,-12079.395,-17313.12,6870.33,-49632.795,3.412137031072313,-1.7287990783347233,0.8757474122027101,-1.3566470192333682,-1.1852966281887642,0.3611706294647293,-0.502198930082231,2.175299745118486,0.956967765,-0.03527823,0.330870735,-7.889419999999999,-1.3428799999999999,2.07536,69.0
1774822813.9608183,1.8358230590820312e-05,2026-03-29T22:20:13.960,2026-03-29T18:20:13.960,-32871.104999999996,-46200.015,-85494.15,-49915.439999999995,-12079.574999999999,-17309.88,6865.245,-49632.255,0.6601746469123622,-5.201582271666876,-0.7458657011858026,-1.1304381496658822,-1.4981063306003768,0.7685033337813582,-0.4171848571798123,2.6876490115870353,0.956967765,-0.03527823,0.330870735,-7.889419999999999,-1.3428799999999999,2.07536,69.0
1774822813.971427,0.010608673095703125,2026-03-29T22:20:13.971,2026-03-29T18:20:13.971,-32868.945,-46173.06,-85485.42,-49926.689999999995,-12092.939999999999,-17321.445,6862.139999999999,-49629.689999999995,-2.457838234818289,-6.499372834647313,-2.1082961078458866,-0.40668559444702107,-1.1817621776397746,0.7442743461707491,-0.18372835552715208,1.9298534900728848,0.956967765,-0.03527823,0.330870735,-7.889419999999999,-1.3428799999999999,2.07536,69.0
1774822813.9714453,1.8358230590820312e-05,2026-03-29T22:20:13.971,2026-03-29T18:20:13.971,-32851.305,-46146.465,-85473.58499999999,-49926.825,-12097.845,-17327.655,6869.115,-49621.14,-4.586618694790256,-4.973763587782864,-2.550388798116495,0.5567390952416196,-0.30058691890094197,0.4092523051133225,0.14155875248865987,0.12694181317544337,0.956967765,-0.03527823,0.330870735,-7.889419999999999,-1.3428799999999999,2.07536,69.0
1774822813.9714692,2.384185791015625e-05,2026-03-29T22:20:13.971,2026-03-29T18:20:13.971,-32841.765,-46144.35,-85471.47,-49928.31,-12102.615,-17335.125,6871.995,-49615.155,-4.766446611695128,-1.223220019364494,-1.8308990319277307,1.3662811351187247,0.8028059445629726,0.0027734839555319073,0.4495697952672344,-1.9318072478014088,0.956967765,-0.03527823,0.330870735,-7.889419999999999,-1.3428799999999999,2.07536,69.0
1774822813.9714828,1.3589859008789062e-05,2026-03-29T22:20:13.971,2026-03-29T18:20:13.971,-32857.2,-46151.595,-85470.56999999999,-49918.005,-12087.675,-17319.465,6869.295,-49630.725,-2.8714613585002065,3.1390970055184324,-0.26240806782936893,1.6451474355726705,1.6373509973729519,-0.26481459126483137,0.6117269804061098,-3.241499871505199,0.956967765,-0.03527823,0.330870735,-7.889419999999999,-1.3428799999999999,2.07536,69.0
1774822813.971498,1.52587890625e-05,2026-03-29T22:20:13.971,2026-03-29T18:20:13.971,-32858.595,-46149.21,-85465.70999999999,-49913.595,-12084.93,-17318.204999999998,6870.105,-49638.78,0.3115810837748657,6.189493861122579,1.4300268640671039,1.2066675168701326,1.786717953614662,-0.31389196587686186,0.5372493191900094,-3.0786034700580536,0.9583715700000001,-0.024108825,0.32775795,-12.00962,0.763,5.66146,69.0
1774822813.971509,1.0967254638671875e-05,2026-03-29T22:20:13.971,2026-03-29T18:20:13.971,-32856.075,-46148.67,-85461.03,-49909.229999999996,-12084.75,-17320.995,6868.125,-49636.71,3.41051666382828,6.557556661115026,2.459027195682603,0.16984541845801351,1.122408090581006,-0.2047728746767824,0.22729444171155677,-1.3976672116887636,0.9583715700000001,-0.024108825,0.32775795,-12.00962,0.763,5.66146,69.0
1774822813.9770243,0.005515336990356445,2026-03-29T22:20:13.977,2026-03-29T18:20:13.977,-32854.905,-46152.54,-85465.395,-49905.81,-12077.505,-17306.595,6871.455,-49632.479999999996,5.064648469722742,4.054356741330779,2.3581749824573786,-1.0513131056719447,-0.1043286845501117,-0.06619496780062904,-0.20698875711893,1.0884588520064646,0.9583715700000001,-0.024108825,0.32775795,-12.00962,0.763,5.66146,69.0
1774822813.977043,1.8596649169921875e-05,2026-03-29T22:20:13.977,2026-03-29T18:20:13.977,-32852.565,-46154.744999999995,-85472.955,-49912.83,-12079.755,-17305.965,6867.8099999999995,-49628.384999999995,4.529112697921617,-0.22882602631687204,1.2043773148168377,-1.9033938645547765,-1.351859521908276,0.0010288787546940794,-0.581022698707244,3.2114701188392685,0.9583715700000001,-0.024108825,0.32775795,-12.00962,0.763,5.66146,69.0
1774822813.9807022,0.0036592483520507812,2026-03-29T22:20:13.980,2026-03-29T18:20:13.980,-32855.445,-46159.38,-85476.735,-49916.205,-12085.02,-17316.315,6862.23,-49629.465,2.0150218389325354,-4.4035768541223055,-0.4317833949071254,-1.9417332801634484,-2.030640258494175,-0.01698665783558825,-0.7179912169355633,3.9047266215176863,0.9583715700000001,-0.024108825,0.32775795,-12.00962,0.763,5.66146,69.0
1774822813.9807155,1.33514404296875e-05,2026-03-29T22:20:13.980,2026-03-29T18:20:13.980,-32858.729999999996,-46164.33,-85481.91,-49917.689999999995,-12084.615,-17312.355,6868.9349999999995,-49631.31,-1.3921922936247573,-6.631983783463358,-1.77816424819275,-1.0612158644263947,-1.788760802879447,-0.056671816268306176,-0.5375046730970848,2.745235331063399,0.9583715700000001,-0.024108825,0.32775795,-12.00962,0.763,5.66146,69.0
1774822813.985031,0.004315376281738281,2026-03-29T22:20:13.985,2026-03-29T18:20:13.985,-32854.185,-46160.369999999995,-85477.31999999999,-49913.1,-12080.385,-17308.44,6874.514999999999,-49626.765,-4.205638216078361,-5.951312299333734,-2.2422090359257334,0.4098329026000708,-0.6992501271360794,-0.03962672550898818,-0.10513954958220807,0.20243893859908557,0.9583715700000001,-0.024108825,0.32775795,-12.00962,0.763,5.66146,69.0
1774822813.985041,1.0013580322265625e-05,2026-03-29T22:20:13.985,2026-03-29T18:20:13.985,-32853.104999999996,-46162.08,-85481.28,-49914.54,-12082.904999999999,-17313.39,6871.7699999999995,-49628.43,-5.193100245360073,-2.698318268165892,-1.685818292471159,1.8198790185170723,0.752243542228498,0.05955364169594555,0.38789588458372515,-2.5490823043966797,0.9583715700000001,-0.024108825,0.32775795,-12.00962,0.763,5.66146,69.0
1774822813.9967043,0.011663436889648438,2026-03-29T22:20:13.996,2026-03-29T18:20:13.996,-32856.119999999995,-46166.49,-85491.27,-49921.29,-12089.07,-17320.14,6870.509999999999,-49631.445,-3.9234737275945513,1.6579499144376058,-0.4596951045484893,2.4796754963375998,1.8854185402430554,0.18810454687573563,0.7109893194914161,-4.179952328418008,0.9583715700000001,-0.024108825,0.32775795,-12.00962,0.763,5.66146,69.0
1774822813.9967282,2.384185791015625e-05,2026-03-29T22:20:13.996,2026-03-29T18:20:13.996,-32853.24,-46159.56,-85485.555,-49918.365,-12087.359999999999,-17320.815,6870.42,-49632.345,-0.9578760878851517,5.191671171708064,0.8074644544426435,1.9995581249288779,2.150416498203088,0.24958568766258832,0.7064797107453049,-3.857831476323925,0.9583715700000001,-0.024108825,0.32775795,-12.00962,0.763,5.66146,69.0
1774822813.996752,2.384185791015625e-05,2026-03-29T22:20:13.996,2026-03-29T18:20:13.996,-32853.42,-46157.04,-85479.3,-49918.185,-12088.439999999999,-17319.465,6867.2699999999995,-49634.189999999995,2.400855373769854,6.3880160444615575,1.5420109021212398,0.5129440929243158,1.4018212686052005,0.1742176281056456,0.37137553751784574,-1.6766909753071504,0.955624995,-0.020446725,0.325255515,-16.084039999999998,0.51884,6.790699999999999,69.0
1774822813.9967625,1.049041748046875e-05,2026-03-29T22:20:13.996,2026-03-29T18:20:13.996,-32851.395,-46151.369999999995,-85467.555,-49910.13,-12083.58,-17316.405,6867.405,-49634.505,4.687451982094486,4.80449775782431,1.5003358553093442,-1.3399986465791978,-0.018072737956165697,-0.02342575613155892,-0.13579299287304414,1.3598942817459667,0.955624995,-0.020446725,0.325255515,-16.084039999999998,0.51884,6.790699999999999,69.0
1774822813.9967747,1.2159347534179688e-05,2026-03-29T22:20:13.996,2026-03-29T18:20:13.996,-32849.19,-46147.59,-85457.43,-49896.585,-12074.58,-17311.095,6867.945,-49630.905,4.921520679863269,1.2313097304487886,0.8470422931913995,-2.6846018390194155,-1.4352946643881752,-0.24074323620939406,-0.5701040790388009,3.807028909966623,0.955624995,-0.020446725,0.325255515,-16.084039999999998,0.51884,6.790699999999999,69.0
1774822813.9967835,8.821487426757812e-06,2026-03-29T22:20:13.996,2026-03-29T18:20:13.996,-32852.43,-46156.725,-85470.165,-49904.055,-12082.14,-17318.114999999998,6863.13,-49630.005,3.032974936457249,-2.7058604691460504,0.011933045433791267,-2.826050673333716,-2.1685738540150488,-0.34435512040062205,-0.7215791178206353,4.476732297592772,0.955624995,-0.020446725,0.325255515,-16.084039999999998,0.51884,6.790699999999999,69.0
1774822814.0009804,0.004196882247924805,2026-03-29T22:20:14.000,2026-03-29T18:20:14.000,-32844.284999999996,-46157.13,-85481.86499999999,-49922.145,-12096.81,-17328.555,6862.7699999999995,-49622.174999999996,-0.1217293154219622,-5.299815154725324,-0.5765296993499771,-1.6085269803931317,-1.863751616602481,-0.2549408612170034,-0.5212101863668172,3.0236140546713792,0.955624995,-0.020446725,0.325255515,-16.084039999999998,0.51884,6.790699999999999,69.0
1774822814.0010064,2.5987625122070312e-05,2026-03-29T22:20:14.001,2026-03-29T18:20:14.001,-32839.92,-46157.22,-85486.545,-49929.659999999996,-12102.57,-17333.145,6864.21,-49617.494999999995,-3.1534077337696735,-5.5165135369851805,-0.7219715564675765,0.46708747444839843,-0.6708759961914085,-0.00585783530471458,-0.07623159685550661,0.12497811901051385,0.955624995,-0.020446725,0.325255515,-16.084039999999998,0.51884,6.790699999999999,69.0
1774822814.0047324,0.0037260055541992188,2026-03-29T22:20:14.004,2026-03-29T18:20:14.004,-32854.14,-46160.865,-85480.69499999999,-49914.494999999995,-12089.654999999999,-17323.065,6868.71,-49629.645,-4.760615097441522,-3.4099290363033403,-0.526974572004491,2.445027916404632,0.8272113656495225,0.26519123282215,0.3850075245208684,-2.839554164741836,0.955624995,-0.020446725,0.325255515,-16.084039999999998,0.51884,6.790699999999999,69.0
1774822814.0047517,1.9311904907226562e-05,2026-03-29T22:20:14.004,2026-03-29T18:20:14.004,-32864.94,-46158.119999999995,-85471.29,-49902.84,-12079.8,-17314.29,6873.48,-49645.575,-4.295470991628004,-0.029074630102890613,-0.2714531055877938,3.35728208569,1.9017520454089953,0.3922686136740704,0.6309384040332954,-4.455191082142166,0.955624995,-0.020446725,0.325255515,-16.084039999999998,0.51884,6.790699999999999,69.0
1774822814.0088809,0.004129171371459961,2026-03-29T22:20:14.008,2026-03-29T18:20:14.008,-32857.695,-46158.84,-85479.56999999999,-49911.93,-12086.505,-17321.175,6870.509999999999,-49640.49,-2.0251203097110806,3.1093945720871288,-0.19196140309407042,2.700604672782556,2.0379981284165916,0.28285341937014863,0.5461506164144581,-3.9582665960530097,0.955624995,-0.020446725,0.325255515,-16.084039999999998,0.51884,6.790699999999999,69.0
1774822814.0088987,1.7881393432617188e-05,2026-03-29T22:20:14.008,2026-03-29T18:20:14.008,-32853.869999999995,-46161.18,-85487.625,-49922.055,-12091.77,-17324.37,6870.0599999999995,-49636.755,1.0172058152702772,4.715898064552829,-0.3088298288998006,0.7108080698824943,1.1877486151897956,-0.016718537119322682,0.18938441583710205,-1.603373358346512,0.955624995,-0.020446725,0.325255515,-16.084039999999998,0.51884,6.790699999999999,69.0
1774822814.0131755,0.004276752471923828,2026-03-29T22:20:14.013,2026-03-29T18:20:14.013,-32850.54,-46159.695,-85489.65,-49929.479999999996,-12095.189999999999,-17323.425,6871.634999999999,-49631.085,3.5104014006271553,4.2651907762773815,-0.4151066558556466,-1.7144019984603462,-0.21221969295717952,-0.3362203223179916,-0.2406774056416825,1.4683193197011106,0.956601555,-0.023742615,0.32433999,-15.76358,1.31236,8.19462,69.0
1774822814.01319,1.4543533325195312e-05,2026-03-29T22:20:14.013,2026-03-29T18:20:14.013,-32856.615,-46164.15,-85489.33499999999,-49928.895,-12094.92,-17322.93,6871.634999999999,-49632.615,4.428029605816446,2.148480072621367,-0.2373840491634792,-3.423825297668839,-1.4639189410717628,-0.474918639613026,-0.5135679004728626,3.7910565855988994,0.956601555,-0.023742615,0.32433999,-15.76358,1.31236,8.19462,69.0
1774822814.0167663,0.0035762786865234375,2026-03-29T22:20:14.016,2026-03-29T18:20:14.016,-32854.545,-46169.415,-85492.26,-49925.744999999995,-12093.39,-17321.895,6872.13,-49629.104999999996,3.463840289440483,-0.5917295989698831,0.33422997683908817,-3.564841310434345,-1.9593884521571494,-0.32296649292054325,-0.49104157565754103,4.285863362005346,0.956601555,-0.023742615,0.32433999,-15.76358,1.31236,8.19462,69.0
1774822814.0167975,3.123283386230469e-05,2026-03-29T22:20:14.016,2026-03-29T18:20:14.016,-32855.265,-46174.68,-85489.69499999999,-49925.79,-12097.845,-17327.114999999998,6865.5599999999995,-49626.494999999995,1.1219705722365543,-2.782031378673027,1.1023696508884762,-2.011310040364959,-1.4808496215544305,0.060982713807752054,-0.19994272171768296,2.7702484036456427,0.956601555,-0.023742615,0.32433999,-15.76358,1.31236,8.19462,69.0
1774822814.0209515,0.0041539669036865234,2026-03-29T22:20:14.020,2026-03-29T18:20:14.020,-32858.505,-46177.604999999996,-85490.145,-49923.494999999995,-12098.925,-17329.905,6861.87,-49628.655,-1.5475243777566667,-3.6311876915680448,1.617276160383884,0.549223729168791,-0.29911565600579587,0.46726166422958443,0.18563449870033913,0.021093386613941008,0.956601555,-0.023742615,0.32433999,-15.76358,1.31236,8.19462,69.0
1774822814.020964,1.239776611328125e-05,2026-03-29T22:20:14.020,2026-03-29T18:20:14.020,-32860.71,-46170.765,-85487.58,-49912.784999999996,-12093.705,-17327.52,6861.78,-49635.63,-3.428956038866251,-3.0063682784033907,1.4245746344466312,2.923588721236183,0.9756582441388375,0.6461412545992581,0.4431384041976828,-2.6284222647348456,0.956601555,-0.023742615,0.32433999,-15.76358,1.31236,8.19462,69.0
1774822814.0308993,0.009935379028320312,2026-03-29T22:20:14.030,2026-03-29T18:20:14.030,-32858.19,-46163.52,-85485.95999999999,-49900.455,-12087.404999999999,-17325.54,6862.23,-49637.924999999996,-3.8128817575298632,-1.3812324250752397,0.37422656626814255,3.976400473563264,1.70986930501977,0.4544628128417953,0.426958016121969,-3.9466998844756898,0.956601555,-0.023742615,0.32433999,-15.76358,1.31236,8.19462,69.0
1774822814.0309217,2.2411346435546875e-05,2026-03-29T22:20:14.030,2026-03-29T18:20:14.030,-32858.28,-46161.314999999995,-85486.275,-49891.275,-12076.109999999999,-17317.305,6865.335,-49638.555,-2.6568066933957004,0.46990186086006563,-1.198596609853667,3.178926941433531,1.5646583326564039,-0.04609279987918557,0.15080638951174263,-3.386380929871123,0.956601555,-0.023742615,0.32433999,-15.76358,1.31236,8.19462,69.0
1774822814.030943,2.1219253540039062e-05,2026-03-29T22:20:14.030,2026-03-29T18:20:14.030,-32854.229999999996,-46165.77,-85501.34999999999,-49914.494999999995,-12091.32,-17333.864999999998,6859.9349999999995,-49631.759999999995,-0.54230682556926,1.848959483208264,-2.5576315775337024,0.8747997819739023,0.6547439592008762,-0.6018675651718477,-0.21952175572264246,-1.3109580113336046,0.956601555,-0.023742615,0.32433999,-15.76358,1.31236,8.19462,69.0
1774822814.0309527,9.775161743164062e-06,2026-03-29T22:20:14.030,2026-03-29T18:20:14.030,-32847.795,-46160.46,-85498.605,-49935.42,-12097.845,-17335.665,6860.474999999999,-49627.755,1.6224065705224087,2.39523962940418,-2.909836948297969,-1.8715209057183435,-0.5279314365933025,-0.8942225513159998,-0.46028075665202645,1.2283559166125704,0.956601555,-0.023742615,0.32433999,-15.76358,1.31236,8.19462,69.0
1774822814.0331523,0.0021996498107910156,2026-03-29T22:20:14.033,2026-03-29T18:20:14.033,-32837.354999999996,-46155.78,-85493.205,-49955.67,-12107.699999999999,-17333.055,6873.48,-49617.45,3.0004399486638005,2.133971425834122,-1.8488654961437312,-3.774967447406437,-1.37879180831784,-0.7174589396309409,-0.4191602503453748,3.0332559587661048,0.9578222550000001,-0.026428155000000002,0.323180325,-14.481739999999999,1.8006799999999998,8.469299999999999,69.0
1774822814.0331707,1.8358230590820312e-05,2026-03-29T22:20:14.033,2026-03-29T18:20:14.033,-32832.54,-46151.865,-85477.59,-49945.905,-12113.73,-17336.25,6872.085,-49614.525,3.146147102054135,1.3410844600264504,0.34417743162381187,-3.939433833373318,-1.4913439518489628,-0.10965999322773068,-0.10708136271143487,3.3348091116774103,0.9578222550000001,-0.026428155000000002,0.323180325,-14.481739999999999,1.8006799999999998,8.469299999999999,69.0
1774822814.036777,0.0036063194274902344,2026-03-29T22:20:14.036,2026-03-29T18:20:14.036,-32842.44,-46155.78,-85476.42,-49919.31,-12091.23,-17319.915,6870.78,-49631.13,2.126263645224256,0.3426983138675681,2.735436904309545,-2.2832373436650344,-0.8531496239492823,0.6427100675841025,0.30135215970476836,2.1229959166023344,0.9578222550000001,-0.026428155000000002,0.323180325,-14.481739999999999,1.8006799999999998,8.469299999999999,69.0
1774822814.036798,2.09808349609375e-05,2026-03-29T22:20:14.036,2026-03-29T18:20:14.036,-32859.405,-46183.455,-85497.12,-49923.314999999995,-12084.795,-17314.245,6875.235,-49649.04,0.4242530129783397,-0.6230800719029146,4.136802949407928,0.4235939784637872,0.16857644780515216,1.1402042768247045,0.5625223879663465,0.08681595583295541,0.9578222550000001,-0.026428155000000002,0.323180325,-14.481739999999999,1.8006799999999998,8.469299999999999,69.0
1774822814.042064,0.005265951156616211,2026-03-29T22:20:14.042,2026-03-29T18:20:14.042,-32861.924999999996,-46196.189999999995,-85495.995,-49924.034999999996,-12090.33,-17325.945,6869.429999999999,-49642.02,-1.2962082914780084,-1.4213312957727045,3.6978413875494263,2.9258553780718053,1.0347839156427496,1.0815608812480588,0.5034168417632712,-1.774870882787182,0.9578222550000001,-0.026428155000000002,0.323180325,-14.481739999999999,1.8006799999999998,8.469299999999999,69.0
1774822814.0420768,1.2874603271484375e-05,2026-03-29T22:20:14.042,2026-03-29T18:20:14.042,-32863.994999999995,-46169.82,-85472.86499999999,-49915.53,-12087.449999999999,-17324.684999999998,6866.28,-49646.835,-2.4495596543900917,-1.9464036816818124,1.395054699371839,4.074885717040399,1.3194058360341585,0.4390365743980252,0.12821806043006115,-2.653221150999291,0.9578222550000001,-0.026428155000000002,0.323180325,-14.481739999999999,1.8006799999999998,8.469299999999999,69.0
1774822814.0449197,0.0028429031372070312,2026-03-29T22:20:14.044,2026-03-29T18:20:14.044,-32858.369999999995,-46143.18,-85466.205,-49916.205,-12088.395,-17324.415,6859.844999999999,-49651.515,-2.707733565325749,-2.0538360367111177,-1.8545052171609224,3.3616290359928347,0.9201178149744367,-0.5019595967921112,-0.371136000414718,-2.2852222684995187,0.9578222550000001,-0.026428155000000002,0.323180325,-14.481739999999999,1.8006799999999998,8.469299999999999,69.0
1774822814.0449388,1.9073486328125e-05,2026-03-29T22:20:14.044,2026-03-29T18:20:14.044,-32847.705,-46152.134999999995,-85482.45,-49921.515,-12087.539999999999,-17312.489999999998,6870.105,-49646.25,-2.05778623950992,-1.5825453217619478,-4.555589805601329,1.1406161084231734,0.08986119100626355,-1.2708579918500527,-0.7121711414918123,-1.0064107362799304,0.9578222550000001,-0.026428155000000002,0.323180325,-14.481739999999999,1.8006799999999998,8.469299999999999,69.0
1774822814.0488553,0.003916501998901367,2026-03-29T22:20:14.048,2026-03-29T18:20:14.048,-32844.915,-46169.009999999995,-85505.805,-49932.72,-12094.289999999999,-17315.864999999998,6876.09,-49635.09,-0.7549445019810254,-0.4776705748655278,-5.33155328209198,-1.552888252453286,-0.7170859405398209,-1.4496672160349422,-0.6781434515299922,0.49030178914972233,0.9578222550000001,-0.026428155000000002,0.323180325,-14.481739999999999,1.8006799999999998,8.469299999999999,69.0
1774822814.04888,2.47955322265625e-05,2026-03-29T22:20:14.048,2026-03-29T18:20:14.048,-32847.119999999995,-46159.875,-85493.025,-49924.215,-12094.199999999999,-17325.315,6865.425,-49637.7,0.7804870897450661,1.0641497683760457,-3.6265495988117835,-3.4954233861553297,-1.0932550931625618,-0.8991422983739344,-0.24831052042292528,1.533071338835623,0.9578222550000001,-0.026428155000000002,0.323180325,-14.481739999999999,1.8006799999999998,8.469299999999999,69.0
1774822814.0574627,0.008582592010498047,2026-03-29T22:20:14.057,2026-03-29T18:20:14.057,-32854.545,-46150.244999999995,-85474.575,-49914.765,-12085.965,-17320.905,6866.775,-49647.869999999995,2.0787356610668706,2.548066038633595,-0.05406440154217709,-3.838285774595162,-0.884771545082696,0.14886597713459074,0.37343235591993,1.7790344952948236,0.9606909,-0.02453607,0.320983065,-15.015839999999999,1.57178,9.65958,69.0
1774822814.05748,1.7404556274414062e-05,2026-03-29T22:20:14.057,2026-03-29T18:20:14.057,-32857.65,-46138.229999999996,-85449.825,-49902.84,-12072.06,-17307.045,6876.405,-49661.055,2.729595495837766,3.316014928428908,3.8130082444264453,-2.4781636150567943,-0.25103324818823397,1.1899102983870828,0.854872853943167,1.3072214144879357,0.9606909,-0.02453607,0.320983065,-15.015839999999999,1.57178,9.65958,69.0
1774822814.0574965,1.6450881958007812e-05,2026-03-29T22:20:14.057,2026-03-29T18:20:14.057,-32854.005,-46138.005,-85447.665,-49904.685,-12071.97,-17302.454999999998,6880.59,-49660.2,2.484023828589884,2.8421322105202957,6.145224571995162,-0.07377332537618303,0.4440387280238765,1.694189092323744,0.9115992110953252,0.4848510907916027,0.9606909,-0.02453607,0.320983065,-15.015839999999999,1.57178,9.65958,69.0
1774822814.057504,7.3909759521484375e-06,2026-03-29T22:20:14.057,2026-03-29T18:20:14.057,-32850.315,-46142.145,-85456.665,-49916.52,-12084.029999999999,-17310.915,6876.45,-49657.634999999995,1.342963001524221,1.0542629129819445,5.733114644962939,2.2817354353427057,0.8395652218689762,1.3793433743156787,0.47021764158266244,-0.28155488908516335,0.9606909,-0.02453607,0.320983065,-15.015839999999999,1.57178,9.65958,69.0
1774822814.0608168,0.003312826156616211,2026-03-29T22:20:14.060,2026-03-29T18:20:14.060,-32843.88,-46141.424999999996,-85459.31999999999,-49915.53,-12086.865,-17316.989999999998,6872.445,-49651.11,-0.3940462576898384,-1.5039206111048131,2.6119582466577587,3.5656788446865413,0.7663468903583113,0.3668262305874128,-0.2730848390188267,-0.7529052251206114,0.9606909,-0.02453607,0.320983065,-15.015839999999999,1.57178,9.65958,69.0
1774822814.0608385,2.1696090698242188e-05,2026-03-29T22:20:14.060,2026-03-29T18:20:14.060,-32846.265,-46147.77,-85468.14,-49917.06,-12088.395,-17320.905,6871.1849999999995,-49648.68,-2.164514900823694,-3.8033894865448126,-1.88759455988391,3.2708458556621944,0.31721181399639753,-0.8643132910836443,-0.9386422775539767,-0.914347505892682,0.9606909,-0.02453607,0.320983065,-15.015839999999999,1.57178,9.65958,69.0
1774822814.0648577,0.004019260406494141,2026-03-29T22:20:14.064,2026-03-29T18:20:14.064,-32845.049999999996,-46149.03,-85472.415,-49917.465,-12089.97,-17327.835,6871.455,-49645.17,-3.2936534679395755,-4.74515594292903,-5.71590472444239,1.5965930188939303,-0.22914969480734493,-1.7091743743159835,-1.157022843045922,-0.8812995731509458,0.9606909,-0.02453607,0.320983065,-15.015839999999999,1.57178,9.65958,69.0
1774822814.0648685,1.0728836059570312e-05,2026-03-29T22:20:14.064,2026-03-29T18:20:14.064,-32844.645,-46150.244999999995,-85474.26,-49917.06,-12088.755,-17327.43,6871.1849999999995,-49644.045,-3.241148425445294,-3.6921604256551777,-7.053316772667011,-0.6800813622948529,-0.5771711916282684,-1.7399088877221296,-0.7717129215366484,-0.7489840654402089,0.9606909,-0.02453607,0.320983065,-15.015839999999999,1.57178,9.65958,69.0
1774822814.070598,0.0057294368743896484,2026-03-29T22:20:14.070,2026-03-29T18:20:14.070,-32847.165,-46153.575,-85479.12,-49920.03,-12087.855,-17323.335,6869.745,-49645.665,-1.860246365082683,-0.8570927246903356,-5.184781778336706,-2.572712618265188,-0.5756254647611911,-0.9255436843958914,0.05935009858505785,-0.5053142016221273,0.9606909,-0.02453607,0.320983065,-15.015839999999999,1.57178,9.65958,69.0
1774822814.0706196,2.1696090698242188e-05,2026-03-29T22:20:14.070,2026-03-29T18:20:14.070,-32850.405,-46157.625,-85483.845,-49923.765,-12090.42,-17326.665,6866.955,-49650.255,0.45528647180732534,2.677437732417779,-0.8748545866656686,-3.3145742152950723,-0.2825919176410218,0.34571048579807273,0.9256504228654446,-0.07079386401207037,0.9606909,-0.02453607,0.320983065,-15.015839999999999,1.57178,9.65958,69.0
1774822814.0730653,0.002445697784423828,2026-03-29T22:20:14.073,2026-03-29T18:20:14.073,-32853.78,-46158.479999999996,-85481.64,-49920.93,-12088.98,-17327.024999999998,6866.775,-49654.845,2.8415583046175663,5.368090652364449,3.9513162317201562,-2.6613520682762606,0.09340303924403724,1.4560225290931186,1.3669345187200646,0.569294585135101,0.96899166,-0.023376405,0.31713786,-16.435019999999998,1.8769799999999999,9.079699999999999,69.0
1774822814.0730896,2.4318695068359375e-05,2026-03-29T22:20:14.073,2026-03-29T18:20:14.073,-32849.415,-46154.835,-85474.75499999999,-49917.24,-12088.484999999999,-17326.71,6868.304999999999,-49653.045,4.271785589032741,5.89690183616589,7.084377135065323,-0.9527364556830764,0.33119234571742817,1.8648779345228976,1.116845517820758,1.2496663050558245,0.96899166,-0.023376405,0.31713786,-16.435019999999998,1.8769799999999999,9.079699999999999,69.0
1774822814.0772803,0.004190683364868164,2026-03-29T22:20:14.077,2026-03-29T18:20:14.077,-32844.375,-46152.54,-85474.395,-49916.564999999995,-12087.449999999999,-17325.54,6873.344999999999,-49649.895,4.000336670827402,3.823300997801381,7.057327061653462,1.0683686458983321,0.3268249372650966,1.3779588307572055,0.25885242200611375,1.635431610380236,0.96899166,-0.023376405,0.31713786,-16.435019999999998,1.8769799999999999,9.079699999999999,69.0
1774822814.0773022,2.193450927734375e-05,2026-03-29T22:20:14.077,2026-03-29T18:20:14.077,-32847.705,-46158.75,-85482.62999999999,-49923.54,-12091.14,-17326.62,6872.849999999999,-49650.884999999995,1.9506804007144312,-0.12367663398846471,3.837710787962857,2.581030037568919,0.1396292375377738,0.24159517638365235,-0.7948080611289108,1.3872620910656988,0.96899166,-0.023376405,0.31713786,-16.435019999999998,1.8769799999999999,9.079699999999999,69.0
1774822814.0808036,0.003501415252685547,2026-03-29T22:20:14.080,2026-03-29T18:20:14.080,-32848.74,-46161.314999999995,-85487.715,-49927.365,-12095.73,-17329.14,6873.165,-49651.47,-1.154427691589957,-4.289173346729889,-1.1439824797476885,3.0124184174030177,-0.06629049406502786,-0.9841908484896486,-1.5009611431623333,0.39975518085242023,0.96899166,-0.023376405,0.31713786,-16.435019999999998,1.8769799999999999,9.079699999999999,69.0
1774822814.0808127,9.059906005859375e-06,2026-03-29T22:20:14.080,2026-03-29T18:20:14.080,-32850.45,-46162.305,-85489.47,-49926.42,-12096.765,-17332.559999999998,6871.455,-49654.755,-4.026130711127995,-6.797870776827432,-5.645759794974115,2.2398346842443124,-0.14125046313224424,-1.7077394063976894,-1.465319792188804,-1.0389804393651179,0.96899166,-0.023376405,0.31713786,-16.435019999999998,1.8769799999999999,9.079699999999999,69.0
1774822814.0851257,0.004312992095947266,2026-03-29T22:20:14.085,2026-03-29T18:20:14.085,-32845.905,-46156.994999999995,-85483.665,-49921.65,-12092.715,-17336.16,6868.485,-49654.439999999995,-5.34455723781931,-6.414352130728859,-7.64076125517749,0.607112031712369,-0.050747144249510275,-1.598264647908107,-0.6602679296589713,-2.2969959604868633,0.96899166,-0.023376405,0.31713786,-16.435019999999998,1.8769799999999999,9.079699999999999,69.0
1774822814.085143,1.7404556274414062e-05,2026-03-29T22:20:14.085,2026-03-29T18:20:14.085,-32855.04,-46158.84,-85481.01,-49919.759999999995,-12087.18,-17331.885,6867.179999999999,-49665.78,-4.373921515225264,-3.155952851786803,-6.2401046007986345,-1.2306395674758752,0.10676155180949565,-0.7411033227400365,0.5386259581317456,-2.6767055501490042,0.96899166,-0.023376405,0.31713786,-16.435019999999998,1.8769799999999999,9.079699999999999,69.0
1774822814.0893629,0.004219770431518555,2026-03-29T22:20:14.089,2026-03-29T18:20:14.089,-32851.575,-46151.865,-85472.235,-49914.765,-12077.82,-17316.0,6871.86,-49670.549999999996,-1.3670485256742677,1.6483189095305062,-2.0864734094194284,-2.56260735468939,0.17506210047328644,0.4191395972627453,1.5269825273273827,-1.7990597232175942,0.96899166,-0.023376405,0.31713786,-16.435019999999998,1.8769799999999999,9.079699999999999,69.0
1774822814.089378,1.52587890625e-05,2026-03-29T22:20:14.089,2026-03-29T18:20:14.089,-32844.015,-46149.075,-85468.455,-49911.345,-12073.77,-17306.325,6876.36,-49667.265,2.4608675302133265,5.9086444625682955,2.9546302439583485,-2.8828980522429055,0.0579181159790521,1.3124879053514988,1.7763678441068742,0.11678407832053386,0.96899166,-0.023376405,0.31713786,-16.435019999999998,1.8769799999999999,9.079699999999999,69.0
1774822814.0933776,0.003999471664428711,2026-03-29T22:20:14.093,2026-03-29T18:20:14.093,-32843.655,-46151.369999999995,-85473.855,-49916.115,-12081.555,-17318.43,6873.795,-49668.57,5.420007259548221,7.701936925819349,6.651131533465755,-2.0697604491812287,-0.19992229386756483,1.5302380579297092,1.1157107515755602,2.2618275111565085,0.9753393,-0.028991625,0.317443035,-14.58856,1.4497,7.752079999999999,69.0
1774822814.093387,9.298324584960938e-06,2026-03-29T22:20:14.093,2026-03-29T18:20:14.093,-32845.994999999995,-46155.33,-85481.01,-49921.604999999996,-12085.515,-17321.175,6871.95,-49670.729999999996,6.101530853485344,6.155152265840352,7.405853806453809,-0.42838099206270014,-0.4263132183964338,1.0173348720850848,-0.15999625274527907,3.576934275890658,0.9753393,-0.028991625,0.317443035,-14.58856,1.4497,7.752079999999999,69.0
1774822814.1065116,0.013124704360961914,2026-03-29T22:20:14.106,2026-03-29T18:20:14.106,-32845.095,-46159.38,-85486.41,-49924.575,-12085.74,-17318.745,6875.1449999999995,-49668.299999999996,4.0585974160408576,1.871173494657865,4.947032801232371,1.4153532226695795,-0.4282831641682041,0.07734436201568189,-1.4196723158140772,3.282610638899791,0.9753393,-0.028991625,0.317443035,-14.58856,1.4497,7.752079999999999,69.0
1774822814.1065283,1.6689300537109375e-05,2026-03-29T22:20:14.106,2026-03-29T18:20:14.106,-32851.215,-46171.305,-85491.405,-49928.49,-12094.965,-17329.23,6871.32,-49671.225,0.07891736161643427,-3.3112956561135953,0.4091012189314585,2.7383886995542137,-0.12837748738673582,-0.8029487960180134,-2.0085178458138295,1.330866016691912,0.9753393,-0.028991625,0.317443035,-14.58856,1.4497,7.752079999999999,69.0
1774822814.106552,2.3603439331054688e-05,2026-03-29T22:20:14.106,2026-03-29T18:20:14.106,-32856.479999999996,-46179.18,-85482.94499999999,-49916.205,-12093.84,-17331.93,6867.045,-49673.475,-4.110659165904375,-7.125041667849232,-4.208184046106523,2.99115923015468,0.3575345427965855,-1.2096947329032146,-1.5880507679013336,-1.4786949729035561,0.9753393,-0.028991625,0.317443035,-14.58856,1.4497,7.752079999999999,69.0
1774822814.1065588,6.9141387939453125e-06,2026-03-29T22:20:14.106,2026-03-29T18:20:14.106,-32860.35,-46182.645,-85491.405,-49915.439999999995,-12096.539999999999,-17336.024999999998,6863.13,-49677.525,-6.601681428777688,-7.885160785412542,-6.935987859298567,2.0222142796987175,0.7599554773422064,-1.0025404680849939,-0.32733532014737476,-3.8207939538788502,0.9753393,-0.028991625,0.317443035,-14.58856,1.4497,7.752079999999999,69.0
1774822814.1065662,7.3909759521484375e-06,2026-03-29T22:20:14.106,2026-03-29T18:20:14.106,-32858.055,-46179.674999999996,-85519.665,-49929.255,-12100.05,-17337.87,6864.12,-49678.38,-6.187503970511183,-5.243203424294393,-6.678460394663439,0.16740689238935244,0.8027572215843733,-0.3596779730017436,1.1612604784173766,-4.478382644320724,0.9753393,-0.028991625,0.317443035,-14.58856,1.4497,7.752079999999999,69.0
1774822814.1065724,6.198883056640625e-06,2026-03-29T22:20:14.106,2026-03-29T18:20:14.106,-32850.494999999995,-46166.58,-85524.12,-49938.57,-12100.095,-17338.725,6863.085,-49679.865,-2.957033703671615,-0.34218415409451997,-3.638990828218756,-1.8479742965012154,0.3781538139794559,0.3451611851217963,2.1197120582601308,-2.981331029772574,0.9753393,-0.028991625,0.317443035,-14.58856,1.4497,7.752079999999999,69.0
1774822814.109002,0.0024297237396240234,2026-03-29T22:20:14.109,2026-03-29T18:20:14.109,-32836.185,-46151.82,-85510.62,-49948.29,-12101.49,-17340.48,6865.92,-49675.95,1.697430827889053,4.694281674749281,0.8268755682730266,-3.1785197317412464,-0.35627423772999456,0.7566126188876743,2.0306133177683257,0.08777415424929841,0.9753393,-0.028991625,0.317443035,-14.58856,1.4497,7.752079999999999,69.0
1774822814.1090243,2.2172927856445312e-05,2026-03-29T22:20:14.109,2026-03-29T18:20:14.109,-32820.39,-46134.72,-85478.625,-49960.439999999995,-12114.0,-17347.59,6867.405,-49663.979999999996,5.685626156090859,7.70210404355085,4.832093248895416,-3.2084225171277483,-1.028731750773053,0.7215682818457309,0.895059096785627,3.3093484152475767,0.9753393,-0.028991625,0.317443035,-14.58856,1.4497,7.752079999999999,69.0
1774822814.113224,0.0041997432708740234,2026-03-29T22:20:14.113,2026-03-29T18:20:14.113,-32812.83,-46127.25,-85453.965,-49939.244999999995,-12107.789999999999,-17339.13,6868.304999999999,-49655.924999999996,7.17215268385638,7.419742559952311,6.759842854456979,-1.8400367850176287,-1.2409394780087581,0.34603874556903685,-0.7465323622033945,5.091113654087653,0.97607172,-0.03271476,0.31921305,-16.511319999999998,2.5179,7.15694,69.0
1774822814.1132371,1.3113021850585938e-05,2026-03-29T22:20:14.113,2026-03-29T18:20:14.113,-32832.18,-46142.235,-85460.355,-49913.64,-12086.324999999999,-17323.829999999998,6869.295,-49668.525,5.435651500841389,4.016449437873757,5.903072761973893,0.41543274167125144,-0.79774789837995,-0.0962588923352049,-2.0716675097543247,4.466590672613344,0.97607172,-0.03271476,0.31921305,-16.511319999999998,2.5179,7.15694,69.0
1774822814.1173189,0.00408172607421875,2026-03-29T22:20:14.117,2026-03-29T18:20:14.117,-32839.47,-46161.674999999996,-85494.87,-49923.854999999996,-12088.619999999999,-17326.8,6868.53,-49675.86,1.2254386167126676,-1.014811474617363,2.696375402369068,2.6115378219204333,0.15136355221531655,-0.3409868677440769,-2.388647243300775,1.6223528628032065,0.97607172,-0.03271476,0.31921305,-16.511319999999998,2.5179,7.15694,69.0
1774822814.1173413,2.2411346435546875e-05,2026-03-29T22:20:14.117,2026-03-29T18:20:14.117,-32860.17,-46175.354999999996,-85497.25499999999,-49924.439999999995,-12083.984999999999,-17319.105,6874.245,-49695.525,-3.5634585075853886,-5.531498106619829,-1.5176175691373366,3.7568215919185586,1.1515155402927542,-0.2883592457242487,-1.4974169417382173,-2.1343936328442683,0.97607172,-0.03271476,0.31921305,-16.511319999999998,2.5179,7.15694,69.0
1774822814.1522396,0.03489828109741211,2026-03-29T22:20:14.152,2026-03-29T18:20:14.152,-32860.979999999996,-46179.27,-85486.905,-49922.009999999995,-12079.755,-17313.524999999998,6877.17,-49698.9,-6.755063141968307,-7.66857419205441,-5.056568229004344,3.264938795288449,1.6603317659590315,-0.04674813981131606,0.1898103578577449,-4.9814152268882905,0.97607172,-0.03271476,0.31921305,-16.511319999999998,2.5179,7.15694,69.0
1774822814.1522672,2.765655517578125e-05,2026-03-29T22:20:14.152,2026-03-29T18:20:14.152,-32860.665,-46169.64,-85476.42,-49919.939999999995,-12081.33,-17312.309999999998,6879.375,-49695.345,-6.896713819602759,-6.609699886181431,-6.55710331321528,1.2593078535245195,1.3401107242710315,0.15590754629489426,1.838765796676184,-5.477449851957445,0.97607172,-0.03271476,0.31921305,-16.511319999999998,2.5179,7.15694,69.0
1774822814.1522944,2.7179718017578125e-05,2026-03-29T22:20:14.152,2026-03-29T18:20:14.152,-32850.63,-46138.77,-85461.03,-49920.57,-12088.395,-17320.905,6877.259999999999,-49688.82,-3.932073644945847,-2.883229716082999,-5.473150872685185,-1.427572791401903,0.26760071515949263,0.13401409021257546,2.606691074556841,-3.302611095983116,0.97607172,-0.03271476,0.31921305,-16.511319999999998,2.5179,7.15694,69.0
1774822814.1523051,1.0728836059570312e-05,2026-03-29T22:20:14.152,2026-03-29T18:20:14.152,-32837.85,-46135.35,-85466.205,-49928.58,-12098.295,-17332.47,6870.554999999999,-49681.845,0.7742732685005316,1.9143568311433388,-2.248311429276142,-3.590090166838114,-1.0637845420935956,-0.12310659663136743,2.073749655955325,0.5415578943460103,0.97607172,-0.03271476,0.31921305,-16.511319999999998,2.5179,7.15694,69.0
1774822814.152328,2.288818359375e-05,2026-03-29T22:20:14.152,2026-03-29T18:20:14.152,-32830.065,-46143.314999999995,-85472.37,-49927.095,-12096.404999999999,-17329.005,6869.7,-49671.854999999996,5.072332808777125,5.817547594213721,1.8739447240247742,-4.190795703318798,-1.9702528910071828,-0.4331396856065308,0.4711081195492028,4.194189272759803,0.97607172,-0.03271476,0.31921305,-16.511319999999998,2.5179,7.15694,69.0
1774822814.1523457,1.7642974853515625e-05,2026-03-29T22:20:14.152,2026-03-29T18:20:14.152,-32836.5,-46156.77,-85485.285,-49931.505,-12097.935,-17329.545,6862.094999999999,-49669.29,7.022669203893021,7.299297721442443,5.3159232657906115,-2.8640175049894774,-1.9289497309898185,-0.5332615172854119,-1.4175927944127364,5.845681817292336,0.97607172,-0.03271476,0.31921305,-16.511319999999998,2.5179,7.15694,69.0
1774822814.1523669,2.1219253540039062e-05,2026-03-29T22:20:14.152,2026-03-29T18:20:14.152,-32839.74,-46157.445,-85486.00499999999,-49930.784999999996,-12103.154999999999,-17341.11,6854.3099999999995,-49675.814999999995,5.784960413663327,5.853999595369441,6.740447877462969,-0.13480060312171693,-0.873617480285326,-0.25842194787992556,-2.6404029039052115,4.6466826436770745,0.96972408,-0.02282709,0.318663735,-22.76792,3.31142,8.6219,69.0
1774822814.1523843,1.7404556274414062e-05,2026-03-29T22:20:14.152,2026-03-29T18:20:14.152,-32838.705,-46149.84,-85478.355,-49925.52,-12099.869999999999,-17346.735,6849.63,-49678.244999999995,1.9859008054167262,2.142089031282453,5.542921185351716,2.775603051558459,0.7302008605085905,0.3243191542680103,-2.558073935036338,1.1535154602231552,0.96972408,-0.02282709,0.318663735,-22.76792,3.31142,8.6219,69.0
1774822814.152404,1.9788742065429688e-05,2026-03-29T22:20:14.152,2026-03-29T18:20:14.152,-32857.11,-46152.854999999996,-85472.50499999999,-49910.895,-12074.175,-17316.315,6867.855,-49697.1,-2.597171093385841,-2.3253459588728176,2.096711380156506,4.493725048406035,2.0884304497671593,0.9160654302101522,-1.1783169270936769,-2.926678814446686,0.96972408,-0.02282709,0.318663735,-22.76792,3.31142,8.6219,69.0
1774822814.1524205,1.6450881958007812e-05,2026-03-29T22:20:14.152,2026-03-29T18:20:14.152,-32859.315,-46157.805,-85477.275,-49915.305,-12073.814999999999,-17303.399999999998,6884.325,-49702.77,-5.87707583850445,-5.804728451987162,-2.340897962368703,4.146364654993356,2.4724942805162393,1.1364839855657207,0.8314737764253792,-5.575715269262478,0.96972408,-0.02282709,0.318663735,-22.76792,3.31142,8.6219,69.0
1774822814.1524413,2.0742416381835938e-05,2026-03-29T22:20:14.152,2026-03-29T18:20:14.152,-32849.955,-46158.03,-85482.45,-49923.0,-12083.13,-17315.595,6884.37,-49696.02,-6.419775133744633,-6.986228764884747,-6.053042546646328,1.8096136272758017,1.6079997996568443,0.749607410521874,2.467606349495089,-5.473199437081876,0.96972408,-0.02282709,0.318663735,-22.76792,3.31142,8.6219,69.0
1774822814.152458,1.6689300537109375e-05,2026-03-29T22:20:14.152,2026-03-29T18:20:14.152,-32853.42,-46162.935,-85484.87999999999,-49920.884999999995,-12083.895,-17321.22,6879.825,-49696.38,-4.079490358980008,-5.461922121707591,-7.496024853529216,-1.4784214964399809,-0.14844119168039063,-0.16307921467809006,2.892604284833348,-2.6654107897040733,0.96972408,-0.02282709,0.318663735,-22.76792,3.31142,8.6219,69.0
1774822814.1524785,2.0503997802734375e-05,2026-03-29T22:20:14.152,2026-03-29T18:20:14.152,-32849.955,-46161.99,-85484.52,-49921.335,-12083.715,-17319.105,6880.365,-49690.89,-0.021090363700981628,-1.8441618056829765,-5.926552025985131,-4.17347851976001,-1.9517708911641038,-1.1931045991423075,1.8646655406941859,1.4489878742422513,0.96972408,-0.02282709,0.318663735,-22.76792,3.31142,8.6219,69.0
1774822814.1524963,1.7881393432617188e-05,2026-03-29T22:20:14.152,2026-03-29T18:20:14.152,-32850.27,-46161.134999999995,-85485.69,-49928.895,-12090.195,-17321.94,6881.219999999999,-49688.955,3.8606204067978096,2.4841790983627177,-1.777443154878647,-4.952075830644165,-2.8759211930402064,-1.7863756377951407,-0.12646552050562715,4.8159676833087035,0.96972408,-0.02282709,0.318663735,-22.76792,3.31142,8.6219,69.0
1774822814.152516,1.9550323486328125e-05,2026-03-29T22:20:14.152,2026-03-29T18:20:14.152,-32846.13,-46154.52,-85479.12,-49928.22,-12091.14,-17323.29,6879.554999999999,-49687.47,5.834272393283772,5.883247679408438,3.4052293793345325,-3.3664199552019913,-2.389042256416371,-1.5354835616148046,-2.0927232317772027,5.757838428652597,0.96972408,-0.02282709,0.318663735,-22.76792,3.31142,8.6219,69.0
1774822814.1525257,9.775161743164062e-06,2026-03-29T22:20:14.152,2026-03-29T18:20:14.152,-32845.545,-46155.689999999995,-85480.065,-49929.21,-12090.96,-17324.55,6873.929999999999,-49686.435,5.112630423594306,7.0516017022784885,7.499697277922119,-0.10101955354980018,-0.652618709166149,-0.43074103864006735,-3.0389670801193716,3.8183514435863137,0.96972408,-0.02282709,0.318663735,-22.76792,3.31142,8.6219,69.0
1774822814.1525376,1.1920928955078125e-05,2026-03-29T22:20:14.152,2026-03-29T18:20:14.152,-32836.005,-46143.99,-85469.805,-49922.64,-12088.215,-17328.105,6865.514999999999,-49681.979999999996,2.164846788495859,5.5031331779956245,8.65788918542393,3.3148961013261986,1.5209557760923913,1.0759229313474716,-2.4675269971530427,-0.008431157527795025,0.957089835,-0.01562496,0.311339535,-29.54336,1.0834599999999999,8.42352,69.0
1774822814.1525471,9.5367431640625e-06,2026-03-29T22:20:14.152,2026-03-29T18:20:14.152,-32835.195,-46142.325,-85465.89,-49918.86,-12086.324999999999,-17326.665,6867.0,-49684.725,-1.5621746062181774,1.7641370525818079,6.138079426574746,5.22249441088382,3.0489390838098474,2.2519826949714306,-0.6398498503058205,-3.7833663959754107,0.957089835,-0.01562496,0.311339535,-29.54336,1.0834599999999999,8.42352,69.0
1774822814.1571584,0.00461125373840332,2026-03-29T22:20:14.157,2026-03-29T18:20:14.157,-32837.49,-46149.345,-85470.525,-49920.435,-12089.789999999999,-17326.215,6879.465,-49686.255,-4.35540736046571,-2.7859987766599508,0.7466630425299328,4.64178919947986,3.1181659534750015,2.439736322186179,1.5421526906791898,-5.605848038185747,0.957089835,-0.01562496,0.311339535,-29.54336,1.0834599999999999,8.42352,69.0
1774822814.1571803,2.193450927734375e-05,2026-03-29T22:20:14.157,2026-03-29T18:20:14.157,-32846.49,-46161.54,-85482.72,-49929.03,-12097.305,-17332.965,6877.259999999999,-49689.134999999995,-5.0292200348373886,-6.394600092947161,-5.363173453532285,1.7778836996546359,1.6145559107092606,1.4137528604903802,2.981613835840472,-4.575799580341302,0.957089835,-0.01562496,0.311339535,-29.54336,1.0834599999999999,8.42352,69.0
1774822814.1609976,0.003817319869995117,2026-03-29T22:20:14.160,2026-03-29T18:20:14.160,-32850.18,-46170.674999999996,-85494.825,-49934.744999999995,-12100.949999999999,-17342.64,6872.219999999999,-49689.54,-3.4303896053722323,-7.587047358903275,-9.526023296768907,-2.037546039633395,-0.7834067117561873,-0.4502027879062294,2.9386948560737225,-1.2446640736671306,0.957089835,-0.01562496,0.311339535,-29.54336,1.0834599999999999,8.42352,69.0
1774822814.16102,2.2411346435546875e-05,2026-03-29T22:20:14.161,2026-03-29T18:20:14.161,-32851.305,-46175.13,-85499.37,-49934.655,-12101.22,-17343.54,6871.139999999999,-49686.165,-0.4390991534793516,-5.7621478049134,-9.723717177076688,-4.962539592508737,-2.9106244375484605,-2.3032750342976684,1.4109384096277289,2.6732008359111687,0.957089835,-0.01562496,0.311339535,-29.54336,1.0834599999999999,8.42352,69.0
1774822814.1650388,0.0040187835693359375,2026-03-29T22:20:14.165,2026-03-29T18:20:14.165,-32846.49,-46170.225,-85489.47,-49926.78,-12093.39,-17329.32,6871.545,-49681.259999999995,2.5027723682903855,-1.4957940943162236,-5.567474100962349,-5.534765337256916,-3.682660345238005,-3.210572616543562,-0.8535360533775422,5.179608257260254,0.957089835,-0.01562496,0.311339535,-29.54336,1.0834599999999999,8.42352,69.0
1774822814.165059,2.0265579223632812e-05,2026-03-29T22:20:14.165,2026-03-29T18:20:14.165,-32849.82,-46164.825,-85481.055,-49918.77,-12083.039999999999,-17312.355,6875.415,-49686.03,4.08732199356042,3.6006281474452817,1.377137023985656,-3.404374934041912,-2.64724878049598,-2.620305421619379,-2.7224549414919386,5.011825529595905,0.957089835,-0.01562496,0.311339535,-29.54336,1.0834599999999999,8.42352,69.0
1774822814.1694696,0.004410505294799805,2026-03-29T22:20:14.169,2026-03-29T18:20:14.169,-32843.07,-46146.015,-85472.73,-49919.67,-12085.289999999999,-17317.845,6876.719999999999,-49687.875,3.7239844515183105,7.460716864222326,8.14455129249831,0.45846688251939116,-0.2398876344490459,-0.6804266211145781,-3.2457664122685483,2.2814064022596785,0.957089835,-0.01562496,0.311339535,-29.54336,1.0834599999999999,8.42352,69.0
1774822814.1694999,3.0279159545898438e-05,2026-03-29T22:20:14.169,2026-03-29T18:20:14.169,-32836.59,-46137.555,-85471.47,-49922.775,-12090.285,-17324.864999999998,6875.099999999999,-49689.72,1.749749723827084,8.390554047838261,11.628514075508,4.2016362057037435,2.397432057462108,1.7724780484013363,-2.1384316618560684,-1.5919102578508117,0.957089835,-0.01562496,0.311339535,-29.54336,1.0834599999999999,8.42352,69.0
1774822814.1732512,0.0037512779235839844,2026-03-29T22:20:14.173,2026-03-29T18:20:14.173,-32837.895,-46145.88,-85478.58,-49931.009999999995,-12095.505,-17331.075,6873.12,-49691.115,-0.8023627923459907,5.818250810876198,10.015878787461952,5.9785192963245155,3.9597288385656277,3.573326307303789,0.06567292505505344,-4.614106846741769,0.9484228650000001,-0.02954094,0.30383223,-26.76604,2.5484199999999997,8.667679999999999,69.0
1774822814.173273,2.193450927734375e-05,2026-03-29T22:20:14.173,2026-03-29T18:20:14.173,-32836.635,-46148.04,-85476.87,-49929.84,-12092.49,-17327.43,6875.46,-49688.549999999996,-2.7346219015301796,0.6311600071880372,3.7292108426861676,4.859413578117997,3.624945546114276,3.7829284315500233,2.2711750787105585,-5.240169942632661,0.9484228650000001,-0.02954094,0.30383223,-26.76604,2.5484199999999997,8.667679999999999,69.0
1774822814.177066,0.003793001174926758,2026-03-29T22:20:14.177,2026-03-29T18:20:14.177,-32837.49,-46149.93,-85477.905,-49927.095,-12090.51,-17325.989999999998,6877.215,-49687.47,-3.245364604723644,-5.092659176733204,-4.611789733609559,1.316368684813373,1.4821568425971918,2.1722323098145853,3.3656725625157207,-3.1621098609614746,0.9484228650000001,-0.02954094,0.30383223,-26.76604,2.5484199999999997,8.667679999999999,69.0
1774822814.1770935,2.7418136596679688e-05,2026-03-29T22:20:14.177,2026-03-29T18:20:14.177,-32836.815,-46150.47,-85480.065,-49931.235,-12093.164999999999,-17326.845,6876.945,-49687.47,-2.257161959014132,-8.902324145187286,-11.269477583389452,-2.970861613619886,-1.479369485220754,-0.6111758792384099,2.7803930121006997,0.5399741478652839,0.9484228650000001,-0.02954094,0.30383223,-26.76604,2.5484199999999997,8.667679999999999,69.0
1774822814.1812303,0.004136800765991211,2026-03-29T22:20:14.181,2026-03-29T18:20:14.181,-32837.715,-46152.854999999996,-85483.395,-49932.494999999995,-12094.064999999999,-17328.69,6875.865,-49687.155,-0.38083865706279496,-9.028244457049935,-13.070844126043864,-5.910753298713698,-3.829106734144252,-3.2993111512603392,0.7845289024039486,3.957623820176732,0.9484228650000001,-0.02954094,0.30383223,-26.76604,2.5484199999999997,8.667679999999999,69.0
1774822814.1812525,2.2172927856445312e-05,2026-03-29T22:20:14.181,2026-03-29T18:20:14.181,-32839.155,-46157.58,-85488.25499999999,-49931.46,-12093.705,-17328.239999999998,6874.38,-49686.21,1.4346715352331636,-5.217206422927927,-8.932399527624085,-6.020476176119074,-4.3879857500149075,-4.583577144434136,-1.6385508190863483,5.334580897674958,0.9484228650000001,-0.02954094,0.30383223,-26.76604,2.5484199999999997,8.667679999999999,69.0
1774822814.2018783,0.020625829696655273,2026-03-29T22:20:14.201,2026-03-29T18:20:14.201,-32837.94,-46158.659999999996,-85489.73999999999,-49933.259999999995,-12096.314999999999,-17330.489999999998,6872.49,-49687.604999999996,2.374146741818683,1.0516094728691767,-0.4883657227004897,-3.1723459145413653,-2.8183410549272234,-3.7519352162596014,-3.276221541068636,3.96482817398602,0.9484228650000001,-0.02954094,0.30383223,-26.76604,2.5484199999999997,8.667679999999999,69.0
1774822814.2018976,1.9311904907226562e-05,2026-03-29T22:20:14.201,2026-03-29T18:20:14.201,-32831.64,-46154.475,-85486.995,-49934.295,-12100.904999999999,-17336.745,6872.355,-49687.424999999996,2.1177700369836496,7.12016284123152,8.533595026394584,1.3093638434232733,0.18364800754935057,-1.0730138585999693,-3.29318111590909,0.549961955993585,0.9484228650000001,-0.02954094,0.30383223,-26.76604,2.5484199999999997,8.667679999999999,69.0
1774822814.2019155,1.7881393432617188e-05,2026-03-29T22:20:14.201,2026-03-29T18:20:14.201,-32840.955,-46161.674999999996,-85490.86499999999,-49932.765,-12100.23,-17337.69,6869.384999999999,-49696.74,0.9344855202189656,10.279909757609866,13.963326215733964,5.264790145671336,3.198767441688855,2.2761756174751473,-1.6562147397500844,-3.1634167160504276,0.9484228650000001,-0.02954094,0.30383223,-26.76604,2.5484199999999997,8.667679999999999,69.0
1774822814.201923,7.3909759521484375e-06,2026-03-29T22:20:14.201,2026-03-29T18:20:14.201,-32846.715,-46164.509999999995,-85486.14,-49920.795,-12090.195,-17327.385,6868.304999999999,-49705.695,-0.5096201954863335,8.995807660855192,13.132239862745887,6.740662569003364,4.758902998441533,4.72896431265125,0.8384036011274606,-5.277326344612069,0.9484228650000001,-0.02954094,0.30383223,-26.76604,2.5484199999999997,8.667679999999999,69.0
1774822814.2019312,8.344650268554688e-06,2026-03-29T22:20:14.201,2026-03-29T18:20:14.201,-32848.02,-46164.96,-85486.36499999999,-49914.72,-12086.595,-17324.145,6870.42,-49712.085,-1.5084561288473324,3.665701809760592,6.196141133750085,4.954298645031744,4.062545860418558,5.064855300023213,2.953275651301196,-4.709005356886368,0.946713885,-0.04174794,0.30126876,-20.47892,4.303319999999999,8.0115,69.0
1774822814.2019377,6.4373016357421875e-06,2026-03-29T22:20:14.201,2026-03-29T18:20:14.201,-32845.545,-46168.11,-85500.45,-49924.259999999995,-12094.695,-17331.03,6870.87,-49713.39,-1.652783125598012,-3.46645660905507,-3.8243732881043657,0.7032491777849069,1.3823628172564344,3.0154580485145543,3.624022353876797,-1.738810804929385,0.946713885,-0.04174794,0.30126876,-20.47892,4.303319999999999,8.0115,69.0
1774822814.2019455,7.867813110351562e-06,2026-03-29T22:20:14.201,2026-03-29T18:20:14.201,-32836.815,-46170.494999999995,-85513.31999999999,-49931.28,-12097.439999999999,-17333.73,6870.96,-49706.369999999995,-0.9894153166883328,-9.252180183997474,-12.360861640432857,-3.9920802716557064,-2.0409100243004867,-0.5598579520994204,2.4940745235444832,2.135667111081254,0.946713885,-0.04174794,0.30126876,-20.47892,4.303319999999999,8.0115,69.0
1774822814.201952,6.4373016357421875e-06,2026-03-29T22:20:14.201,2026-03-29T18:20:14.201,-32826.24,-46163.564999999995,-85509.495,-49939.965,-12104.189999999999,-17337.51,6867.63,-49699.755,0.05408000875297698,-11.041790484593111,-15.396798749580817,-6.852118775621784,-4.577115780581279,-4.03358810712208,0.10164457419573686,4.960310574131371,0.946713885,-0.04174794,0.30126876,-20.47892,4.303319999999999,8.0115,69.0
1774822814.205954,0.004002094268798828,2026-03-29T22:20:14.205,2026-03-29T18:20:14.205,-32826.24,-46154.25,-85488.03,-49936.185,-12098.564999999999,-17331.66,6866.865,-49702.365,0.918462131585677,-7.917632296387413,-11.376797682822195,-6.446548792137681,-4.985833645273718,-5.754974212585092,-2.3781944748721,5.310828934553569,0.946713885,-0.04174794,0.30126876,-20.47892,4.303319999999999,8.0115,69.0
1774822814.2059736,1.9550323486328125e-05,2026-03-29T22:20:14.205,2026-03-29T18:20:14.205,-32832.945,-46149.345,-85481.81999999999,-49944.6,-12102.164999999999,-17336.43,6870.195,-49717.665,1.1982222101479916,-1.1739459446445821,-2.008318774080824,-2.907115353523535,-3.0220876834232913,-4.837397862036614,-3.7119762489060477,3.005831806032303,0.946713885,-0.04174794,0.30126876,-20.47892,4.303319999999999,8.0115,69.0
1774822814.2059865,1.2874603271484375e-05,2026-03-29T22:20:14.205,2026-03-29T18:20:14.205,-32838.525,-46145.025,-85468.14,-49933.395,-12094.875,-17329.68,6876.855,-49734.494999999995,0.8225635377457144,6.211013216597751,8.459752254133807,2.109976306934381,0.42698586817276846,-1.6113440921216649,-3.2213951920246156,-0.8089109703103292,0.946713885,-0.04174794,0.30126876,-20.47892,4.303319999999999,8.0115,69.0
1774822814.2059927,6.198883056640625e-06,2026-03-29T22:20:14.205,2026-03-29T18:20:14.205,-32830.02,-46145.52,-85468.905,-49926.24,-12096.18,-17334.09,6875.46,-49731.84,0.055504332714851126,10.900102745543771,15.17930428556411,6.204649821326134,3.747475974256436,2.487131611652705,-1.1265965477297055,-4.240223785148916,0.946713885,-0.04174794,0.30126876,-20.47892,4.303319999999999,8.0115,69.0
1774822814.2123652,0.0063724517822265625,2026-03-29T22:20:14.212,2026-03-29T18:20:14.212,-32831.729999999996,-46148.31,-85473.855,-49926.42,-12094.154999999999,-17331.975,6874.245,-49732.74,-0.6670349007619257,10.72536551594512,14.970843607099411,7.385944197143264,5.358576190729137,5.559267273452233,1.5539486004412644,-5.593499637885566,0.946713885,-0.04174794,0.30126876,-20.47892,4.303319999999999,8.0115,69.0
1774822814.212384,1.8835067749023438e-05,2026-03-29T22:20:14.212,2026-03-29T18:20:14.212,-32835.96,-46142.82,-85464.36,-49918.994999999995,-12087.09,-17324.73,6873.795,-49737.555,-0.9689890692539479,5.7097398173195195,7.845158124113392,5.040869507089293,4.466935046903769,6.128411260102211,3.5008056209840523,-4.2089750504903956,0.946713885,-0.04174794,0.30126876,-20.47892,4.303319999999999,8.0115,69.0
1774822814.2146523,0.0022683143615722656,2026-03-29T22:20:14.214,2026-03-29T18:20:14.214,-32839.83,-46149.795,-85473.36,-49920.93,-12086.324999999999,-17323.155,6872.8949999999995,-49740.884999999995,-0.7166935275954975,-1.9080861492134455,-2.957823251812034,0.24668613089163974,1.4545389330958314,3.8521601035358137,3.744276195368098,-0.7753159264857071,0.945126975,-0.035095125,0.29760666,-24.812759999999997,3.64714,7.08064,69.0
1774822814.214673,2.0742416381835938e-05,2026-03-29T22:20:14.214,2026-03-29T18:20:14.214,-32831.685,-46172.744999999995,-85510.305,-49932.18,-12095.685,-17332.155,6870.24,-49728.689999999995,-0.06859748593187623,-8.677775085730627,-12.453771420554675,-4.730670677650972,-2.28847336395437,-0.2827391727226558,2.146895181237315,3.0252075802023923,0.945126975,-0.035095125,0.29760666,-24.812759999999997,3.64714,7.08064,69.0
1774822814.218814,0.0041408538818359375,2026-03-29T22:20:14.218,2026-03-29T18:20:14.218,-32826.015,-46184.58,-85524.03,-49932.765,-12097.08,-17335.079999999998,6868.575,-49719.375,0.620936340941992,-11.517636630620597,-16.236364508339037,-7.515448096934245,-5.011030882651188,-4.38997653220279,-0.5222451655463598,5.352179435238786,0.945126975,-0.035095125,0.29760666,-24.812759999999997,3.64714,7.08064,69.0
1774822814.2188284,1.4543533325195312e-05,2026-03-29T22:20:14.218,2026-03-29T18:20:14.218,-32829.479999999996,-46193.58,-85524.885,-49943.52,-12105.18,-17344.755,6863.94,-49719.24,0.9868820787024726,-9.138826983705249,-12.544232824542053,-6.760742835216318,-5.424355747316952,-6.549984141083045,-2.960396926100903,5.103113805539687,0.945126975,-0.035095125,0.29760666,-24.812759999999997,3.64714,7.08064,69.0
1774822814.2251644,0.0063359737396240234,2026-03-29T22:20:14.225,2026-03-29T18:20:14.225,-32843.52,-46179.63,-85494.465,-49926.825,-12090.465,-17332.605,6859.889999999999,-49734.945,0.8339638518473071,-2.645063340775425,-3.091972003251565,-2.7986488641352842,-3.312263980332401,-5.712534752096811,-3.969314079622685,2.4313676773727453,0.945126975,-0.035095125,0.29760666,-24.812759999999997,3.64714,7.08064,69.0
1774822814.2251832,1.8835067749023438e-05,2026-03-29T22:20:14.225,2026-03-29T18:20:14.225,-32857.29,-46138.275,-85445.415,-49893.39,-12063.824999999999,-17305.47,6869.88,-49763.115,0.2278144444819411,4.978125165510766,7.732205183686001,2.5118755534036348,0.3606374593160026,-2.208776410897714,-3.044998504079912,-1.35552179374412,0.945126975,-0.035095125,0.29760666,-24.812759999999997,3.64714,7.08064,69.0
1774822814.2251992,1.5974044799804688e-05,2026-03-29T22:20:14.225,2026-03-29T18:20:14.225,-32833.44,-46119.015,-85442.48999999999,-49903.244999999995,-12078.99,-17321.04,6865.695,-49754.34,-0.5406054637005168,10.248641821885442,14.923880757622975,6.667007768147704,3.8951745766242807,2.3776231633252713,-0.6283397652715484,-4.449436864588518,0.945126975,-0.035095125,0.29760666,-24.812759999999997,3.64714,7.08064,69.0
1774822814.2252066,7.3909759521484375e-06,2026-03-29T22:20:14.225,2026-03-29T18:20:14.225,-32828.22,-46128.869999999995,-85453.47,-49912.155,-12082.59,-17319.285,6872.13,-49746.195,-1.095074112780559,10.798580408615836,15.200573748364954,7.706980072025071,5.649181949820373,5.931307370501432,2.107561967629856,-5.414565983314518,0.945126975,-0.035095125,0.29760666,-24.812759999999997,3.64714,7.08064,69.0
1774822814.2316265,0.0064198970794677734,2026-03-29T22:20:14.231,2026-03-29T18:20:14.231,-32837.715,-46149.84,-85472.595,-49926.555,-12093.84,-17321.67,6882.075,-49744.439999999995,-1.1512050604140882,6.455619915675338,8.516332913062833,5.14330248165808,4.803169724233665,6.787730710197768,3.82972843258002,-3.8537526255261114,0.945126975,-0.035095125,0.29760666,-24.812759999999997,3.64714,7.08064,69.0
1774822814.2316463,1.9788742065429688e-05,2026-03-29T22:20:14.231,2026-03-29T18:20:14.231,-32843.97,-46170.494999999995,-85499.55,-49946.625,-12109.365,-17336.565,6879.509999999999,-49743.585,-0.6503571698233894,-0.7072568497947201,-1.954165525747942,0.1839190106457707,1.741896255759381,4.517957009784737,3.696768153453153,-0.5591024164531708,0.945126975,-0.035095125,0.29760666,-24.812759999999997,3.64714,7.08064,69.0
1774822814.2316656,1.9311904907226562e-05,2026-03-29T22:20:14.231,2026-03-29T18:20:14.231,-32849.145,-46179.854999999996,-85511.34,-49943.744999999995,-12105.945,-17338.77,6876.36,-49744.799999999996,0.20782829949947249,-7.366122679157726,-11.33769256018483,-4.845765750379106,-2.1251915848558856,0.1434478723960931,1.7701768998492713,2.902308177515666,0.942929715,-0.024230895,0.29138109,-33.877199999999995,0.79352,5.6767199999999995,69.0
1774822814.2316768,1.1205673217773438e-05,2026-03-29T22:20:14.231,2026-03-29T18:20:14.231,-32849.729999999996,-46165.905,-85497.165,-49932.045,-12100.005,-17335.845,6872.04,-49750.965,1.0475402543449095,-10.504837040052243,-15.354198908185756,-7.604222075282376,-5.018738411489983,-4.326756081713297,-1.0156813322883893,4.946161195005795,0.942929715,-0.024230895,0.29138109,-33.877199999999995,0.79352,5.6767199999999995,69.0
1774822814.2395685,0.007891654968261719,2026-03-29T22:20:14.239,2026-03-29T18:20:14.239,-32843.07,-46155.689999999995,-85491.495,-49927.68,-12096.99,-17339.309999999998,6869.295,-49754.655,1.4785514478166981,-8.799236158071404,-12.28910567787175,-6.830863621928723,-5.612689844916543,-6.8254033041792415,-3.309499134252607,4.700123104969607,0.942929715,-0.024230895,0.29138109,-33.877199999999995,0.79352,5.6767199999999995,69.0
1774822814.2395873,1.8835067749023438e-05,2026-03-29T22:20:14.239,2026-03-29T18:20:14.239,-32843.655,-46169.325,-85507.56,-49942.305,-12112.244999999999,-17360.82,6860.565,-49756.86,1.2698172831987644,-3.1828057704372803,-3.727492930175732,-2.9214832902548045,-3.643166855740444,-6.190069733393464,-4.0011233470478995,2.3672070147600475,0.942929715,-0.024230895,0.29138109,-33.877199999999995,0.79352,5.6767199999999995,69.0
1774822814.23963,4.267692565917969e-05,2026-03-29T22:20:14.239,2026-03-29T18:20:14.239,-32846.445,-46166.22,-85498.155,-49937.895,-12109.365,-17364.42,6854.94,-49760.009999999995,0.46159714520073936,3.6514151952292866,6.26537298323486,2.2804548086653376,-0.023042366741936052,-2.7081015678738507,-2.7601508710154823,-0.9227131187693984,0.942929715,-0.024230895,0.29138109,-33.877199999999995,0.79352,5.6767199999999995,69.0
1774822814.2396412,1.1205673217773438e-05,2026-03-29T22:20:14.239,2026-03-29T18:20:14.239,-32841.225,-46159.335,-85491.765,-49938.255,-12098.16,-17337.555,6869.295,-49756.005,-0.6339528315216889,8.551085869194532,13.093399968197753,6.364611057986374,3.586122903837635,2.0138695150706547,-0.19318112312654348,-3.67249475736117,0.942929715,-0.024230895,0.29138109,-33.877199999999995,0.79352,5.6767199999999995,69.0
1774822814.2464645,0.006823301315307617,2026-03-29T22:20:14.246,2026-03-29T18:20:14.246,-32835.104999999996,-46150.515,-85481.81999999999,-49936.455,-12095.189999999999,-17317.755,6880.95,-49750.83,-1.5501499029544905,9.374567865204748,13.765124313967034,7.480769307674306,5.541908944935462,5.796380312145982,2.454753635311772,-4.705935412286047,0.942929715,-0.024230895,0.29138109,-33.877199999999995,0.79352,5.6767199999999995,69.0
1774822814.2464907,2.6226043701171875e-05,2026-03-29T22:20:14.246,2026-03-29T18:20:14.246,-32835.96,-46154.205,-85484.7,-49935.6,-12100.185,-17325.675,6876.134999999999,-49750.92,-1.8592159825423216,5.937404793799123,8.212662816421592,5.180458050826467,4.9716177096418654,6.900478110938509,3.9066327703110058,-3.6652293592864145,0.942929715,-0.024230895,0.29138109,-33.877199999999995,0.79352,5.6767199999999995,69.0
1774822814.2495513,0.003060579299926758,2026-03-29T22:20:14.249,2026-03-29T18:20:14.249,-32834.655,-46154.52,-85485.51,-49931.729999999996,-12098.475,-17332.065,6871.23,-49750.47,-1.3649717182610004,0.011833684257480936,-0.7915138112770315,0.5887599695163671,2.1613647183145552,4.833503722265175,3.471184370847862,-1.1109472789917378,0.942929715,-0.024230895,0.29138109,-33.877199999999995,0.79352,5.6767199999999995,69.0
1774822814.2495768,2.5510787963867188e-05,2026-03-29T22:20:14.249,2026-03-29T18:20:14.249,-32831.28,-46148.445,-85477.59,-49924.665,-12093.119999999999,-17328.6,6871.7699999999995,-49749.615,-0.2114482106226994,-5.582310924840595,-9.026632123236084,-4.154641897483681,-1.5894647156929014,0.5711121298138913,1.3723051854549881,1.7859500236620562,0.942929715,-0.024230895,0.29138109,-33.877199999999995,0.79352,5.6767199999999995,69.0
1774822814.253956,0.0043792724609375,2026-03-29T22:20:14.253,2026-03-29T18:20:14.253,-32830.65,-46155.96,-85495.14,-49938.75,-12103.154999999999,-17337.915,6872.4,-49750.695,1.1482757478265304,-8.330155424039233,-12.821906640305196,-6.904038025443214,-4.573654370164161,-3.9055178219348345,-1.366811277717991,3.7889985002625513,0.94347903,-0.027343680000000002,0.287291745,-39.920159999999996,0.48832,1.6785999999999999,69.0
1774822814.2539687,1.2636184692382812e-05,2026-03-29T22:20:14.253,2026-03-29T18:20:14.253,-32826.735,-46163.475,-85513.95,-49957.244999999995,-12119.939999999999,-17354.34,6861.915,-49753.17,2.1239626585667017,-7.163698062008943,-10.705586095410357,-6.48541296329938,-5.457485968766197,-6.536734082814962,-3.4244386512592855,4.120883657684739,0.94347903,-0.027343680000000002,0.287291745,-39.920159999999996,0.48832,1.6785999999999999,69.0
1774822814.2571652,0.0031964778900146484,2026-03-29T22:20:14.257,2026-03-29T18:20:14.257,-32820.165,-46161.585,-85513.23,-49959.99,-12121.83,-17358.84,6853.995,-49752.18,2.239690947554403,-2.8689562255833856,-3.9576900179509673,-3.1946268503896658,-3.8786830636181557,-6.139151752410877,-3.819914824599611,2.747577873776281,0.94347903,-0.027343680000000002,0.287291745,-39.920159999999996,0.48832,1.6785999999999999,69.0
1774822814.257184,1.8835067749023438e-05,2026-03-29T22:20:14.257,2026-03-29T18:20:14.257,-32831.64,-46156.68,-85490.325,-49937.67,-12102.345,-17343.18,6858.54,-49764.915,1.3606982949270128,2.392473410621947,4.130731038480429,1.393518283032882,-0.5922692066551003,-2.942336781443918,-2.381753549339251,0.32943735066674457,0.94347903,-0.027343680000000002,0.287291745,-39.920159999999996,0.48832,1.6785999999999999,69.0
1774822814.2679567,0.010772705078125,2026-03-29T22:20:14.267,2026-03-29T18:20:14.267,-32847.705,-46154.924999999996,-85470.75,-49914.405,-12086.865,-17328.645,6877.71,-49785.119999999995,-0.21031010203260408,6.171589449102245,9.87499137948942,5.188692927921556,2.8928737487330927,1.53794999868902,0.17937290391099547,-2.103112056907534,0.94347903,-0.027343680000000002,0.287291745,-39.920159999999996,0.48832,1.6785999999999999,69.0
1774822814.267974,1.71661376953125e-05,2026-03-29T22:20:14.267,2026-03-29T18:20:14.267,-32842.08,-46153.53,-85472.955,-49915.755,-12089.564999999999,-17331.795,6878.115,-49785.705,-1.8265279598851194,6.881334143571619,10.89020815056583,6.546786455626865,5.010914555272343,5.22188305090822,2.622869659775016,-3.5871520784791335,0.94347903,-0.027343680000000002,0.287291745,-39.920159999999996,0.48832,1.6785999999999999,69.0
1774822814.2679927,1.8835067749023438e-05,2026-03-29T22:20:14.267,2026-03-29T18:20:14.267,-32835.015,-46154.61,-85487.4,-49925.34,-12094.244999999999,-17335.079999999998,6873.389999999999,-49783.86,-2.758646848737531,4.462986069906581,7.075356210606271,4.983379424059368,4.8459566951658,6.437447972797653,3.7804547742726236,-3.593707492580008,0.94347903,-0.027343680000000002,0.287291745,-39.920159999999996,0.48832,1.6785999999999999,69.0
1774822814.2680016,8.821487426757812e-06,2026-03-29T22:20:14.268,2026-03-29T18:20:14.268,-32834.924999999996,-46158.119999999995,-85499.595,-49938.21,-12098.205,-17337.329999999998,6870.014999999999,-49787.145,-2.5220800257340903,0.2898202724479251,0.48539479850426576,1.3290640674317307,2.5285054712413357,4.685041237722289,3.1153917828681914,-2.193045304377584,0.94347903,-0.027343680000000002,0.287291745,-39.920159999999996,0.48832,1.6785999999999999,69.0
1774822814.2680116,1.0013580322265625e-05,2026-03-29T22:20:14.268,2026-03-29T18:20:14.268,-32828.445,-46156.95,-85504.095,-49952.475,-12102.66,-17340.48,6868.755,-49786.515,-1.1241914792688037,-3.589960170367342,-5.765548266073206,-2.7119878220268125,-0.8501125135283786,0.8425928616744327,0.9708168840789316,0.016843651124702475,0.94347903,-0.027343680000000002,0.287291745,-39.920159999999996,0.48832,1.6785999999999999,69.0
1774822814.268018,6.4373016357421875e-06,2026-03-29T22:20:14.268,2026-03-29T18:20:14.268,-32826.78,-46159.424999999996,-85500.94499999999,-49953.689999999995,-12108.779999999999,-17346.96,6866.1449999999995,-49789.439999999995,0.8930262569295992,-5.461553994921985,-8.988357051764526,-5.365942173112555,-3.754038598581913,-3.2727907522481465,-1.6072463807556863,2.1647136790254993,0.94347903,-0.027343680000000002,0.287291745,-39.920159999999996,0.48832,1.6785999999999999,69.0
1774822814.2748487,0.006830692291259766,2026-03-29T22:20:14.274,2026-03-29T18:20:14.274,-32827.994999999995,-46154.07,-85477.59,-49927.455,-12095.055,-17334.945,6868.349999999999,-49794.705,2.656082974494472,-4.704890045409215,-8.07724845230554,-5.572620232448624,-4.90480805827381,-5.768224088363595,-3.3807317688282383,3.436070305412035,0.94445559,-0.044860725000000004,0.282775155,-42.68222,-0.41202,0.6714399999999999,69.0
1774822814.2748773,2.86102294921875e-05,2026-03-29T22:20:14.274,2026-03-29T18:20:14.274,-32836.545,-46151.595,-85470.705,-49913.775,-12082.365,-17323.875,6877.71,-49811.625,3.337428997621353,-1.9691344129128336,-3.842831305848995,-3.400471525345923,-3.8466950455036453,-5.551342028753085,-3.5143288531180046,3.3624197752691725,0.94445559,-0.044860725000000004,0.282775155,-42.68222,-0.41202,0.6714399999999999,69.0
1774822814.2771184,0.0022411346435546875,2026-03-29T22:20:14.277,2026-03-29T18:20:14.277,-32827.994999999995,-46150.875,-85480.47,-49925.34,-12097.89,-17341.2,6876.855,-49810.994999999995,2.5450342940160335,1.2684010445463547,1.5502874728335354,0.06414322939922423,-1.124525771031392,-2.8112743849204085,-1.9683813672408397,1.9798118979072519,0.94445559,-0.044860725000000004,0.282775155,-42.68222,-0.41202,0.6714399999999999,69.0
1774822814.2771325,1.4066696166992188e-05,2026-03-29T22:20:14.277,2026-03-29T18:20:14.277,-32830.11,-46158.659999999996,-85489.875,-49934.07,-12103.425,-17343.36,6872.175,-49813.155,0.5402378494535327,3.4877034518120706,5.689866928106646,3.2637172276377027,1.9939955271838758,1.1087006062647424,0.49450874528181615,-0.1877595378906269,0.94445559,-0.044860725000000004,0.282775155,-42.68222,-0.41202,0.6714399999999999,69.0
1774822814.2817204,0.004587888717651367,2026-03-29T22:20:14.281,2026-03-29T18:20:14.281,-32829.165,-46161.945,-85501.395,-49942.71,-12106.439999999999,-17345.565,6870.6449999999995,-49818.689999999995,-1.8347199970303258,3.842575055704134,7.000814170858262,4.876103519422437,4.111204511428545,4.369733735397234,2.685846036817839,-2.313090000254055,0.94445559,-0.044860725000000004,0.282775155,-42.68222,-0.41202,0.6714399999999999,69.0
1774822814.2817512,3.075599670410156e-05,2026-03-29T22:20:14.281,2026-03-29T18:20:14.281,-32823.63,-46163.025,-85507.245,-49946.67,-12105.99,-17346.105,6868.304999999999,-49821.57,-3.50901842172536,2.4688434232241816,5.31796904421338,4.357771035893675,4.329442748424402,5.50411811015669,3.564589908631755,-3.5627168563216864,0.94445559,-0.044860725000000004,0.282775155,-42.68222,-0.41202,0.6714399999999999,69.0
1774822814.2871964,0.005445241928100586,2026-03-29T22:20:14.287,2026-03-29T18:20:14.287,-32825.655,-46164.104999999996,-85505.67,-49943.564999999995,-12098.115,-17337.645,6871.275,-49827.33,-3.6694189785350413,0.28038832030075567,1.7544426040146917,2.1027535848298875,2.63271060627685,4.079709089133704,2.730917949683413,-3.4116682215749394,0.94445559,-0.044860725000000004,0.282775155,-42.68222,-0.41202,0.6714399999999999,69.0
1774822814.2872193,2.288818359375e-05,2026-03-29T22:20:14.287,2026-03-29T18:20:14.287,-32844.78,-46163.34,-85489.785,-49927.229999999996,-12080.115,-17318.385,6876.45,-49851.494999999995,-2.1582249574505616,-1.585510282763591,-1.9742315949588425,-0.8133049631831418,-0.1427200861674954,0.8595297452006432,0.6066581292453711,-1.8647597192680965,0.94445559,-0.044860725000000004,0.282775155,-42.68222,-0.41202,0.6714399999999999,69.0
1774822814.2915556,0.004336357116699219,2026-03-29T22:20:14.291,2026-03-29T18:20:14.291,-32836.005,-46157.759999999995,-85487.12999999999,-49931.369999999995,-12092.13,-17331.795,6876.45,-49855.725,0.41310599522882596,-2.3536389280962013,-4.379354095485627,-3.1502465852474892,-2.7192392031211203,-2.5995173859191243,-1.7781403035555001,0.5092230204057372,0.94445559,-0.044860725000000004,0.282775155,-42.68222,-0.41202,0.6714399999999999,69.0
1774822814.291583,2.7418136596679688e-05,2026-03-29T22:20:14.291,2026-03-29T18:20:14.291,-32825.07,-46153.395,-85481.86499999999,-49936.814999999995,-12102.255,-17341.47,6875.099999999999,-49853.159999999996,2.907578469571894,-1.9276020306445374,-4.779480217281446,-4.031703256570421,-3.9691350648747346,-4.700440580805354,-3.284407759049672,2.7666787819621432,0.94445559,-0.044860725000000004,0.282775155,-42.68222,-0.41202,0.6714399999999999,69.0
1774822814.2916071,2.4080276489257812e-05,2026-03-29T22:20:14.291,2026-03-29T18:20:14.291,-32816.115,-46149.345,-85480.605,-49940.055,-12109.23,-17349.614999999998,6871.1849999999995,-49848.525,4.169013149671493,-0.8112849682455835,-3.413968917310629,-3.259711302422781,-3.4113104843959974,-4.546838969612865,-3.2071425434826324,3.952255235610133,0.94762941,-0.04846179,0.27868581,-44.69654,-0.03052,-4.303319999999999,69.0
1774822814.2916186,1.1444091796875e-05,2026-03-29T22:20:14.291,2026-03-29T18:20:14.291,-32818.185,-46156.455,-85484.745,-49933.935,-12099.465,-17337.239999999998,6875.775,-49847.22,3.564235642146072,0.26960032721732635,-1.1327267967880907,-1.3111269795517115,-1.3932676732614804,-2.3253355477362128,-1.6039007674094554,3.503662173284668,0.94762941,-0.04846179,0.27868581,-44.69654,-0.03052,-4.303319999999999,69.0
1774822814.2977867,0.0061681270599365234,2026-03-29T22:20:14.297,2026-03-29T18:20:14.297,-32818.86,-46161.72,-85490.235,-49937.354999999996,-12100.41,-17335.485,6873.4349999999995,-49844.43,1.304000080484417,0.8012569691164885,1.0995270133845647,0.9388479107394428,1.1089544592094471,0.833306026749077,0.743607100020339,1.5266303082452115,0.94762941,-0.04846179,0.27868581,-44.69654,-0.03052,-4.303319999999999,69.0
1774822814.2978094,2.2649765014648438e-05,2026-03-29T22:20:14.297,2026-03-29T18:20:14.297,-32844.825,-46168.695,-85492.08,-49932.494999999995,-12091.814999999999,-17328.96,6871.545,-49870.665,-1.6214321231339786,0.7237217165781678,2.6066576792289995,2.6121097245242346,2.963112974935818,3.4259158450950578,2.710722912969908,-1.198312867647232,0.94762941,-0.04846179,0.27868581,-44.69654,-0.03052,-4.303319999999999,69.0
1774822814.3046148,0.006805419921875,2026-03-29T22:20:14.304,2026-03-29T18:20:14.304,-32852.475,-46161.0,-85480.47,-49924.35,-12086.145,-17326.755,6875.1449999999995,-49893.84,-3.8785572234408066,0.367948249635655,3.146420884378427,3.1628197886512144,3.396768193366176,4.293719491117261,3.3678990320712017,-3.5109454285437836,0.94762941,-0.04846179,0.27868581,-44.69654,-0.03052,-4.303319999999999,69.0
1774822814.3046415,2.6702880859375e-05,2026-03-29T22:20:14.304,2026-03-29T18:20:14.304,-32844.24,-46164.015,-85491.495,-49939.155,-12103.244999999999,-17345.61,6868.259999999999,-49892.67,-4.405658374698766,0.16156182533973695,2.8102407288547857,2.528976917832426,2.320137083450454,3.1415317136958554,2.418519595802114,-4.364991448785777,0.94762941,-0.04846179,0.27868581,-44.69654,-0.03052,-4.303319999999999,69.0
1774822814.3145115,0.009870052337646484,2026-03-29T22:20:14.314,2026-03-29T18:20:14.314,-32842.44,-46170.27,-85493.79,-49934.79,-12099.779999999999,-17342.37,6873.21,-49892.22,-2.919694089304951,0.30743179881115656,1.8239837654805058,1.0755275854927095,0.3201842200989924,0.6260704844554116,0.3309250070108167,-3.310738516364982,0.94762941,-0.04846179,0.27868581,-44.69654,-0.03052,-4.303319999999999,69.0
1774822814.3145256,1.4066696166992188e-05,2026-03-29T22:20:14.314,2026-03-29T18:20:14.314,-32838.39,-46171.935,-85486.31999999999,-49925.475,-12093.93,-17337.105,6873.57,-49890.78,-0.0696416030192769,0.6423668289803142,0.4146545567980979,-0.6064653068671239,-1.6510486805748115,-2.005336588329737,-1.8932093117930553,-0.7394598365587933,0.94762941,-0.04846179,0.27868581,-44.69654,-0.03052,-4.303319999999999,69.0
1774822814.3145373,1.1682510375976562e-05,2026-03-29T22:20:14.314,2026-03-29T18:20:14.314,-32833.17,-46175.22,-85494.42,-49934.475,-12096.314999999999,-17330.805,6873.705,-49884.299999999996,2.847231817024245,0.7624577477852277,-1.183940738513747,-1.9376637290766876,-2.731501814454373,-3.531416865360073,-3.19940432572245,2.24598087807591,0.94762941,-0.04846179,0.27868581,-44.69654,-0.03052,-4.303319999999999,69.0
1774822814.3145413,4.0531158447265625e-06,2026-03-29T22:20:14.314,2026-03-29T18:20:14.314,-32827.049999999996,-46178.28,-85516.83,-49949.775,-12106.395,-17337.645,6874.74,-49879.125,4.482169226387225,0.33127611661020734,-2.6434018433484936,-2.53142686027133,-2.529171525425113,-3.324575885649754,-2.9793734198113135,4.302238195384073,0.94762941,-0.04846179,0.27868581,-44.69654,-0.03052,-4.303319999999999,69.0
1774822814.3145463,5.0067901611328125e-06,2026-03-29T22:20:14.314,2026-03-29T18:20:14.314,-32814.9,-46169.595,-85534.155,-49965.03,-12122.595,-17358.704999999998,6865.74,-49875.84,4.067347638785389,-0.6310959093742264,-3.5043180221332983,-2.2729082091137993,-1.2580223210261903,-1.6051008354110765,-1.3527648036869742,4.458345622427651,0.94689699,-0.04919421,0.273741975,-48.80148,-3.3571999999999997,-9.6901,69.0
1774822814.3145506,4.291534423828125e-06,2026-03-29T22:20:14.314,2026-03-29T18:20:14.314,-32831.01,-46166.85,-85509.045,-49941.81,-12098.789999999999,-17339.355,6867.8099999999995,-49898.744999999995,1.7833522307142775,-1.6757210971056393,-3.2951135209014657,-1.3034709220868235,0.414088934081084,0.7189201081899824,0.8982004221633635,2.5865906874602946,0.94689699,-0.04919421,0.273741975,-48.80148,-3.3571999999999997,-9.6901,69.0
1774822814.3175743,0.0030236244201660156,2026-03-29T22:20:14.317,2026-03-29T18:20:14.317,-32838.165,-46163.655,-85470.84,-49915.485,-12072.914999999999,-17315.64,6874.605,-49912.515,-1.3172724623798668,-2.1400423002024485,-1.791801570420763,0.05286422291791552,1.7115740957299188,2.524433327711234,2.705618413976137,-0.5026980643468503,0.94689699,-0.04919421,0.273741975,-48.80148,-3.3571999999999997,-9.6901,69.0
1774822814.317594,1.9788742065429688e-05,2026-03-29T22:20:14.317,2026-03-29T18:20:14.317,-32846.13,-46172.564999999995,-85481.86499999999,-49922.955,-12084.3,-17325.045,6872.715,-49910.85,-3.799202195462232,-1.5448833210123136,0.7248580633208883,1.3842980484632341,2.113651903166907,3.0151653014755175,3.2225232224361515,-3.4079255154197425,0.94689699,-0.04919421,0.273741975,-48.80148,-3.3571999999999997,-9.6901,69.0
1774822814.3214188,0.0038247108459472656,2026-03-29T22:20:14.321,2026-03-29T18:20:14.321,-32848.065,-46165.68,-85498.69499999999,-49931.1,-12096.135,-17339.489999999998,6870.0599999999995,-49915.395,-4.516935431987952,0.05614812552140114,3.4080865348731466,2.288377565330155,1.5623577189222377,2.0710500668693586,2.2189312438085986,-4.778471636366308,0.94689699,-0.04919421,0.273741975,-48.80148,-3.3571999999999997,-9.6901,69.0
1774822814.3214414,2.2649765014648438e-05,2026-03-29T22:20:14.321,2026-03-29T18:20:14.321,-32835.555,-46156.365,-85496.175,-49936.365,-12102.615,-17345.34,6870.735,-49915.665,-3.1518196171045463,1.9985475068201497,5.097010082837586,2.4672660195473526,0.4332408976029048,0.25278614541205857,0.1824277322422916,-3.954960440240368,0.94689699,-0.04919421,0.273741975,-48.80148,-3.3571999999999997,-9.6901,69.0
1774822814.3255625,0.004121065139770508,2026-03-29T22:20:14.325,2026-03-29T18:20:14.325,-32835.78,-46155.645,-85495.77,-49941.674999999996,-12106.89,-17351.954999999998,6867.945,-49920.03,-0.35789335397463395,3.2843155042848826,4.827068462289198,1.815928555672765,-0.6929710243667591,-1.5161073632498554,-1.9199751012496036,-1.2980992878657025,0.94689699,-0.04919421,0.273741975,-48.80148,-3.3571999999999997,-9.6901,69.0
1774822814.325584,2.1457672119140625e-05,2026-03-29T22:20:14.325,2026-03-29T18:20:14.325,-32836.5,-46149.884999999995,-85491.18,-49949.505,-12110.67,-17357.309999999998,6865.0199999999995,-49928.04,2.552239045330905,3.0980434822359975,2.3700437291961762,0.4826754445190527,-1.3270365109529667,-2.414619917822997,-3.102055789176343,1.9630079213358984,0.94689699,-0.04919421,0.273741975,-48.80148,-3.3571999999999997,-9.6901,69.0
1774822814.3367438,0.011159896850585938,2026-03-29T22:20:14.336,2026-03-29T18:20:14.336,-32832.36,-46149.299999999996,-85495.095,-49955.354999999996,-12107.52,-17351.145,6868.08,-49926.104999999996,4.230097746522656,1.2936213998108204,-1.49432850092404,-1.1324435528891503,-1.285194588915668,-2.1036939899385136,-2.821289838570358,4.302726198975929,0.94689699,-0.04919421,0.273741975,-48.80148,-3.3571999999999997,-9.6901,69.0
1774822814.3367608,1.6927719116210938e-05,2026-03-29T22:20:14.336,2026-03-29T18:20:14.336,-32821.965,-46138.545,-85482.72,-49950.45,-12101.265,-17336.114999999998,6876.134999999999,-49920.255,3.924288822548345,-1.4280907443307003,-5.179657360165705,-2.470343248927748,-0.7259573933912181,-0.8449548755076348,-1.2270068930835734,4.6231288990163915,0.94689699,-0.04919421,0.273741975,-48.80148,-3.3571999999999997,-9.6901,69.0
1774822814.3367815,2.0742416381835938e-05,2026-03-29T22:20:14.336,2026-03-29T18:20:14.336,-32816.565,-46138.365,-85478.265,-49948.29,-12104.505,-17337.42,6877.575,-49916.88,1.8228384557449409,-3.7853045808933494,-6.945686853620451,-2.9934137906117275,-0.013973312595271804,0.6772699490448257,0.9194716901791463,2.7816763449266317,0.954404295,-0.064025715,0.27319266000000003,-50.266439999999996,-7.3248,-13.734,69.0
1774822814.3367865,5.0067901611328125e-06,2026-03-29T22:20:14.336,2026-03-29T18:20:14.336,-32814.72,-46149.659999999996,-85491.315,-49952.52,-12112.109999999999,-17350.829999999998,6874.605,-49916.744999999995,-1.0537895228334182,-4.527277606773253,-5.732698599450138,-2.4027823903385253,0.49735674810936165,1.7205450572195544,2.610158185582446,-0.33713403803949793,0.954404295,-0.064025715,0.27319266000000003,-50.266439999999996,-7.3248,-13.734,69.0
1774822814.336792,5.4836273193359375e-06,2026-03-29T22:20:14.336,2026-03-29T18:20:14.336,-32809.545,-46146.33,-85486.275,-49949.505,-12115.755,-17360.235,6876.63,-49917.104999999996,-3.3506525694647737,-3.0962208462674035,-1.7716558334569144,-0.8036787987896107,0.6411121612142251,1.8439168926742688,3.0652766236489404,-3.245874911781127,0.954404295,-0.064025715,0.27319266000000003,-50.266439999999996,-7.3248,-13.734,69.0
1774822814.3367956,3.5762786865234375e-06,2026-03-29T22:20:14.336,2026-03-29T18:20:14.336,-32821.244999999995,-46155.96,-85490.64,-49954.814999999995,-12122.955,-17364.87,6871.05,-49927.005,-4.022922433136275,0.010187446485890674,3.3717424021474742,1.2706314111172348,0.48282958179865815,1.089137314043789,2.0933143929178843,-4.570706365273284,0.954404295,-0.064025715,0.27319266000000003,-50.266439999999996,-7.3248,-13.734,69.0
1774822814.341457,0.0046613216400146484,2026-03-29T22:20:14.341,2026-03-29T18:20:14.341,-32835.284999999996,-46158.435,-85482.27,-49935.33,-12097.17,-17332.425,6871.23,-49944.33,-2.817387327642911,3.3944824551627732,7.40902691983933,3.0190476975136327,0.2299446771255132,-0.08823318880384327,0.16969793766335137,-3.7115171340309057,0.954404295,-0.064025715,0.27319266000000003,-50.266439999999996,-7.3248,-13.734,69.0
1774822814.3414783,2.1457672119140625e-05,2026-03-29T22:20:14.341,2026-03-29T18:20:14.341,-32829.299999999996,-46156.095,-85480.11,-49929.884999999995,-12091.32,-17328.69,6870.87,-49945.095,-0.366045687626526,5.395251201158764,8.36107218508221,3.679221912241386,0.07437532867380015,-1.081090506731071,-1.797389577012421,-1.1230692727000715,0.954404295,-0.064025715,0.27319266000000003,-50.266439999999996,-7.3248,-13.734,69.0
1774822814.345592,0.004113674163818359,2026-03-29T22:20:14.345,2026-03-29T18:20:14.345,-32822.28,-46157.895,-85487.31,-49935.78,-12103.605,-17350.829999999998,6864.03,-49939.2,2.141784734879479,4.910287820847973,5.5380293991511005,2.8644746468334126,0.06969611974772504,-1.4399164759462446,-2.898227941526498,1.9190704427476777,0.954404295,-0.064025715,0.27319266000000003,-50.266439999999996,-7.3248,-13.734,69.0
1774822814.345614,2.193450927734375e-05,2026-03-29T22:20:14.345,2026-03-29T18:20:14.345,-32834.115,-46163.564999999995,-85492.26,-49929.75,-12095.414999999999,-17348.399999999998,6860.655,-49950.045,3.5397273456724814,1.996015200485038,-0.02223304371304766,0.7800380342685458,0.11563039807248462,-1.072702402634913,-2.6440673736701528,3.949540728542678,0.954404295,-0.064025715,0.27319266000000003,-50.266439999999996,-7.3248,-13.734,69.0
1774822814.3514533,0.005839347839355469,2026-03-29T22:20:14.351,2026-03-29T18:20:14.351,-32829.479999999996,-46161.314999999995,-85497.075,-49927.634999999995,-12089.205,-17339.625,6864.929999999999,-49951.575,3.232149543952102,-2.0794750496930585,-5.917444092737492,-1.7986896362705374,0.05257413514263876,-0.24838396481109132,-1.1838209731463945,4.027401716006099,0.954404295,-0.064025715,0.27319266000000003,-50.266439999999996,-7.3248,-13.734,69.0
1774822814.351466,1.2636184692382812e-05,2026-03-29T22:20:14.351,2026-03-29T18:20:14.351,-32823.99,-46162.125,-85505.985,-49938.165,-12096.99,-17345.295,6867.495,-49951.215,1.44966998618253,-5.391793605711103,-9.429023003164543,-3.8072186763048914,-0.200352721878352,0.5773822039965929,0.7811268451682872,2.181274642163459,0.954404295,-0.064025715,0.27319266000000003,-50.266439999999996,-7.3248,-13.734,69.0
1774822814.3576226,0.0061566829681396484,2026-03-29T22:20:14.357,2026-03-29T18:20:14.357,-32826.6,-46163.744999999995,-85507.65,-49949.145,-12104.1,-17344.665,6873.57,-49959.0,-0.8980133316591516,-6.278910430299416,-8.792442335514817,-4.334332700963744,-0.5578367807353358,1.0084312848074444,2.3363592224975482,-0.6296105522953064,0.968564415,-0.082214145,0.272521275,-47.6875,-10.8346,-15.702539999999999,69.0
1774822814.357636,1.33514404296875e-05,2026-03-29T22:20:14.357,2026-03-29T18:20:14.357,-32823.585,-46152.494999999995,-85488.75,-49944.509999999995,-12098.115,-17331.93,6886.71,-49966.2,-2.6848715588894634,-4.180012545481595,-4.088591879392133,-3.0404735974149184,-0.7952131085419246,0.8953086299879253,2.7828553545745947,-3.0102409722079946,0.968564415,-0.082214145,0.272521275,-47.6875,-10.8346,-15.702539999999999,69.0
1774822814.357655,1.9073486328125e-05,2026-03-29T22:20:14.357,2026-03-29T18:20:14.357,-32815.619999999995,-46147.905,-85482.27,-49942.395,-12098.564999999999,-17332.11,6888.0599999999995,-49963.77,-3.111730555786749,0.030730162030955906,2.6958470800327934,-0.35793502073532013,-0.6824323724028841,0.3761220025548231,1.9523597732366798,-3.8261502708793103,0.968564415,-0.082214145,0.272521275,-47.6875,-10.8346,-15.702539999999999,69.0
1774822814.357659,4.0531158447265625e-06,2026-03-29T22:20:14.357,2026-03-29T18:20:14.357,-32809.905,-46141.38,-85467.555,-49933.034999999996,-12098.564999999999,-17335.845,6881.445,-49960.619999999995,-2.06626270931352,4.406651495111879,8.511952079347445,2.639274899650365,-0.1480819483818933,-0.23239468417828307,0.26675465786855806,-2.751381419322147,0.968564415,-0.082214145,0.272521275,-47.6875,-10.8346,-15.702539999999999,69.0
1774822814.361658,0.003998994827270508,2026-03-29T22:20:14.361,2026-03-29T18:20:14.361,-32809.32,-46143.63,-85468.905,-49932.314999999995,-12101.355,-17338.095,6878.295,-49955.715,-0.1364232990241763,6.837743086704952,10.635389387648031,4.665218484197665,0.6302977049330976,-0.6197775676479226,-1.4772301105388792,-0.3997517250366936,0.968564415,-0.082214145,0.272521275,-47.6875,-10.8346,-15.702539999999999,69.0
1774822814.3616738,1.5735626220703125e-05,2026-03-29T22:20:14.361,2026-03-29T18:20:14.361,-32812.604999999996,-46152.405,-85482.675,-49940.009999999995,-12104.369999999999,-17339.265,6872.804999999999,-49955.22,1.7110771938455227,6.07757107619127,7.957866929569237,4.779607494554298,1.278418687351181,-0.6378797865994567,-2.4878671501680554,2.0141827193972683,0.968564415,-0.082214145,0.272521275,-47.6875,-10.8346,-15.702539999999999,69.0
1774822814.3652391,0.0035653114318847656,2026-03-29T22:20:14.365,2026-03-29T18:20:14.365,-32816.565,-46166.085,-85501.44,-49953.015,-12112.605,-17348.22,6869.565,-49957.74,2.614504262797937,2.3840796459392872,1.5643237878064753,2.828793536193474,1.4090219826772683,-0.35047649693246286,-2.340308634451426,3.300972947453366,0.968564415,-0.082214145,0.272521275,-47.6875,-10.8346,-15.702539999999999,69.0
1774822814.3652475,8.344650268554688e-06,2026-03-29T22:20:14.365,2026-03-29T18:20:14.365,-32827.275,-46176.57,-85505.58,-49948.11,-12104.279999999999,-17341.649999999998,6872.3099999999995,-49967.415,2.22090080901766,-2.555588159947356,-5.7038147462999005,-0.4384862562992889,0.8455665920520894,0.03565730531295733,-1.1538846949822998,2.886425222406078,0.968564415,-0.082214145,0.272521275,-47.6875,-10.8346,-15.702539999999999,69.0
1774822814.370818,0.005570411682128906,2026-03-29T22:20:14.370,2026-03-29T18:20:14.370,-32846.22,-46181.835,-85495.635,-49930.064999999995,-12086.369999999999,-17324.73,6880.005,-49991.13,0.8198192268618943,-6.40227389627148,-10.524758485732235,-3.654109368675096,-0.24032271806738018,0.30519211327411255,0.48854056724580797,1.0710051027099927,0.968564415,-0.082214145,0.272521275,-47.6875,-10.8346,-15.702539999999999,69.0
1774822814.3708332,1.52587890625e-05,2026-03-29T22:20:14.370,2026-03-29T18:20:14.370,-32846.445,-46177.11,-85496.44499999999,-49934.744999999995,-12095.64,-17334.989999999998,6875.235,-49997.205,-0.8411900047594919,-7.282852858401083,-10.632338683336794,-5.407689961768691,-1.3683941244660542,0.35180979541322255,1.8292060603346239,-1.1603882711745002,0.968564415,-0.082214145,0.272521275,-47.6875,-10.8346,-15.702539999999999,69.0
1774822814.3740213,0.0031881332397460938,2026-03-29T22:20:14.374,2026-03-29T18:20:14.374,-32837.22,-46158.884999999995,-85492.17,-49935.6,-12101.085,-17343.315,6869.835,-49997.79,-1.9497423513653618,-4.710177107281391,-5.893620269758528,-4.872485069991846,-1.9662516915044836,0.21568514582502848,2.288199429911501,-2.6656400899633015,0.98156487,-0.09326148000000001,0.264830865,-44.39134,-17.6253,-20.49418,69.0
1774822814.3740468,2.5510787963867188e-05,2026-03-29T22:20:14.374,2026-03-29T18:20:14.374,-32825.7,-46148.715,-85485.915,-49935.915,-12104.865,-17346.645,6867.315,-49995.494999999995,-2.025612427829967,0.15005696822574316,1.5894156437567528,-2.199147855926049,-1.66341104176975,0.030477681676336174,1.7146235353625885,-2.7296659889939074,0.98156487,-0.09326148000000001,0.264830865,-44.39134,-17.6253,-20.49418,69.0
1774822814.3775232,0.003476381301879883,2026-03-29T22:20:14.377,2026-03-29T18:20:14.377,-32822.415,-46150.515,-85488.48,-49934.205,-12098.16,-17341.245,6868.844999999999,-49989.195,-1.1275508475914364,5.010227269608002,8.420350001236267,1.5117708148664009,-0.5105922345038938,-0.0768896675852072,0.4272355943782933,-1.4064066707088312,0.98156487,-0.09326148000000001,0.264830865,-44.39134,-17.6253,-20.49418,69.0
1774822814.3775408,1.7642974853515625e-05,2026-03-29T22:20:14.377,2026-03-29T18:20:14.377,-32826.015,-46155.015,-85494.15,-49943.34,-12105.99,-17351.325,6863.625,-49991.445,0.21839818187035137,7.546261675573858,11.466188417915577,4.66442632570739,1.0017104025542258,-0.06678910843330264,-0.960284014878288,0.5462991679674002,0.98156487,-0.09326148000000001,0.264830865,-44.39134,-17.6253,-20.49418,69.0
1774822814.3815858,0.004045009613037109,2026-03-29T22:20:14.381,2026-03-29T18:20:14.381,-32822.775,-46150.38,-85484.34,-49942.215,-12111.074999999999,-17358.39,6861.105,-49992.57,1.3144705608759717,6.518688747101714,9.310651980531528,5.861019438090844,2.154104001019558,0.0009022482156066587,-1.8346530148812146,2.0892343589449998,0.98156487,-0.09326148000000001,0.264830865,-44.39134,-17.6253,-20.49418,69.0
