unix_time_s,dt_s,UTC,LOCAL,EMG1_Raw,EMG2_Raw,EMG3_Raw,EMG4_Raw,EMG5_Raw,EMG6_Raw,EMG7_Raw,EMG8_Raw,EMG1_Filtered,EMG2_Filtered,EMG3_Filtered,EMG4_Filtered,EMG5_Filtered,EMG6_Filtered,EMG7_Filtered,EMG8_Filtered,Accel1_Raw,Accel2_Raw,Accel3_Raw,Gyro1_Raw,Gyro2_Raw,Gyro3_Raw,Battery
1774822845.3194163,,2026-03-29T22:20:45.319,2026-03-29T18:20:45.319,-32401.98,-46165.095,-85664.79,-50191.02,-12182.715,-17459.864999999998,6843.42,-53534.655,-0.2969547002928605,-0.4337078825679243,-0.8974658541669935,-1.3942740659348825,-0.6548844412050345,-0.42869760784145006,-0.3525987652826561,-0.20015143710729127,0.60046233,-0.481138905,0.65978835,-4.68482,1.49548,-3.5098,69.0
1774822845.3194275,1.1205673217773438e-05,2026-03-29T22:20:45.319,2026-03-29T18:20:45.319,-32420.204999999998,-46168.47,-85655.295,-50170.545,-12161.564999999999,-17439.03,6839.054999999999,-53546.985,-5.34274672638525,-1.3538811828030308,-3.349893738299384,-2.6211599948304007,0.838571254156392,0.6645969313395601,-0.9175156875558934,-2.710782555201058,0.60046233,-0.481138905,0.65978835,-4.68482,1.49548,-3.5098,69.0
1774822845.323531,0.004103422164916992,2026-03-29T22:20:45.323,2026-03-29T18:20:45.323,-32439.105,-46169.369999999995,-85651.73999999999,-50162.715,-12152.43,-17433.18,6846.84,-53564.715,-8.039587328500913,-1.3724977021612048,-3.799634685462836,-2.4233502215120284,2.094196330128302,1.6147343549415234,-0.9329572431844363,-4.177109854426781,0.60046233,-0.481138905,0.65978835,-4.68482,1.49548,-3.5098,69.0
1774822845.3235478,1.6927719116210938e-05,2026-03-29T22:20:45.323,2026-03-29T18:20:45.323,-32448.149999999998,-46160.729999999996,-85635.54,-50158.17,-12155.939999999999,-17446.454999999998,6859.844999999999,-53583.659999999996,-7.314167234650326,-0.4620975460326945,-1.921707549777517,-0.7547628703879573,2.658628858293042,2.049740166719268,-0.33443130223086875,-4.1252511344095915,0.60046233,-0.481138905,0.65978835,-4.68482,1.49548,-3.5098,69.0
1774822845.3359644,0.012416601181030273,2026-03-29T22:20:45.335,2026-03-29T18:20:45.335,-32451.12,-46166.939999999995,-85636.215,-50160.104999999996,-12159.675,-17462.43,6865.83,-53591.265,-3.5623607579571197,0.82689744756295,1.2481149972814842,1.5821361390984223,2.2743316397772757,1.727929147594694,0.5725778742999369,-2.606760553475068,0.60046233,-0.481138905,0.65978835,-4.68482,1.49548,-3.5098,69.0
1774822845.3359895,2.5033950805664062e-05,2026-03-29T22:20:45.335,2026-03-29T18:20:45.335,-32445.765,-46165.814999999995,-85632.93,-50150.97,-12148.289999999999,-17450.055,6859.98,-53586.18,1.564632124007654,1.6865900444710482,3.8816372178999656,3.3286567525193145,0.9967403211047919,0.6650628120804968,1.2668086318849034,-0.16362758170009684,0.60046233,-0.481138905,0.65978835,-4.68482,1.49548,-3.5098,69.0
1774822845.33601,2.0503997802734375e-05,2026-03-29T22:20:45.336,2026-03-29T18:20:45.336,-32433.12,-46156.545,-85631.4,-50150.52,-12147.795,-17434.215,6853.59,-53577.54,5.895815563221581,1.533240477031757,4.389907311282183,3.443218530396069,-0.7755125090005228,-0.8118658834656852,1.3006511942445458,2.35189617714309,0.59765472,-0.4797351,0.660459735,-5.234179999999999,0.48832,-4.2270199999999996,69.0
1774822845.3360171,7.152557373046875e-06,2026-03-29T22:20:45.336,2026-03-29T18:20:45.336,-32424.704999999998,-46143.27,-85620.555,-50145.795,-12138.119999999999,-17410.635,6866.009999999999,-53574.704999999994,7.665787731534067,0.37172498936043213,2.344413275502885,1.697172580087778,-2.3971468010574015,-2.1372640565699585,0.567588573755563,4.051055885053755,0.59765472,-0.4797351,0.660459735,-5.234179999999999,0.48832,-4.2270199999999996,69.0
1774822845.336027,9.775161743164062e-06,2026-03-29T22:20:45.336,2026-03-29T18:20:45.336,-32424.3,-46144.89,-85616.09999999999,-50137.244999999995,-12123.675,-17391.239999999998,6871.545,-53570.07,6.232805251776755,-1.1744239937060266,-1.2335185969810287,-1.1393927732600742,-3.19590934785178,-2.710465003263025,-0.6054228319891736,4.3027040726988,0.59765472,-0.4797351,0.660459735,-5.234179999999999,0.48832,-4.2270199999999996,69.0
1774822845.3360333,6.4373016357421875e-06,2026-03-29T22:20:45.336,2026-03-29T18:20:45.336,-32439.285,-46167.84,-85643.73,-50149.215,-12135.105,-17397.72,6865.514999999999,-53575.92,2.298694082813529,-2.1976156915257548,-4.393418968287974,-3.645647236142435,-2.7503819473808524,-2.165339810928054,-1.6042451198810215,2.96253615831991,0.59765472,-0.4797351,0.660459735,-5.234179999999999,0.48832,-4.2270199999999996,69.0
1774822845.3411167,0.005083322525024414,2026-03-29T22:20:45.341,2026-03-29T18:20:45.341,-32434.875,-46160.009999999995,-85652.91,-50155.155,-12138.66,-17401.995,6866.46,-53575.064999999995,-2.4369112196978677,-2.02617960115075,-5.31696573032422,-4.4711177507704125,-1.1121617434792712,-0.5867997274285002,-1.8469480006328816,0.457102498083431,0.59765472,-0.4797351,0.660459735,-5.234179999999999,0.48832,-4.2270199999999996,69.0
1774822845.341145,2.8371810913085938e-05,2026-03-29T22:20:45.341,2026-03-29T18:20:45.341,-32427.945,-46153.575,-85654.845,-50157.225,-12139.289999999999,-17409.465,6864.929999999999,-53568.765,-6.016544399674271,-0.6368290351825411,-3.3435169996926284,-3.0602520711473478,1.1443826121062532,1.4479011398420545,-1.1109334648937488,-2.326359912549801,0.59765472,-0.4797351,0.660459735,-5.234179999999999,0.48832,-4.2270199999999996,69.0
1774822845.341169,2.4080276489257812e-05,2026-03-29T22:20:45.341,2026-03-29T18:20:45.341,-32430.195,-46155.645,-85655.295,-50168.34,-12147.93,-17423.91,6862.365,-53573.22,-7.0342889060722,1.283932424695675,0.6108825347532452,0.007278714307695023,3.103484464625233,3.0614286809409457,0.31198279828910674,-4.333474763902796,0.59765472,-0.4797351,0.660459735,-5.234179999999999,0.48832,-4.2270199999999996,69.0
1774822845.34118,1.0967254638671875e-05,2026-03-29T22:20:45.341,2026-03-29T18:20:45.341,-32429.43,-46154.159999999996,-85641.12,-50174.955,-12150.585,-17423.28,6865.5599999999995,-53574.21,-5.180227235613288,2.6834128908155988,4.491384271321621,3.2592147470643233,3.8763960875294585,3.450540303657731,1.729387950360349,-4.735176970738429,0.59765472,-0.4797351,0.660459735,-5.234179999999999,0.48832,-4.2270199999999996,69.0
1774822845.3461635,0.004983425140380859,2026-03-29T22:20:45.346,2026-03-29T18:20:45.346,-32422.949999999997,-46147.32,-85623.795,-50171.939999999995,-12157.74,-17428.68,6865.83,-53568.36,-1.3138418932701565,2.7176237928401425,6.184439693700666,5.053028958717909,3.0110943895088695,2.2854774214413625,2.387783550057417,-3.2769766353893344,0.59765472,-0.4797351,0.660459735,-5.234179999999999,0.48832,-4.2270199999999996,69.0
1774822845.3461905,2.6941299438476562e-05,2026-03-29T22:20:45.346,2026-03-29T18:20:45.346,-32415.03,-46142.595,-85612.41,-50157.63,-12160.08,-17437.68,6863.535,-53563.59,2.936354333274277,1.2446052902580322,4.6678534383665005,4.417234913333132,0.7518117622282953,-0.06344881997587483,1.870186712896491,-0.4344874398154727,0.59765472,-0.4797351,0.660459735,-5.234179999999999,0.48832,-4.2270199999999996,69.0
1774822845.351458,0.005267620086669922,2026-03-29T22:20:45.351,2026-03-29T18:20:45.351,-32406.704999999998,-46143.18,-85616.235,-50156.595,-12164.76,-17446.995,6856.83,-53554.454999999994,5.859361631719072,-1.0460742397771436,0.605758165300613,1.5760932571359962,-1.99833130337384,-2.6136864415854832,0.34305566371792645,2.717206625083489,0.59667816,-0.48046752,0.662168715,-5.43256,-0.59514,-1.8617199999999998,69.0
1774822845.3514705,1.239776611328125e-05,2026-03-29T22:20:45.351,2026-03-29T18:20:45.351,-32398.335,-46163.205,-85653.675,-50183.46,-12184.965,-17465.489999999998,6851.16,-53536.994999999995,6.345003781400308,-2.9602339206139514,-3.9499850525554323,-2.1254159522891425,-4.031702917158772,-4.174022408075328,-1.488122088313358,4.900909134180016,0.59667816,-0.48046752,0.662168715,-5.43256,-0.59514,-1.8617199999999998,69.0
1774822845.3542802,0.002809762954711914,2026-03-29T22:20:45.354,2026-03-29T18:20:45.354,-32396.265,-46176.345,-85674.465,-50192.369999999995,-12190.68,-17472.239999999998,6844.905,-53527.68,4.294640406955829,-3.42559580079825,-6.614195494251013,-4.874255603440156,-4.372929976267427,-3.9029912631584907,-2.708928705447107,5.1599118884671,0.59667816,-0.48046752,0.662168715,-5.43256,-0.59514,-1.8617199999999998,69.0
1774822845.3543022,2.193450927734375e-05,2026-03-29T22:20:45.354,2026-03-29T18:20:45.354,-32420.385,-46174.455,-85652.28,-50166.09,-12168.63,-17456.22,6835.995,-53547.39,0.6139683910500413,-2.0877359093445955,-5.9296796575341295,-5.296557465667474,-2.7569587045298056,-1.7599754161860048,-2.655485524000097,3.289530364886053,0.59667816,-0.48046752,0.662168715,-5.43256,-0.59514,-1.8617199999999998,69.0
1774822845.3617752,0.007472991943359375,2026-03-29T22:20:45.361,2026-03-29T18:20:45.361,-32445.449999999997,-46154.924999999996,-85624.92,-50144.49,-12140.01,-17428.274999999998,6853.32,-53585.729999999996,-3.1860159818484894,0.45347253373439417,-2.163890370745919,-3.157722006311438,0.18997304961571423,1.3914043972618122,-1.271159414078189,-0.02279885343747954,0.59667816,-0.48046752,0.662168715,-5.43256,-0.59514,-1.8617199999999998,69.0
1774822845.361788,1.2874603271484375e-05,2026-03-29T22:20:45.361,2026-03-29T18:20:45.361,-32433.164999999997,-46136.205,-85614.25499999999,-50152.86,-12147.84,-17435.88,6855.66,-53588.744999999995,-5.604598133505603,2.9141139355068106,2.7940538259703334,0.5069475119866438,3.181687132525909,4.118893199371069,0.8295981934374148,-3.437694825527613,0.59667816,-0.48046752,0.662168715,-5.43256,-0.59514,-1.8617199999999998,69.0
1774822845.3618076,1.9550323486328125e-05,2026-03-29T22:20:45.361,2026-03-29T18:20:45.361,-32426.504999999997,-46138.59,-85601.06999999999,-50141.88,-12152.43,-17438.04,6854.8949999999995,-53580.15,-5.735706289247381,3.9807608558732483,6.3972809666382195,3.90428182583394,4.837604656194222,5.073682461877621,2.6375960242729306,-5.507869199563682,0.59667816,-0.48046752,0.662168715,-5.43256,-0.59514,-1.8617199999999998,69.0
1774822845.3618152,7.62939453125e-06,2026-03-29T22:20:45.361,2026-03-29T18:20:45.361,-32449.364999999998,-46147.68,-85591.305,-50117.534999999996,-12132.404999999999,-17416.079999999998,6856.83,-53601.93,-3.598682589925256,3.013071438518921,6.767586959311369,5.380717382317203,4.332459751618018,3.6622395145335296,3.239499757778767,-5.303973949677205,0.59667816,-0.48046752,0.662168715,-5.43256,-0.59514,-1.8617199999999998,69.0
1774822845.3663433,0.004528045654296875,2026-03-29T22:20:45.366,2026-03-29T18:20:45.366,-32449.545,-46152.945,-85608.495,-50117.445,-12130.965,-17420.489999999998,6856.92,-53606.79,-0.09992210300894508,0.4182991701403441,3.6866256204312706,4.248138275445439,1.819140053319597,0.4015490239224649,2.281636706769313,-2.845693811032152,0.59667816,-0.48046752,0.662168715,-5.43256,-0.59514,-1.8617199999999998,69.0
1774822845.3663557,1.239776611328125e-05,2026-03-29T22:20:45.366,2026-03-29T18:20:45.366,-32432.085,-46171.799999999996,-85662.94499999999,-50148.765,-12146.67,-17430.12,6859.71,-53586.765,3.346173917234914,-2.5169539928438054,-1.2755169464757208,1.11696148098616,-1.596366688154067,-3.249243341186599,0.170406710025831,0.8680056084684439,0.59667816,-0.48046752,0.662168715,-5.43256,-0.59514,-1.8617199999999998,69.0
1774822845.3703265,0.0039708614349365234,2026-03-29T22:20:45.370,2026-03-29T18:20:45.370,-32413.905,-46173.33,-85672.665,-50168.744999999995,-12150.72,-17427.465,6849.585,-53566.92,5.381510904420307,-4.269781236675648,-5.569313815005569,-2.430516953901314,-4.341845971357806,-5.540205405175951,-2.1016784331253993,4.2639858840087905,0.5961898800000001,-0.48303099,0.66393873,-1.9075,-0.65618,0.56462,69.0
1774822845.370355,2.8371810913085938e-05,2026-03-29T22:20:45.370,2026-03-29T18:20:45.370,-32417.954999999998,-46173.24,-85650.97499999999,-50172.57,-12155.49,-17430.39,6851.115,-53562.78,5.233420728036072,-3.8749089257170333,-6.991751156413318,-4.65310601907339,-5.113808640616981,-5.2757920515117,-3.4291588709857743,5.8717597681007465,0.5961898800000001,-0.48303099,0.66393873,-1.9075,-0.65618,0.56462,69.0
1774822845.3761015,0.005746603012084961,2026-03-29T22:20:45.376,2026-03-29T18:20:45.376,-32439.51,-46156.725,-85621.905,-50155.74,-12141.18,-17414.325,6860.745,-53579.115,3.0063148647964826,-1.4540989024898048,-4.833399209758527,-4.527555514219851,-3.5123251641012345,-2.443205914826777,-3.137481530420022,4.975931001504124,0.5961898800000001,-0.48303099,0.66393873,-1.9075,-0.65618,0.56462,69.0
1774822845.3761196,1.811981201171875e-05,2026-03-29T22:20:45.376,2026-03-29T18:20:45.376,-32437.035,-46129.814999999995,-85612.77,-50160.645,-12152.385,-17424.0,6862.1849999999995,-53584.29,-0.37331624320315066,1.8079062137642392,-0.2431253493937624,-2.238857572917425,-0.2599134784081187,1.707706813341411,-1.3273533766332664,1.947513652921936,0.5961898800000001,-0.48303099,0.66393873,-1.9075,-0.65618,0.56462,69.0
1774822845.3791723,0.0030527114868164062,2026-03-29T22:20:45.379,2026-03-29T18:20:45.379,-32415.12,-46130.085,-85624.02,-50177.655,-12169.529999999999,-17443.845,6860.25,-53568.72,-3.5342959286328415,4.246397569939931,4.380920129865097,0.9595689632464889,3.119194402847334,5.210299858577367,1.1568948243535135,-1.9050285687795094,0.5961898800000001,-0.48303099,0.66393873,-1.9075,-0.65618,0.56462,69.0
1774822845.3791971,2.47955322265625e-05,2026-03-29T22:20:45.379,2026-03-29T18:20:45.379,-32409.27,-46138.32,-85626.94499999999,-50176.215,-12167.189999999999,-17443.53,6861.6449999999995,-53558.189999999995,-5.211621102606736,4.569817221234224,6.651651391139606,3.427888866036241,5.02004443447957,6.317965440433067,3.1269517562660245,-4.90779467738916,0.5961898800000001,-0.48303099,0.66393873,-1.9075,-0.65618,0.56462,69.0
1774822845.3828137,0.0036165714263916016,2026-03-29T22:20:45.382,2026-03-29T18:20:45.382,-32429.024999999998,-46149.84,-85628.52,-50156.775,-12148.064999999999,-17425.8,6864.4349999999995,-53573.265,-4.753050333327329,2.5440163754547362,5.439331086849047,3.995267435112389,4.534589798591587,4.3838631583649414,3.6263961672295073,-5.7634112106697275,0.5961898800000001,-0.48303099,0.66393873,-1.9075,-0.65618,0.56462,69.0
1774822845.3828387,2.5033950805664062e-05,2026-03-29T22:20:45.382,2026-03-29T18:20:45.382,-32431.41,-46158.615,-85641.93,-50164.515,-12158.414999999999,-17431.47,6866.009999999999,-53570.97,-2.378660660433889,-0.854645798335411,1.4479484590026097,2.5373317969158324,1.9028001327831332,0.237005937391564,2.4004170589910276,-4.12734304709035,0.5961898800000001,-0.48303099,0.66393873,-1.9075,-0.65618,0.56462,69.0
1774822845.3862488,0.0034101009368896484,2026-03-29T22:20:45.386,2026-03-29T18:20:45.386,-32444.19,-46159.65,-85638.645,-50164.83,-12160.529999999999,-17436.78,6865.38,-53585.729999999996,0.9134758076298956,-3.911347528993163,-3.177594976874398,-0.01840664318216751,-1.594068463177153,-4.162297075259423,0.026323395579765287,-0.7552510943546671,0.5961898800000001,-0.48303099,0.66393873,-1.9075,-0.65618,0.56462,69.0
1774822845.3862605,1.1682510375976562e-05,2026-03-29T22:20:45.386,2026-03-29T18:20:45.386,-32444.504999999997,-46156.77,-85633.02,-50159.52,-12154.005,-17438.175,6865.605,-53592.75,3.760455021697846,-5.040408622001183,-5.999040537594667,-2.2425289792704617,-4.256099680564629,-6.650977990465773,-2.3622273723762945,2.846059029271707,0.5961898800000001,-0.48303099,0.66393873,-1.9075,-0.65618,0.56462,69.0
1774822845.3905604,0.00429987907409668,2026-03-29T22:20:45.390,2026-03-29T18:20:45.390,-32438.565,-46161.854999999996,-85643.64,-50169.284999999996,-12162.105,-17446.454999999998,6850.259999999999,-53584.47,4.99941021334,-3.607913822053551,-5.574614000941553,-2.9961267325374155,-4.801319220374831,-5.9355058618172185,-3.6237920634703347,5.102792558329728,0.59655609,-0.48229857,0.665098395,0.30519999999999997,-0.763,2.35004,69.0
1774822845.3906138,5.340576171875e-05,2026-03-29T22:20:45.390,2026-03-29T18:20:45.390,-32427.989999999998,-46158.795,-85644.495,-50170.095,-12163.5,-17441.73,6841.304999999999,-53576.729999999996,4.15006022397841,-0.2825087943100832,-2.207208522778326,-2.029835206077314,-3.000405563780511,-2.272823094361643,-3.161840905800238,5.0779510935927865,0.59655609,-0.48229857,0.665098395,0.30519999999999997,-0.763,2.35004,69.0
1774822845.3945057,0.0038919448852539062,2026-03-29T22:20:45.394,2026-03-29T18:20:45.394,-32416.469999999998,-46149.165,-85635.765,-50159.43,-12150.63,-17422.649999999998,6848.6849999999995,-53569.35,1.6107020464633217,3.2772119455493676,2.2412852498384215,-0.06885645920279476,0.21193860219149563,2.601628020340679,-1.2107577746749618,2.872687000054898,0.59655609,-0.48229857,0.665098395,0.30519999999999997,-0.763,2.35004,69.0
1774822845.3945315,2.574920654296875e-05,2026-03-29T22:20:45.394,2026-03-29T18:20:45.394,-32416.02,-46152.674999999996,-85637.655,-50158.215,-12145.814999999999,-17415.045,6869.655,-53562.96,-1.5183020660391644,5.251629974059968,5.363098868222615,1.6480603826315916,3.2103183609950032,6.293752879542714,1.2837442601491516,-0.45278841905158607,0.59655609,-0.48229857,0.665098395,0.30519999999999997,-0.763,2.35004,69.0
1774822845.4015584,0.0070269107818603516,2026-03-29T22:20:45.401,2026-03-29T18:20:45.401,-32435.504999999997,-46158.255,-85629.87,-50147.865,-12135.689999999999,-17409.42,6872.085,-53577.494999999995,-3.910271460942386,4.589564991493376,5.499154548253283,2.1046771509707196,4.501475949484893,6.932703257693451,3.1284982902407905,-3.390877200655273,0.59655609,-0.48229857,0.665098395,0.30519999999999997,-0.763,2.35004,69.0
1774822845.4016056,4.7206878662109375e-05,2026-03-29T22:20:45.401,2026-03-29T18:20:45.401,-32440.454999999998,-46161.134999999995,-85634.01,-50149.305,-12138.48,-17412.704999999998,6862.634999999999,-53584.155,-4.582367523161059,1.5633755158713343,2.6221102994320113,1.0967204188614637,3.479902776032016,4.128889681095969,3.461111470568234,-4.682972665081964,0.59655609,-0.48229857,0.665098395,0.30519999999999997,-0.763,2.35004,69.0
1774822845.4016497,4.410743713378906e-05,2026-03-29T22:20:45.401,2026-03-29T18:20:45.401,-32447.204999999998,-46161.765,-85635.0,-50144.265,-12134.34,-17414.055,6851.16,-53594.1,-3.311342833909477,-2.3414333678899086,-1.6621858898488613,-0.6616732043147214,0.7291160567970184,-0.7864648389442789,2.158987432642841,-3.873163014381329,0.59655609,-0.48229857,0.665098395,0.30519999999999997,-0.763,2.35004,69.0
1774822845.4016676,1.7881393432617188e-05,2026-03-29T22:20:45.401,2026-03-29T18:20:45.401,-32439.465,-46155.195,-85627.17,-50137.29,-12131.189999999999,-17409.239999999998,6856.965,-53589.78,-0.7124852300615834,-5.157659729777322,-4.991937933545361,-1.976175091398521,-2.2887357912561104,-5.3865455779458165,-0.11751357748995082,-1.4687471595708341,0.59655609,-0.48229857,0.665098395,0.30519999999999997,-0.763,2.35004,69.0
1774822845.4063537,0.004686117172241211,2026-03-29T22:20:45.406,2026-03-29T18:20:45.406,-32425.965,-46151.865,-85628.87999999999,-50144.805,-12140.865,-17416.44,6865.83,-53574.479999999996,2.0507759928851224,-5.426949236203699,-5.532110010214392,-1.904560314482075,-3.9974527333455163,-7.348740268696047,-2.261790995994036,1.3495693093719592,0.59655609,-0.48229857,0.665098395,0.30519999999999997,-0.763,2.35004,69.0
1774822845.4063735,1.9788742065429688e-05,2026-03-29T22:20:45.406,2026-03-29T18:20:45.406,-32417.82,-46153.215,-85640.625,-50167.17,-12162.06,-17436.195,6865.0199999999995,-53565.165,3.7927031399153255,-2.950235091325035,-2.972519708889946,-0.35783568196312643,-3.53030368758302,-5.635174122895161,-3.2651407717247807,3.310484357081093,0.59655609,-0.48229857,0.665098395,0.30519999999999997,-0.763,2.35004,69.0
1774822845.4105728,0.00419926643371582,2026-03-29T22:20:45.410,2026-03-29T18:20:45.410,-32424.614999999998,-46151.415,-85633.515,-50165.145,-12163.994999999999,-17435.97,6864.4349999999995,-53573.759999999995,3.826462058745976,1.0863141422142022,1.2965748821064473,1.7906824538679957,-1.1821166373720886,-1.050698965282443,-2.6980349516311857,3.6388821309759196,0.60119475,-0.483336165,0.66479322,3.67766,0.51884,4.63904,69.0
1774822845.4105823,9.5367431640625e-06,2026-03-29T22:20:45.410,2026-03-29T18:20:45.410,-32423.805,-46153.395,-85634.73,-50157.81,-12158.279999999999,-17434.53,6863.535,-53574.93,2.2452208625238343,4.683198096987843,4.929126415822768,3.175964000476807,1.7506113757809338,4.124764637909809,-0.8958624453712108,2.369761639002018,0.60119475,-0.483336165,0.66479322,3.67766,0.51884,4.63904,69.0
1774822845.4146101,0.004027843475341797,2026-03-29T22:20:45.414,2026-03-29T18:20:45.414,-32429.43,-46157.49,-85632.39,-50141.52,-12142.439999999999,-17422.2,6859.98,-53574.435,-0.15820298328953614,6.019184136732972,5.892293610123265,2.7452217957771854,3.6626360087058885,7.266827235976405,1.2321128034403985,0.25790396760035333,0.60119475,-0.483336165,0.66479322,3.67766,0.51884,4.63904,69.0
1774822845.4146402,3.0040740966796875e-05,2026-03-29T22:20:45.414,2026-03-29T18:20:45.414,-32446.62,-46169.955,-85637.11499999999,-50133.915,-12131.955,-17412.704999999998,6860.295,-53590.545,-2.284425924610695,4.369633571378801,3.580055416597235,0.4414477491575545,3.5035291606426604,6.740819260225211,2.6643993388148686,-1.64542521535124,0.60119475,-0.483336165,0.66479322,3.67766,0.51884,4.63904,69.0
1774822845.4186573,0.0040171146392822266,2026-03-29T22:20:45.418,2026-03-29T18:20:45.418,-32431.995,-46175.805,-85662.315,-50166.99,-12159.359999999999,-17438.13,6859.62,-53572.049999999996,-3.2398631887300855,0.4896872394996876,-0.8301743134487171,-2.6451938846094274,1.352721360266982,2.759758896778546,2.763955017718999,-2.5194993341268606,0.60119475,-0.483336165,0.66479322,3.67766,0.51884,4.63904,69.0
1774822845.4186826,2.5272369384765625e-05,2026-03-29T22:20:45.418,2026-03-29T18:20:45.418,-32431.949999999997,-46168.74,-85653.855,-50164.695,-12152.97,-17431.425,6862.32,-53573.579999999994,-2.724939897733918,-3.73650068212652,-4.979436836294488,-4.7901119822692415,-1.6077311944493824,-2.6870824438951173,1.565613752528715,-2.139089359806586,0.60119475,-0.483336165,0.66479322,3.67766,0.51884,4.63904,69.0
1774822845.4240417,0.005359172821044922,2026-03-29T22:20:45.424,2026-03-29T18:20:45.424,-32426.28,-46149.705,-85631.625,-50151.195,-12147.525,-17428.905,6863.13,-53576.865,-1.1226160400329668,-6.214646852231246,-6.578206860727789,-4.5712476050087565,-3.7203329282746176,-6.821127036386588,-0.2773799456892493,-0.9097122516075404,0.60119475,-0.483336165,0.66479322,3.67766,0.51884,4.63904,69.0
1774822845.4240763,3.457069396972656e-05,2026-03-29T22:20:45.424,2026-03-29T18:20:45.424,-32417.954999999998,-46151.505,-85641.03,-50161.5,-12160.17,-17444.565,6862.23,-53571.195,0.7375038058209733,-5.676870717094464,-4.646265439325163,-1.730158599825204,-3.754317917678754,-7.49015189832358,-1.8455267920093548,0.4168467118862295,0.60119475,-0.483336165,0.66479322,3.67766,0.51884,4.63904,69.0
1774822845.4292936,0.005217313766479492,2026-03-29T22:20:45.429,2026-03-29T18:20:45.429,-32415.12,-46153.845,-85639.545,-50164.244999999995,-12163.949999999999,-17447.04,6862.32,-53574.57,2.0063514454971063,-2.3229102893983886,-0.07808819716226285,2.5391494522232128,-1.6007366698402858,-4.291873869498552,-2.415673177927844,1.1736317104550602,0.60119475,-0.483336165,0.66479322,3.67766,0.51884,4.63904,69.0
1774822845.4293292,3.552436828613281e-05,2026-03-29T22:20:45.429,2026-03-29T18:20:45.429,-32420.475,-46147.994999999995,-85616.50499999999,-50146.47,-12152.43,-17435.204999999998,6853.905,-53574.975,2.2143553019228297,2.2554039140241207,4.780661056412893,6.088542759173165,1.6243039815777767,1.1824012875106225,-1.79973900195656,1.1181478272846073,0.60119475,-0.483336165,0.66479322,3.67766,0.51884,4.63904,69.0
1774822845.436842,0.007512807846069336,2026-03-29T22:20:45.436,2026-03-29T18:20:45.436,-32430.285,-46138.275,-85608.09,-50136.299999999996,-12137.265,-17404.739999999998,6854.264999999999,-53584.38,1.4491010130264803,5.836334675895579,7.340250255565586,6.895486283055523,4.145584399309776,6.130886708088218,-0.39850725678038207,0.505846769363117,0.60522306,-0.481138905,0.666807375,3.0672599999999997,1.0224199999999999,5.93614,69.0
1774822845.4368627,2.0742416381835938e-05,2026-03-29T22:20:45.436,2026-03-29T18:20:45.436,-32402.34,-46124.909999999996,-85607.235,-50149.755,-12155.49,-17412.84,6856.469999999999,-53559.0,0.24113538834476034,6.6487072023578095,6.134533436240842,4.181376920160977,4.481634036218057,7.969387881348597,1.0396781319674564,-0.12330713084177782,0.60522306,-0.481138905,0.666807375,3.0672599999999997,1.0224199999999999,5.93614,69.0
1774822845.4369032,4.0531158447265625e-05,2026-03-29T22:20:45.436,2026-03-29T18:20:45.436,-32401.8,-46131.435,-85618.98,-50158.215,-12160.755,-17424.36,6863.759999999999,-53553.15,-0.7597787132848421,4.243771480925738,1.631019058141453,-1.0381926703437268,2.2815852857869965,5.678531650763011,1.8164620898852197,-0.30656939917841747,0.60522306,-0.481138905,0.666807375,3.0672599999999997,1.0224199999999999,5.93614,69.0
1774822845.436912,8.821487426757812e-06,2026-03-29T22:20:45.436,2026-03-29T18:20:45.436,-32422.68,-46150.064999999995,-85637.97,-50164.83,-12161.385,-17429.265,6860.07,-53570.79,-1.1326161008457338,-0.2692046668651384,-3.954024368589061,-6.316751864952922,-1.4151613844064914,0.36852117629524667,1.6270288959549126,0.048556972175353375,0.60522306,-0.481138905,0.666807375,3.0672599999999997,1.0224199999999999,5.93614,69.0
1774822845.4369206,8.58306884765625e-06,2026-03-29T22:20:45.436,2026-03-29T18:20:45.436,-32435.64,-46149.705,-85627.89,-50146.74,-12143.52,-17415.54,6859.71,-53596.979999999996,-0.8711684599068064,-4.742846309280798,-7.759539602868201,-8.934038105789416,-4.665850939147984,-5.2508120864688355,0.6787690580028246,0.6125822146244309,0.60522306,-0.481138905,0.666807375,3.0672599999999997,1.0224199999999999,5.93614,69.0
1774822845.4369264,5.7220458984375e-06,2026-03-29T22:20:45.436,2026-03-29T18:20:45.436,-32416.289999999997,-46147.365,-85634.145,-50155.695,-12159.539999999999,-17438.579999999998,6854.49,-53580.869999999995,-0.32097124421941464,-7.01933042921945,-7.746613053715236,-7.294824239694157,-5.631864873184464,-8.245342922027868,-0.4606875819350656,0.8542454555218804,0.60522306,-0.481138905,0.666807375,3.0672599999999997,1.0224199999999999,5.93614,69.0
1774822845.443023,0.006096601486206055,2026-03-29T22:20:45.443,2026-03-29T18:20:45.443,-32416.965,-46145.835,-85618.935,-50139.045,-12152.07,-17438.67,6858.99,-53576.28,0.07790327136206757,-5.971100113719552,-3.7750622698373566,-1.8508305161685865,-3.589220275947191,-6.98207323143415,-1.1892720465402091,0.40288736497530486,0.60522306,-0.481138905,0.666807375,3.0672599999999997,1.0224199999999999,5.93614,69.0
1774822845.4430516,2.86102294921875e-05,2026-03-29T22:20:45.443,2026-03-29T18:20:45.443,-32431.59,-46145.97,-85603.275,-50114.7,-12130.289999999999,-17414.37,6872.264999999999,-53589.869999999995,0.0802721747150295,-2.0525394545042537,2.2731844950786435,4.970333575330002,0.6029493321073661,-2.01391887518255,-1.1882130282551122,-0.6656825969835384,0.60522306,-0.481138905,0.666807375,3.0672599999999997,1.0224199999999999,5.93614,69.0
1774822845.446449,0.0033974647521972656,2026-03-29T22:20:45.446,2026-03-29T18:20:45.446,-32432.579999999998,-46146.104999999996,-85602.87,-50108.4,-12124.89,-17401.68,6871.41,-53589.195,-0.21713782859257552,2.904523623442825,7.404051704908654,9.859624864394627,4.858157567686079,4.153162267156626,-0.5643358187580131,-1.8035307273665502,0.60522306,-0.481138905,0.666807375,3.0672599999999997,1.0224199999999999,5.93614,69.0
1774822845.4464748,2.574920654296875e-05,2026-03-29T22:20:45.446,2026-03-29T18:20:45.446,-32440.68,-46149.84,-85613.265,-50114.97,-12131.64,-17408.204999999998,6867.675,-53599.59,-0.45784575543996636,6.555521539193857,9.006163305305225,10.245528193198606,6.898835468239668,8.317822844020167,0.2479512042637788,-2.265367112528309,0.60522306,-0.481138905,0.666807375,3.0672599999999997,1.0224199999999999,5.93614,69.0
1774822845.46033,0.013855218887329102,2026-03-29T22:20:45.460,2026-03-29T18:20:45.460,-32448.149999999998,-46157.13,-85634.325,-50128.38,-12134.43,-17408.745,6868.9349999999995,-53609.13,-0.2852455421270576,7.155979578789845,6.178437913452276,5.639271303062398,5.4592467515697685,8.236888783739024,0.7571596216793967,-1.5483674978512638,0.611021385,-0.478087155,0.6664411650000001,-0.21364,1.9227599999999998,6.28712,69.0
1774822845.4603443,1.430511474609375e-05,2026-03-29T22:20:45.460,2026-03-29T18:20:45.460,-32437.664999999997,-46161.54,-85660.02,-50160.869999999995,-12140.01,-17406.63,6872.985,-53593.29,0.38188274938758593,4.392471109005991,0.2157376156164066,-1.9949139236368774,1.0256069880303746,3.8236337151395046,0.6991058116675983,0.24817284407744386,0.611021385,-0.478087155,0.6664411650000001,-0.21364,1.9227599999999998,6.28712,69.0
1774822845.4603648,2.0503997802734375e-05,2026-03-29T22:20:45.460,2026-03-29T18:20:45.460,-32418.719999999998,-46154.43,-85662.675,-50190.705,-12159.81,-17421.12,6873.12,-53575.38,1.236282046495386,-0.46299788917619783,-6.0017309226374,-9.083945462692865,-4.304386524267457,-2.7455430940958867,0.17541262441193786,2.3664048996191545,0.611021385,-0.478087155,0.6664411650000001,-0.21364,1.9227599999999998,6.28712,69.0
1774822845.4603696,4.76837158203125e-06,2026-03-29T22:20:45.460,2026-03-29T18:20:45.460,-32405.129999999997,-46149.255,-85645.34999999999,-50179.814999999995,-12170.34,-17438.67,6864.255,-53561.43,1.7202037422733867,-5.147618344750113,-9.418808088870328,-12.138636039093377,-7.818206166852671,-8.100990450446593,-0.42687610035196116,3.7087321323260705,0.611021385,-0.478087155,0.6664411650000001,-0.21364,1.9227599999999998,6.28712,69.0
1774822845.4603748,5.245208740234375e-06,2026-03-29T22:20:45.460,2026-03-29T18:20:45.460,-32418.989999999998,-46154.34,-85640.58,-50165.46,-12160.574999999999,-17430.93,6861.825,-53570.7,1.3545801173200223,-7.469236431939461,-8.316291498790422,-9.48390713105692,-7.566135931541684,-9.401513313148651,-0.6822601411409825,3.398571600006854,0.611021385,-0.478087155,0.6664411650000001,-0.21364,1.9227599999999998,6.28712,69.0
1774822845.460379,4.0531158447265625e-06,2026-03-29T22:20:45.460,2026-03-29T18:20:45.460,-32429.07,-46156.5,-85640.31,-50161.229999999996,-12156.345,-17426.114999999998,6861.87,-53581.005,0.07572502494357505,-6.333658091562771,-3.170855310621121,-2.162881767349622,-3.421182659536183,-5.830476521196403,-0.3938701239759808,1.299623114373507,0.611021385,-0.478087155,0.6664411650000001,-0.21364,1.9227599999999998,6.28712,69.0
1774822845.4679532,0.007574319839477539,2026-03-29T22:20:45.467,2026-03-29T18:20:45.467,-32432.715,-46154.43,-85636.215,-50154.075,-12150.314999999999,-17423.415,6858.8099999999995,-53587.575,-1.6289348865261313,-2.2558160038351187,3.564047069912849,6.46768033069772,2.7468845213348385,0.9173538564514467,0.2767310889075256,-1.7978489485161329,0.611021385,-0.478087155,0.6664411650000001,-0.21364,1.9227599999999998,6.28712,69.0
1774822845.4679737,2.0503997802734375e-05,2026-03-29T22:20:45.467,2026-03-29T18:20:45.467,-32436.315,-46153.575,-85631.12999999999,-50145.479999999996,-12143.16,-17414.19,6865.155,-53594.415,-2.8984075075550186,2.8818767738020115,8.648692578233671,12.296615092477063,7.919380466195937,7.439125757857391,0.8961374842866017,-4.464999417360432,0.611021385,-0.478087155,0.6664411650000001,-0.21364,1.9227599999999998,6.28712,69.0
1774822845.4679916,1.7881393432617188e-05,2026-03-29T22:20:45.467,2026-03-29T18:20:45.467,-32431.004999999997,-46152.765,-85633.515,-50149.979999999996,-12149.1,-17420.085,6863.625,-53585.369999999995,-2.929591229969194,6.7068212916760075,9.631937125141128,12.438774077523126,9.412274144285215,10.336971226088028,1.016897038860184,-5.2973431913357425,0.611021385,-0.478087155,0.6664411650000001,-0.21364,1.9227599999999998,6.28712,69.0
1774822845.4679992,7.62939453125e-06,2026-03-29T22:20:45.467,2026-03-29T18:20:45.467,-32442.795,-46153.17,-85635.54,-50152.5,-12144.105,-17413.29,6870.42,-53599.545,-1.447950132560513,7.456637189185499,6.037588431499497,6.672928005773148,6.263686444452733,7.979144413282813,0.46024288286933784,-3.6436095556589607,0.611021385,-0.478087155,0.6664411650000001,-0.21364,1.9227599999999998,6.28712,69.0
1774822845.4837027,0.015703439712524414,2026-03-29T22:20:45.483,2026-03-29T18:20:45.483,-32441.94,-46152.54,-85628.83499999999,-50148.27,-12140.279999999999,-17409.285,6870.42,-53597.384999999995,1.046425394702486,4.790364741942545,-0.4137992938272359,-2.383543017934831,-0.1899482968193574,1.3996606585404712,-0.543029711204983,-0.026360155175746757,0.61498866,-0.47552368500000003,0.66454908,-3.7539599999999997,3.55558,7.21798,69.0
1774822845.4837258,2.3126602172851562e-05,2026-03-29T22:20:45.483,2026-03-29T18:20:45.483,-32435.414999999997,-46154.88,-85628.16,-50151.645,-12152.385,-17427.329999999998,6859.349999999999,-53588.655,3.4265994551262033,-0.062325497674040733,-6.646606690879736,-10.477941333951756,-6.879785772331709,-6.152326178892547,-1.4464104662056825,3.994384841450368,0.61498866,-0.47552368500000003,0.66454908,-3.7539599999999997,3.55558,7.21798,69.0
1774822845.483749,2.3126602172851562e-05,2026-03-29T22:20:45.483,2026-03-29T18:20:45.483,-32427.18,-46171.395,-85665.735,-50169.555,-12165.164999999999,-17443.755,6859.9349999999995,-53582.13,4.450552832596635,-4.8762604365109645,-9.715310438993123,-13.743223905514414,-10.473992749251352,-10.818596406700106,-1.6789660557691666,6.497896054519982,0.61498866,-0.47552368500000003,0.66454908,-3.7539599999999997,3.55558,7.21798,69.0
1774822845.4837563,7.3909759521484375e-06,2026-03-29T22:20:45.483,2026-03-29T18:20:45.483,-32433.795,-46193.939999999995,-85692.015,-50180.22,-12172.14,-17448.48,6852.6449999999995,-53586.72,3.4036794965560935,-7.4577005712806725,-8.207488082531235,-10.565529909941134,-9.042690535931293,-10.098353079902353,-0.9810278898267569,6.124753136585151,0.61498866,-0.47552368500000003,0.66454908,-3.7539599999999997,3.55558,7.21798,69.0
1774822845.483765,8.58306884765625e-06,2026-03-29T22:20:45.483,2026-03-29T18:20:45.483,-32445.675,-46203.57,-85677.25499999999,-50162.534999999996,-12155.13,-17430.03,6849.315,-53595.63,0.5419351659401836,-6.646359375590896,-2.8917068600309315,-2.387748755795708,-3.0840532181247355,-4.174164374024244,0.40488690618903744,2.799795581798271,0.61498866,-0.47552368500000003,0.66454908,-3.7539599999999997,3.55558,7.21798,69.0
1774822845.483772,7.152557373046875e-06,2026-03-29T22:20:45.483,2026-03-29T18:20:45.483,-32445.539999999997,-46179.045,-85640.12999999999,-50136.345,-12132.135,-17404.965,6850.9349999999995,-53598.689999999995,-2.9226070435581466,-2.8340535154585407,3.685212307826625,6.953153638348166,4.629978480296898,4.100285907180225,1.8094711965844976,-2.1227486899486836,0.61498866,-0.47552368500000003,0.66454908,-3.7539599999999997,3.55558,7.21798,69.0
1774822845.4837804,8.344650268554688e-06,2026-03-29T22:20:45.483,2026-03-29T18:20:45.483,-32440.14,-46145.564999999995,-85617.315,-50123.79,-12125.835,-17396.145,6862.1849999999995,-53595.225,-5.33525026883631,2.230230959992188,8.435954040306385,13.046933469098535,10.35286215123096,10.579902250674108,2.4603202335229173,-6.408885174782226,0.61498866,-0.47552368500000003,0.66454908,-3.7539599999999997,3.55558,7.21798,69.0
1774822845.4837873,6.9141387939453125e-06,2026-03-29T22:20:45.483,2026-03-29T18:20:45.483,-32421.465,-46133.955,-85627.665,-50133.555,-12138.57,-17409.96,6860.61,-53583.615,-5.394048528437708,6.249562060856438,9.195977161349726,13.015630624007079,11.19426156989131,11.905634277208447,1.8969377436125934,-7.96748212576015,0.61498866,-0.47552368500000003,0.66454908,-3.7539599999999997,3.55558,7.21798,69.0
1774822845.486986,0.0031986236572265625,2026-03-29T22:20:45.486,2026-03-29T18:20:45.486,-32433.84,-46139.534999999996,-85642.02,-50139.765,-12137.805,-17412.614999999998,6852.33,-53599.634999999995,-2.842730220132065,7.425229046498541,5.712571806754636,6.8884315012646296,6.582955883603073,7.237457486188801,0.2575449106561657,-5.874121929119373,0.61498866,-0.47552368500000003,0.66454908,-3.7539599999999997,3.55558,7.21798,69.0
1774822845.4870183,3.24249267578125e-05,2026-03-29T22:20:45.487,2026-03-29T18:20:45.487,-32447.07,-46151.325,-85652.50499999999,-50157.72,-12145.545,-17418.375,6846.255,-53611.424999999996,1.3038044959715946,5.261664372806277,-0.29291311035641765,-2.4175277546929217,-1.3798519830380922,-1.2482484135359948,-1.7294847147988794,-0.8935250155869887,0.61498866,-0.47552368500000003,0.66454908,-3.7539599999999997,3.55558,7.21798,69.0
1774822845.4931867,0.006168365478515625,2026-03-29T22:20:45.493,2026-03-29T18:20:45.493,-32433.344999999998,-46148.895,-85637.565,-50170.59,-12148.965,-17420.445,6853.094999999999,-53599.545,5.1563007828963,0.7702978440949778,-5.9880559547698375,-10.4988896601348,-8.884097273540936,-9.379686448340903,-3.0707786140153,4.78569029341764,0.61608729,-0.47631714,0.662656995,-5.20366,5.05106,7.21798,69.0
1774822845.4932067,2.002716064453125e-05,2026-03-29T22:20:45.493,2026-03-29T18:20:45.493,-32418.405,-46147.86,-85626.495,-50174.46,-12162.645,-17436.329999999998,6862.679999999999,-53582.67,6.819219037638034,-4.008618197446542,-8.77938806547989,-13.570727754372754,-12.246544820455682,-13.046854996644509,-3.003644733926197,8.520194535510015,0.61608729,-0.47631714,0.662656995,-5.20366,5.05106,7.21798,69.0
1774822845.4932373,3.0517578125e-05,2026-03-29T22:20:45.493,2026-03-29T18:20:45.493,-32409.225,-46140.84,-85609.62,-50158.619999999995,-12171.42,-17448.66,6870.509999999999,-53573.985,5.328119063862655,-6.937864189953739,-7.499612673248893,-10.25876937101414,-9.728486640017135,-10.27721516488061,-1.4150741322926588,8.45272582559427,0.61608729,-0.47631714,0.662656995,-5.20366,5.05106,7.21798,69.0
1774822845.4932454,8.106231689453125e-06,2026-03-29T22:20:45.493,2026-03-29T18:20:45.493,-32425.92,-46139.354999999996,-85596.48,-50126.534999999996,-12142.574999999999,-17416.62,6878.34,-53592.884999999995,1.1909466422118185,-6.741138288087853,-2.8861450645347517,-2.2221063648010766,-2.4341325425505125,-2.2816681573181916,1.0409328449769537,4.4376726448803705,0.61608729,-0.47631714,0.662656995,-5.20366,5.05106,7.21798,69.0
1774822845.49863,0.005384683609008789,2026-03-29T22:20:45.498,2026-03-29T18:20:45.498,-32438.114999999998,-46144.395,-85611.645,-50130.09,-12136.365,-17404.47,6876.36,-53606.475,-3.7638484464538253,-3.5570819116182335,2.8390779440826814,6.678930950173068,6.174019321271295,7.078158930188121,3.2115855076253372,-1.8104505871178367,0.61608729,-0.47631714,0.662656995,-5.20366,5.05106,7.21798,69.0
1774822845.4986565,2.6464462280273438e-05,2026-03-29T22:20:45.498,2026-03-29T18:20:45.498,-32437.35,-46150.11,-85625.685,-50140.215,-12142.035,-17415.18,6868.304999999999,-53604.494999999995,-7.200628178383742,1.1496761239012676,7.0511612577187055,12.251356827783772,11.92985425861029,13.165152881772174,3.989448602233343,-7.451946279657791,0.61608729,-0.47631714,0.662656995,-5.20366,5.05106,7.21798,69.0
1774822845.5028868,0.0042302608489990234,2026-03-29T22:20:45.502,2026-03-29T18:20:45.502,-32424.84,-46151.955,-85638.015,-50156.46,-12155.039999999999,-17428.68,6864.4349999999995,-53592.03,-7.387331473379357,5.26645855108242,7.933536299857012,11.963526785693517,11.992447655263678,12.868829475951882,2.8740952085184275,-9.824178446701257,0.61608729,-0.47631714,0.662656995,-5.20366,5.05106,7.21798,69.0
1774822845.5029233,3.647804260253906e-05,2026-03-29T22:20:45.502,2026-03-29T18:20:45.502,-32407.559999999998,-46144.305,-85636.395,-50160.375,-12162.6,-17439.48,6856.605,-53580.329999999994,-4.071271678425408,6.983936851562817,5.256649378606869,6.108010530727824,6.255410089652959,6.188753012033385,0.26756591480728986,-7.708924527743731,0.61608729,-0.47631714,0.662656995,-5.20366,5.05106,7.21798,69.0
1774822845.5063784,0.0034551620483398438,2026-03-29T22:20:45.506,2026-03-29T18:20:45.506,-32403.87,-46140.93,-85624.515,-50147.955,-12162.105,-17446.815,6854.49,-53577.494999999995,1.323913515525217,5.5914699070058385,0.3934975223446768,-2.406225316292514,-2.5653796355135077,-3.704724093956383,-2.6624315710495234,-1.9571599000553943,0.61608729,-0.47631714,0.662656995,-5.20366,5.05106,7.21798,69.0
1774822845.5063982,1.9788742065429688e-05,2026-03-29T22:20:45.506,2026-03-29T18:20:45.506,-32431.77,-46141.29,-85598.45999999999,-50119.83,-12145.814999999999,-17435.34,6854.49,-53600.805,6.310154282563622,1.767105483360433,-4.388556605407964,-9.502300606099926,-10.225267004570199,-11.987234351951406,-4.509571514921295,4.848670820297065,0.61608729,-0.47631714,0.662656995,-5.20366,5.05106,7.21798,69.0
1774822845.5106103,0.004212141036987305,2026-03-29T22:20:45.510,2026-03-29T18:20:45.510,-32431.545,-46158.299999999996,-85629.51,-50148.0,-12172.949999999999,-17448.84,6850.08,-53590.229999999996,8.492605287704363,-2.7537608913054576,-6.992716412945661,-11.901373159553149,-13.005669285371276,-14.543163460943816,-4.306350026275559,9.563524169509037,0.61169277,-0.4772937,0.66235182,-5.5699,5.478339999999999,8.530339999999999,69.0
1774822845.5106363,2.5987625122070312e-05,2026-03-29T22:20:45.510,2026-03-29T18:20:45.510,-32419.89,-46165.95,-85659.61499999999,-50166.405,-12175.109999999999,-17437.905,6856.29,-53582.04,6.729929339167748,-5.968747477725797,-6.410738773970198,-8.65179080698127,-9.529820486189301,-10.01216218522047,-2.0243545079467617,9.946629535239575,0.61169277,-0.4772937,0.66235182,-5.5699,5.478339999999999,8.530339999999999,69.0
1774822845.5152514,0.004615068435668945,2026-03-29T22:20:45.515,2026-03-29T18:20:45.515,-32409.045,-46161.63,-85673.295,-50177.924999999996,-12169.8,-17433.09,6859.3949999999995,-53574.659999999996,1.730789668353379,-6.496857344229393,-3.093317758919168,-1.502082742191943,-1.4481055497615232,-0.5006193043040249,1.3589120002370256,5.73637117771112,0.61169277,-0.4772937,0.66235182,-5.5699,5.478339999999999,8.530339999999999,69.0
1774822845.515273,2.1696090698242188e-05,2026-03-29T22:20:45.515,2026-03-29T18:20:45.515,-32446.17,-46162.305,-85655.47499999999,-50166.63,-12142.8,-17410.5,6866.73,-53612.325,-4.224840971937596,-4.170399288907226,1.3508207688520555,6.02556555855324,7.349545973948553,9.409324037434345,4.281263358027849,-1.186615042867125,0.61169277,-0.4772937,0.66235182,-5.5699,5.478339999999999,8.530339999999999,69.0
1774822845.518415,0.0031418800354003906,2026-03-29T22:20:45.518,2026-03-29T18:20:45.518,-32446.664999999997,-46148.715,-85628.83499999999,-50150.97,-12138.615,-17412.075,6869.295,-53622.225,-8.333577892447467,-0.07767497582775414,4.940561863654348,10.37535853500801,12.616224306704925,14.881313104063528,5.322282357009396,-7.644617177326436,0.61169277,-0.4772937,0.66235182,-5.5699,5.478339999999999,8.530339999999999,69.0
1774822845.5184352,2.0265579223632812e-05,2026-03-29T22:20:45.518,2026-03-29T18:20:45.518,-32441.219999999998,-46153.439999999995,-85635.36,-50153.625,-12141.314999999999,-17408.385,6868.62,-53619.165,-8.600525517748384,3.9473133198777335,6.20662567737338,9.649285051485414,11.80954483155923,13.193079092630981,3.8947564434378594,-10.634271205412313,0.61169277,-0.4772937,0.66235182,-5.5699,5.478339999999999,8.530339999999999,69.0
1774822845.52311,0.004674673080444336,2026-03-29T22:20:45.523,2026-03-29T18:20:45.523,-32436.18,-46148.31,-85631.22,-50152.275,-12132.539999999999,-17387.01,6874.605,-53615.88,-4.816977387735714,6.148484483851287,4.7794539789690536,4.4399444054614605,5.32610406733739,5.087754697437261,0.5639421057121637,-8.737280320012815,0.61169277,-0.4772937,0.66235182,-5.5699,5.478339999999999,8.530339999999999,69.0
1774822845.523132,2.2172927856445312e-05,2026-03-29T22:20:45.523,2026-03-29T18:20:45.523,-32416.335,-46136.205,-85622.31,-50155.38,-12149.369999999999,-17411.265,6869.429999999999,-53598.96,1.2991300225287845,5.614213514388568,1.4534109889624487,-2.562629579743334,-3.6937018304591227,-5.561652924530771,-3.1747229996358333,-2.801685539091231,0.61169277,-0.4772937,0.66235182,-5.5699,5.478339999999999,8.530339999999999,69.0
1774822845.5265424,0.00341033935546875,2026-03-29T22:20:45.526,2026-03-29T18:20:45.526,-32422.14,-46133.189999999995,-85611.19499999999,-50142.915,-12142.71,-17415.495,6869.745,-53601.345,6.8876090512116175,2.652292459211684,-2.2492508881569555,-7.952143691760799,-10.894101405042072,-13.618798289985149,-5.572746551796734,4.437184723263548,0.61169277,-0.4772937,0.66235182,-5.5699,5.478339999999999,8.530339999999999,69.0
1774822845.526561,1.8596649169921875e-05,2026-03-29T22:20:45.526,2026-03-29T18:20:45.526,-32426.324999999997,-46145.205,-85628.385,-50156.055,-12151.71,-17422.155,6869.429999999999,-53600.715,9.295210731292089,-1.3794676146314508,-4.777873426556012,-9.268719091909036,-12.818085703419191,-15.17455501122124,-5.451257107370316,9.626837538240853,0.61169277,-0.4772937,0.66235182,-5.5699,5.478339999999999,8.530339999999999,69.0
1774822845.5303853,0.0038242340087890625,2026-03-29T22:20:45.530,2026-03-29T18:20:45.530,-32427.539999999997,-46149.39,-85636.75499999999,-50162.354999999996,-12158.55,-17429.489999999998,6862.23,-53604.09,7.347991681677405,-4.696602587787093,-5.1936437714383565,-6.1285592203132895,-8.575981373321433,-9.447646232045777,-2.779892035340302,10.36483033322014,0.60461271,-0.48034545,0.662656995,-3.4945399999999998,4.9900199999999995,9.18652,69.0
1774822845.530399,1.3828277587890625e-05,2026-03-29T22:20:45.530,2026-03-29T18:20:45.530,-32420.204999999998,-46145.97,-85636.935,-50159.025,-12152.52,-17419.68,6859.17,-53596.935,1.9310797893933473,-5.8789037725669315,-3.491414695036261,-0.29852270456808866,-0.2589438334750735,0.830864755310661,1.2722080315383104,6.323957747024814,0.60461271,-0.48034545,0.662656995,-3.4945399999999998,4.9900199999999995,9.18652,69.0
1774822845.5419862,0.011587142944335938,2026-03-29T22:20:45.541,2026-03-29T18:20:45.541,-32420.07,-46144.89,-85633.11,-50146.92,-12135.33,-17395.155,6860.61,-53592.659999999996,-4.413622119113744,-4.478025723024929,-0.5093473418840525,5.271232920223285,8.09569404394838,10.73525323079389,4.852770767290632,-0.5974242322754062,0.60461271,-0.48034545,0.662656995,-3.4945399999999998,4.9900199999999995,9.18652,69.0
1774822845.5420077,2.1457672119140625e-05,2026-03-29T22:20:45.542,2026-03-29T18:20:45.542,-32438.789999999997,-46149.615,-85627.845,-50140.259999999995,-12136.05,-17400.105,6864.705,-53610.704999999994,-8.689092465849575,-1.1821965286260725,2.485720527606952,7.936525528746659,12.47331228067835,15.522192438182108,6.279839017852394,-7.171552045654659,0.60461271,-0.48034545,0.662656995,-3.4945399999999998,4.9900199999999995,9.18652,69.0
1774822845.542034,2.6226043701171875e-05,2026-03-29T22:20:45.542,2026-03-29T18:20:45.542,-32444.73,-46152.405,-85625.325,-50135.939999999995,-12139.605,-17407.215,6866.73,-53616.78,-8.872165882451506,2.519635236094389,4.33124830637471,6.619442372467759,10.820508017643842,12.912370681266308,4.835994033700702,-10.358965236310082,0.60461271,-0.48034545,0.662656995,-3.4945399999999998,4.9900199999999995,9.18652,69.0
1774822845.5420463,1.239776611328125e-05,2026-03-29T22:20:45.542,2026-03-29T18:20:45.542,-32447.34,-46155.869999999995,-85628.655,-50134.365,-12139.92,-17411.13,6864.884999999999,-53620.74,-4.882516051622012,5.011309503734035,4.398923152109317,2.236304317449156,4.0126271249027,4.174427739057152,1.1264513296560372,-8.728575620599113,0.60461271,-0.48034545,0.662656995,-3.4945399999999998,4.9900199999999995,9.18652,69.0
1774822845.5420604,1.4066696166992188e-05,2026-03-29T22:20:45.542,2026-03-29T18:20:45.542,-32447.114999999998,-46158.075,-85634.86499999999,-50135.04,-12139.02,-17416.845,6863.175,-53618.805,1.3776879681558416,5.255696992250259,2.7750661521949094,-2.872308252595661,-4.607651120601281,-6.50371084193639,-3.1767815708056255,-3.1098760437239235,0.60461271,-0.48034545,0.662656995,-3.4945399999999998,4.9900199999999995,9.18652,69.0
1774822845.5420704,1.0013580322265625e-05,2026-03-29T22:20:45.542,2026-03-29T18:20:45.542,-32450.265,-46161.945,-85648.59,-50153.759999999995,-12154.23,-17435.745,6860.969999999999,-53625.015,6.9351359297966795,3.2248418649580226,0.1621173341956876,-6.175622913391421,-10.878265866788231,-14.039339294768105,-6.095454716429378,3.824586301209394,0.60461271,-0.48034545,0.662656995,-3.4945399999999998,4.9900199999999995,9.18652,69.0
1774822845.5473032,0.005232810974121094,2026-03-29T22:20:45.547,2026-03-29T18:20:45.547,-32443.425,-46160.46,-85649.48999999999,-50162.22,-12155.175,-17427.195,6863.94,-53618.67,9.16911019184014,-0.1236232880089465,-2.4240760348199255,-6.205963082998534,-11.836520252769793,-14.888717977583513,-6.261234547839258,8.838074700289575,0.60461271,-0.48034545,0.662656995,-3.4945399999999998,4.9900199999999995,9.18652,69.0
1774822845.5473197,1.6450881958007812e-05,2026-03-29T22:20:45.547,2026-03-29T18:20:45.547,-32427.0,-46145.835,-85625.235,-50149.845,-12142.574999999999,-17407.035,6865.514999999999,-53600.85,7.060634040450057,-3.2972191976032525,-4.031362491769574,-3.210180079060867,-7.124942707434513,-8.718046331663237,-3.5601640198281372,9.654474391838114,0.60461271,-0.48034545,0.662656995,-3.4945399999999998,4.9900199999999995,9.18652,69.0
1774822845.5504222,0.003102540969848633,2026-03-29T22:20:45.550,2026-03-29T18:20:45.550,-32420.969999999998,-46138.455,-85608.09,-50131.395,-12129.119999999999,-17395.47,6869.7,-53590.77,1.6655466406862653,-4.934719218710217,-4.093164563919936,1.0898512269950156,0.8858463288079731,1.4782813608487715,0.7994465407973345,6.004297827186087,0.59716644,-0.48205443000000003,0.65966628,-1.05294,4.0439,10.681999999999999,69.0
1774822845.5504382,1.5974044799804688e-05,2026-03-29T22:20:45.550,2026-03-29T18:20:45.550,-32440.004999999997,-46149.075,-85612.545,-50125.005,-12123.494999999999,-17394.614999999998,6868.889999999999,-53608.994999999995,-4.4121122546093225,-4.389926064914208,-2.603914054077241,4.456399900488511,8.292935829645238,10.845662223518131,4.833305410570288,-0.29483871908366244,0.59716644,-0.48205443000000003,0.65966628,-1.05294,4.0439,10.681999999999999,69.0
1774822845.5546336,0.004195451736450195,2026-03-29T22:20:45.554,2026-03-29T18:20:45.554,-32452.065,-46163.835,-85629.105,-50129.145,-12124.305,-17395.155,6870.825,-53626.095,-8.284564934206719,-1.9827853511110491,-0.10930289533502155,5.291642704252936,11.57093831314132,14.99720599774963,6.692009484002647,-6.2426311838692845,0.59716644,-0.48205443000000003,0.65966628,-1.05294,4.0439,10.681999999999999,69.0
1774822845.554664,3.0279159545898438e-05,2026-03-29T22:20:45.554,2026-03-29T18:20:45.554,-32449.995,-46179.405,-85660.02,-50158.034999999996,-12149.865,-17417.295,6861.96,-53618.04,-8.165167610244097,1.177780648211758,2.477741146314814,3.396135508168816,9.257285786918153,12.077753773744831,5.514920881312781,-9.095529409603493,0.59716644,-0.48205443000000003,0.65966628,-1.05294,4.0439,10.681999999999999,69.0
1774822845.558883,0.00421905517578125,2026-03-29T22:20:45.558,2026-03-29T18:20:45.558,-32439.69,-46171.979999999996,-85661.415,-50170.545,-12162.869999999999,-17430.12,6857.054999999999,-53609.939999999995,-4.203710713296914,3.704774795925559,4.183072078401993,-0.03059945334050521,2.6037355353310994,3.588600694395259,1.8301435225909533,-7.645841831479944,0.59716644,-0.48205443000000003,0.65966628,-1.05294,4.0439,10.681999999999999,69.0
1774822845.558905,2.193450927734375e-05,2026-03-29T22:20:45.558,2026-03-29T18:20:45.558,-32429.204999999998,-46154.52,-85646.655,-50167.215,-12165.029999999999,-17437.005,6851.07,-53606.25,1.6235812891072006,4.542235754201702,4.3139931976331525,-3.102783645815789,-5.0955691712160665,-6.391182842058672,-2.6859570389815537,-2.73772812228796,0.59716644,-0.48205443000000003,0.65966628,-1.05294,4.0439,10.681999999999999,69.0
1774822845.5629733,0.0040683746337890625,2026-03-29T22:20:45.562,2026-03-29T18:20:45.562,-32416.02,-46142.145,-85639.815,-50168.295,-12173.4,-17451.09,6840.134999999999,-53600.445,6.500905616325506,3.404751489631075,2.732396784468092,-4.267197349523213,-10.141067764567353,-13.180404786361972,-5.978583015827247,3.203030906499499,0.59716644,-0.48205443000000003,0.65966628,-1.05294,4.0439,10.681999999999999,69.0
1774822845.5629988,2.5510787963867188e-05,2026-03-29T22:20:45.562,2026-03-29T18:20:45.562,-32413.094999999998,-46156.725,-85655.25,-50168.205,-12174.39,-17448.39,6842.025,-53593.92,8.143213868579908,0.8652660655371953,-0.04489384696870858,-3.0848855989066184,-10.213514372512135,-13.704526344127236,-6.556961772326271,7.370997097767944,0.59716644,-0.48205443000000003,0.65966628,-1.05294,4.0439,10.681999999999999,69.0
1774822845.5676055,0.004606723785400391,2026-03-29T22:20:45.567,2026-03-29T18:20:45.567,-32415.39,-46171.305,-85668.525,-50166.09,-12164.939999999999,-17432.28,6855.255,-53590.905,5.878696703182935,-1.9301222740319863,-2.982358169656015,-0.3833644562405076,-5.44269182625347,-7.889618833144915,-4.173810718103181,7.917678460077294,0.59716644,-0.48205443000000003,0.65966628,-1.05294,4.0439,10.681999999999999,69.0
1774822845.5676255,2.002716064453125e-05,2026-03-29T22:20:45.567,2026-03-29T18:20:45.567,-32427.135,-46177.155,-85658.31,-50159.43,-12151.574999999999,-17415.045,6882.12,-53597.115,0.9250652639831443,-3.7794875649887416,-4.8849866732290765,2.265517048765784,1.7346237588565738,1.3907935639111249,0.06987292796225765,4.780432395418074,0.59716644,-0.48205443000000003,0.65966628,-1.05294,4.0439,10.681999999999999,69.0
1774822845.5707276,0.0031020641326904297,2026-03-29T22:20:45.570,2026-03-29T18:20:45.570,-32445.045,-46180.485,-85650.61499999999,-50158.979999999996,-12150.855,-17416.53,6880.995,-53606.744999999995,-4.254966401420096,-3.9407325465368186,-4.871927673096474,3.43136053023843,7.820450142684434,9.745965175325551,4.238586337975889,-0.3726382228905443,0.58935396,-0.48376341,0.658140405,0.88508,2.2127,13.76452,69.0
1774822845.570746,1.8358230590820312e-05,2026-03-29T22:20:45.570,2026-03-29T18:20:45.570,-32455.395,-46146.284999999996,-85621.815,-50139.405,-12133.215,-17401.5,6868.844999999999,-53626.095,-7.181695654958874,-2.424813063753674,-2.783561520435328,2.586502722470293,9.967790857638015,13.359001716998147,6.452663836812774,-5.018918520827408,0.58935396,-0.48376341,0.658140405,0.88508,2.2127,13.76452,69.0
1774822845.6053624,0.03461647033691406,2026-03-29T22:20:45.605,2026-03-29T18:20:45.605,-32438.835,-46120.275,-85603.5,-50127.435,-12129.255,-17402.805,6871.365,-53630.009999999995,-6.555838283305007,0.046820939577227,0.6660242724961006,0.34189690938810874,7.317801975584655,10.736901816137324,5.7422734697507485,-7.022384643637464,0.58935396,-0.48376341,0.658140405,0.88508,2.2127,13.76452,69.0
1774822845.6053824,2.002716064453125e-05,2026-03-29T22:20:45.605,2026-03-29T18:20:45.605,-32430.465,-46125.945,-85603.77,-50126.715,-12133.125,-17407.305,6862.23,-53619.525,-2.8423856994840837,2.3840553342902795,4.099282491438896,-1.9465962028463046,1.3314523889460232,3.3146986147290445,2.4742085251289865,-5.625994412693686,0.58935396,-0.48376341,0.658140405,0.88508,2.2127,13.76452,69.0
1774822845.605412,2.956390380859375e-05,2026-03-29T22:20:45.605,2026-03-29T18:20:45.605,-32433.434999999998,-46138.095,-85613.12999999999,-50132.52,-12139.154999999999,-17409.555,6862.455,-53614.17,2.0249072958676266,3.6074714579990013,6.008289962376356,-2.963532693367335,-5.005469524246378,-5.323084742777902,-1.837179539512643,-1.729221725043092,0.58935396,-0.48376341,0.658140405,0.88508,2.2127,13.76452,69.0
1774822845.60542,8.106231689453125e-06,2026-03-29T22:20:45.605,2026-03-29T18:20:45.605,-32442.03,-46153.259999999995,-85629.19499999999,-50143.14,-12152.744999999999,-17426.114999999998,6854.175,-53620.064999999995,5.64441141511849,3.2549367006286554,5.413742538169614,-2.1688183082871157,-8.67578981546193,-11.184237929863414,-5.2376157233045175,2.646554651608227,0.58935396,-0.48376341,0.658140405,0.88508,2.2127,13.76452,69.0
1774822845.60543,9.775161743164062e-06,2026-03-29T22:20:45.605,2026-03-29T18:20:45.605,-32448.149999999998,-46163.205,-85628.655,-50129.369999999995,-12146.085,-17425.62,6852.554999999999,-53623.485,6.337087746814044,1.548738275609741,2.363315353830349,-0.0799317285581441,-8.074075772293915,-11.722974991757477,-6.2258506452651945,5.401523492025461,0.58935396,-0.48376341,0.658140405,0.88508,2.2127,13.76452,69.0
1774822845.6054363,6.4373016357421875e-06,2026-03-29T22:20:45.605,2026-03-29T18:20:45.605,-32457.239999999998,-46174.59,-85633.065,-50111.505,-12130.65,-17408.07,6852.69,-53624.924999999996,3.9339430446139696,-0.7326022302051494,-1.9828212680578952,2.0442477777532013,-3.7063251573326053,-6.941568306053135,-4.420774307428594,5.37290975792793,0.58935396,-0.48376341,0.658140405,0.88508,2.2127,13.76452,69.0
1774822845.6054444,8.106231689453125e-06,2026-03-29T22:20:45.605,2026-03-29T18:20:45.605,-32466.465,-46179.54,-85648.455,-50106.104999999996,-12121.47,-17398.53,6856.155,-53632.439999999995,-0.21277046304904165,-2.6071276538858497,-5.770048853317475,2.9325572913618423,2.1571263815986588,0.7342996362267104,-0.7043393509802344,2.827600874278691,0.58935396,-0.48376341,0.658140405,0.88508,2.2127,13.76452,69.0
1774822845.6054509,6.4373016357421875e-06,2026-03-29T22:20:45.605,2026-03-29T18:20:45.605,-32450.535,-46169.64,-85669.2,-50136.93,-12143.609999999999,-17422.829999999998,6855.255,-53621.685,-3.969809878228754,-3.307732901094061,-7.2337300461774685,2.0327870560113084,6.658512176476289,7.687404559684981,3.210993259449291,-0.7779563056301366,0.58935396,-0.48376341,0.658140405,0.88508,2.2127,13.76452,69.0
1774822845.6054587,7.867813110351562e-06,2026-03-29T22:20:45.605,2026-03-29T18:20:45.605,-32432.219999999998,-46164.6,-85682.83499999999,-50180.715,-12160.305,-17429.355,6860.835,-53606.52,-5.516886993225354,-2.590035603838744,-5.521721151906163,-0.1642393781242881,7.750756475969654,10.822019485215211,5.5774459385782915,-3.605383513308475,0.58312839,-0.4858386,0.65746902,5.6767199999999995,-0.10682,13.978159999999999,69.0
1774822845.6054647,5.9604644775390625e-06,2026-03-29T22:20:45.605,2026-03-29T18:20:45.605,-32434.649999999998,-46168.29,-85682.83499999999,-50209.2,-12169.125,-17424.63,6866.099999999999,-53606.384999999995,-4.234570127755789,-0.809950759646301,-1.1711898836050747,-2.3908944385253728,5.130642690899095,8.943416574174075,5.3978021763583905,-4.371007490045244,0.58312839,-0.4858386,0.65746902,5.6767199999999995,-0.10682,13.978159999999999,69.0
1774822845.6054723,7.62939453125e-06,2026-03-29T22:20:45.605,2026-03-29T18:20:45.605,-32434.695,-46151.729999999996,-85640.715,-50181.075,-12155.039999999999,-17403.614999999998,6875.594999999999,-53615.835,-0.9504240945859038,1.248446345433602,4.020161320253063,-3.315509051975118,0.28093792014558855,3.189320676246266,2.8460692875867695,-2.934306267649599,0.58312839,-0.4858386,0.65746902,5.6767199999999995,-0.10682,13.978159999999999,69.0
1774822845.6054785,6.198883056640625e-06,2026-03-29T22:20:45.605,2026-03-29T18:20:45.605,-32423.129999999997,-46140.119999999995,-85614.97499999999,-50157.314999999995,-12159.494999999999,-17418.195,6868.035,-53609.354999999996,2.5533427433658393,2.712736159796243,7.725411452158109,-2.3083453837421497,-4.349824734766033,-3.627758252861713,-0.8546160324575415,-0.2655375292627583,0.58312839,-0.4858386,0.65746902,5.6767199999999995,-0.10682,13.978159999999999,69.0
1774822845.605487,8.58306884765625e-06,2026-03-29T22:20:45.605,2026-03-29T18:20:45.605,-32405.715,-46138.14,-85621.95,-50161.32,-12173.58,-17444.79,6853.41,-53591.895,4.49108104651174,2.985036973090596,8.130890985773203,0.16806062847539113,-6.583600470320263,-8.398374722215422,-4.02109124076905,2.147747013486617,0.58312839,-0.4858386,0.65746902,5.6767199999999995,-0.10682,13.978159999999999,69.0
1774822845.605493,5.9604644775390625e-06,2026-03-29T22:20:45.605,2026-03-29T18:20:45.605,-32401.26,-46139.04,-85628.43,-50154.03,-12163.77,-17442.675,6847.155,-53587.395,3.9820105077789036,1.9810053986089982,4.822891740852898,2.7731062544937135,-5.541115526419086,-9.137979929271884,-5.281295963284485,3.1115932352081717,0.58312839,-0.4858386,0.65746902,5.6767199999999995,-0.10682,13.978159999999999,69.0
1774822845.6055164,2.3365020751953125e-05,2026-03-29T22:20:45.605,2026-03-29T18:20:45.605,-32406.57,-46145.835,-85639.05,-50155.515,-12164.49,-17449.155,6845.8949999999995,-53586.945,1.4542447614576697,0.15283528528519094,-0.9147045684967408,4.006414484273396,-1.9753109040608798,-5.801566101102904,-4.171616246285399,2.318627910607313,0.58312839,-0.4858386,0.65746902,5.6767199999999995,-0.10682,13.978159999999999,69.0
1774822845.6055226,6.198883056640625e-06,2026-03-29T22:20:45.605,2026-03-29T18:20:45.605,-32447.43,-46159.784999999996,-85634.37,-50144.04,-12152.925,-17436.915,6845.94,-53614.17,-1.6423526008814417,-1.7077861205643183,-6.579846721319744,3.0482491660217237,2.2087767544807115,-0.16337225886607218,-1.2991256078483666,0.4273999638408467,0.58312839,-0.4858386,0.65746902,5.6767199999999995,-0.10682,13.978159999999999,69.0
1774822845.6093547,0.003832101821899414,2026-03-29T22:20:45.609,2026-03-29T18:20:45.609,-32456.655,-46155.42,-85632.165,-50140.08,-12139.515,-17411.175,6858.045,-53631.945,-3.6397647497509475,-2.8038747634946812,-9.54051191463906,0.26056692828216055,4.960866288149654,5.114844428805249,1.9832138605201857,-1.3799386121719572,0.58312839,-0.4858386,0.65746902,5.6767199999999995,-0.10682,13.978159999999999,69.0
1774822845.609374,1.9311904907226562e-05,2026-03-29T22:20:45.609,2026-03-29T18:20:45.609,-32424.57,-46141.875,-85625.415,-50137.02,-12133.89,-17398.845,6856.785,-53604.945,-3.5363828958524097,-2.6681375194837327,-8.259887945550455,-2.942588405123793,5.091355341645867,7.742342429092973,4.21725424511476,-2.091369654581199,0.58312839,-0.4858386,0.65746902,5.6767199999999995,-0.10682,13.978159999999999,69.0
1774822845.6126363,0.0032622814178466797,2026-03-29T22:20:45.612,2026-03-29T18:20:45.612,-32423.489999999998,-46141.155,-85616.50499999999,-50128.38,-12138.615,-17410.184999999998,6852.42,-53602.38,-1.4986744931937352,-1.3618827341998752,-3.0869975340193165,-4.812623965142076,2.7825158349655457,6.7891772118536595,4.491246286071933,-1.41826028353361,0.57775731,-0.48626584500000003,0.656431425,8.98814,-2.63998,15.35156,69.0
1774822845.6126473,1.0967254638671875e-05,2026-03-29T22:20:45.612,2026-03-29T18:20:45.612,-32453.28,-46162.89,-85627.665,-50127.255,-12131.369999999999,-17399.97,6862.32,-53624.159999999996,1.2709944733071492,0.5460377974710593,3.7913040370792483,-4.20719170703966,-0.612566790631045,2.98261060667927,2.809361334429658,0.08947468619509977,0.57775731,-0.48626584500000003,0.656431425,8.98814,-2.63998,15.35156,69.0
1774822845.6144357,0.0017883777618408203,2026-03-29T22:20:45.614,2026-03-29T18:20:45.614,-32467.905,-46168.244999999995,-85627.53,-50132.43,-12130.38,-17393.445,6882.12,-53644.409999999996,3.213045938611855,2.2165210883981064,9.268095413728002,-1.2533604718615357,-3.3333953195603856,-1.7633252249831608,0.0308294156400529,1.4112834568894468,0.57775731,-0.48626584500000003,0.656431425,8.98814,-2.63998,15.35156,69.0
1774822845.614449,1.33514404296875e-05,2026-03-29T22:20:45.614,2026-03-29T18:20:45.614,-32449.77,-46165.229999999996,-85638.465,-50152.095,-12148.289999999999,-17414.19,6866.865,-53628.975,3.2633387245658017,2.9003062705397755,10.722462654277878,2.63932633023814,-4.117854508002544,-5.30415719592499,-2.566253339614085,1.6822289158159887,0.57775731,-0.48626584500000003,0.656431425,8.98814,-2.63998,15.35156,69.0
1774822845.6245153,0.01006627082824707,2026-03-29T22:20:45.624,2026-03-29T18:20:45.624,-32440.635,-46160.189999999995,-85643.955,-50157.09,-12153.105,-17412.39,6855.03,-53617.365,1.4227676263785316,2.2713351342394814,7.276331553887067,5.4555279141719435,-2.7873692459084713,-6.231976103012447,-3.8759173569662004,0.7135257132134016,0.57775731,-0.48626584500000003,0.656431425,8.98814,-2.63998,15.35156,69.0
1774822845.6245348,1.9550323486328125e-05,2026-03-29T22:20:45.624,2026-03-29T18:20:45.624,-32445.09,-46152.585,-85639.68,-50143.814999999995,-12144.869999999999,-17404.605,6856.65,-53620.784999999996,-1.2560644868996202,0.5869201703368405,0.2980119667204124,5.613281488557209,-0.2407364459952338,-4.4186354771166805,-3.4353158409518048,-0.8913674708486999,0.57775731,-0.48626584500000003,0.656431425,8.98814,-2.63998,15.35156,69.0
1774822845.6245525,1.7642974853515625e-05,2026-03-29T22:20:45.624,2026-03-29T18:20:45.624,-32448.42,-46147.14,-85631.67,-50132.88,-12129.66,-17390.655,6864.21,-53629.604999999996,-3.2518610924088396,-1.405538825069268,-7.12714638558363,2.831110148684363,2.0969969625522786,-0.9355468737769582,-1.5751883662528257,-2.0921011532878544,0.57775731,-0.48626584500000003,0.656431425,8.98814,-2.63998,15.35156,69.0
1774822845.6245596,7.152557373046875e-06,2026-03-29T22:20:45.624,2026-03-29T18:20:45.624,-32452.02,-46151.28,-85632.25499999999,-50131.305,-12127.77,-17392.68,6866.415,-53635.86,-3.411020345941265,-2.7886879428057334,-11.562250035237092,-1.6442062772403774,3.0502780504525715,2.5474270340864185,0.7911301336994364,-2.0362218360215745,0.57775731,-0.48626584500000003,0.656431425,8.98814,-2.63998,15.35156,69.0
1774822845.6296406,0.0050809383392333984,2026-03-29T22:20:45.629,2026-03-29T18:20:45.629,-32440.995,-46151.64,-85637.79,-50139.765,-12143.205,-17412.66,6866.099999999999,-53626.454999999994,-1.5872577385891715,-2.8912190746423563,-10.815818726151894,-5.600435276254689,2.279212585693304,4.557803941811751,2.6156047526688333,-0.5945010503276716,0.57775731,-0.48626584500000003,0.656431425,8.98814,-2.63998,15.35156,69.0
1774822845.6296616,2.09808349609375e-05,2026-03-29T22:20:45.629,2026-03-29T18:20:45.629,-32431.59,-46153.979999999996,-85649.48999999999,-50159.295,-12165.164999999999,-17432.684999999998,6859.575,-53615.295,1.260751195547535,-1.6144299485351252,-5.025336787635209,-6.956834256692284,0.3861409508580712,4.434114520909602,3.180609361044745,1.508604135414796,0.57775731,-0.48626584500000003,0.656431425,8.98814,-2.63998,15.35156,69.0
1774822845.6296816,2.002716064453125e-05,2026-03-29T22:20:45.629,2026-03-29T18:20:45.629,-32426.414999999997,-46150.83,-85642.37999999999,-50159.295,-12174.57,-17446.77,6846.705,-53610.479999999996,3.571079086376269,0.4895908223076626,3.3089491872507173,-4.849267061711135,-1.480752415325753,2.5069730811367985,2.3743206121360436,3.062410533776025,0.5767807500000001,-0.485533425,0.654966585,7.87416,-4.303319999999999,14.878499999999999,69.0
1774822845.6296885,6.9141387939453125e-06,2026-03-29T22:20:45.629,2026-03-29T18:20:45.629,-32428.305,-46143.945,-85622.4,-50137.65,-12159.18,-17433.27,6852.6449999999995,-53610.884999999995,4.017717236284612,2.4434508211819104,10.401979006745941,-0.1408237233940205,-2.286197227409184,-0.17729990356597486,0.6745879724082949,3.0476556361910134,0.5767807500000001,-0.485533425,0.654966585,7.87416,-4.303319999999999,14.878499999999999,69.0
1774822845.6348848,0.005196332931518555,2026-03-29T22:20:45.634,2026-03-29T18:20:45.634,-32422.905,-46136.159999999996,-85614.61499999999,-50124.555,-12140.73,-17411.04,6862.5,-53606.744999999995,2.2425743174529096,3.2888952893068866,12.910161126971126,4.93080543047938,-1.6638367712235904,-2.4064940068476233,-1.11999322725508,1.2522306397715712,0.5767807500000001,-0.485533425,0.654966585,7.87416,-4.303319999999999,14.878499999999999,69.0
1774822845.6349027,1.7881393432617188e-05,2026-03-29T22:20:45.634,2026-03-29T18:20:45.634,-32427.449999999997,-46151.955,-85652.595,-50155.695,-12159.494999999999,-17429.13,6845.985,-53607.015,-0.9137463306731095,2.552757982267042,9.515451806966794,7.8253042515375135,-0.0775611571081306,-3.3437040303912386,-2.265073809390902,-1.5299070288379317,0.5767807500000001,-0.485533425,0.654966585,7.87416,-4.303319999999999,14.878499999999999,69.0
1774822845.6387582,0.003855466842651367,2026-03-29T22:20:45.638,2026-03-29T18:20:45.638,-32424.614999999998,-46149.57,-85658.67,-50168.97,-12167.505,-17435.43,6845.67,-53606.61,-3.8173277962031564,0.5095276481215104,1.612966225083679,6.973263741366897,1.4798353159207351,-2.8217727169377462,-2.3753755365513074,-3.8557474445154667,0.5767807500000001,-0.485533425,0.654966585,7.87416,-4.303319999999999,14.878499999999999,69.0
1774822845.6387775,1.9311904907226562e-05,2026-03-29T22:20:45.638,2026-03-29T18:20:45.638,-32442.254999999997,-46146.509999999995,-85636.75499999999,-50148.765,-12141.314999999999,-17409.555,6868.17,-53629.155,-4.883610366978502,-1.904008496541693,-7.254968441004835,2.6117567647905395,2.067928094487444,-1.2995605480768977,-1.5366224096355279,-4.382787485614627,0.5767807500000001,-0.485533425,0.654966585,7.87416,-4.303319999999999,14.878499999999999,69.0
1774822845.642944,0.004166603088378906,2026-03-29T22:20:45.642,2026-03-29T18:20:45.642,-32454.09,-46149.299999999996,-85624.37999999999,-50129.235,-12136.095,-17408.565,6870.78,-53638.155,-3.4237477149900823,-3.507220486090615,-12.993303576721383,-3.2574876542978273,1.3327976611800172,0.44427161711329183,-0.2036293276085944,-2.6213604862385225,0.5767807500000001,-0.485533425,0.654966585,7.87416,-4.303319999999999,14.878499999999999,69.0
1774822845.6429534,9.298324584960938e-06,2026-03-29T22:20:45.642,2026-03-29T18:20:45.642,-32455.305,-46156.14,-85631.94,-50124.104999999996,-12132.675,-17407.89,6866.37,-53639.595,-0.049128802297379905,-3.4457218290370335,-12.856845117896178,-7.7975278457345345,-0.2980407939514344,1.697776529378203,1.039450840321829,0.723598694283851,0.5767807500000001,-0.485533425,0.654966585,7.87416,-4.303319999999999,14.878499999999999,69.0
1774822845.65179,0.008836507797241211,2026-03-29T22:20:45.651,2026-03-29T18:20:45.651,-32439.465,-46167.615,-85656.33,-50134.32,-12137.22,-17407.485,6867.224999999999,-53622.945,3.5912245913760765,-1.6407417799644584,-6.771620579847527,-8.716537627059148,-1.8613294983460713,2.0955151625948933,1.7325444842120532,4.0342717255653096,0.5767807500000001,-0.485533425,0.654966585,7.87416,-4.303319999999999,14.878499999999999,69.0
1774822845.6518073,1.7404556274414062e-05,2026-03-29T22:20:45.651,2026-03-29T18:20:45.651,-32443.11,-46175.22,-85650.345,-50129.865,-12129.615,-17391.285,6867.495,-53624.88,5.624065596998643,1.1165612603637445,2.5649838492584274,-5.422999988556003,-2.4046040532194914,1.6881188925819344,1.6980074468385458,5.572718552073571,0.5767807500000001,-0.485533425,0.654966585,7.87416,-4.303319999999999,14.878499999999999,69.0
1774822845.6518245,1.71661376953125e-05,2026-03-29T22:20:45.651,2026-03-29T18:20:45.651,-32456.024999999998,-46186.47,-85648.23,-50141.115,-12136.68,-17393.535,6865.74,-53629.604999999996,4.911546708653734,3.5006354369245685,10.884120416716922,0.6263652920142567,-1.5314292799991522,0.815913027870177,1.0566965128921442,4.391706194705801,0.58251804,-0.484190655,0.65612625,6.271859999999999,-4.7458599999999995,15.977219999999999,69.0
1774822845.651832,7.62939453125e-06,2026-03-29T22:20:45.651,2026-03-29T18:20:45.651,-32454.765,-46165.32,-85629.87,-50134.32,-12139.289999999999,-17397.63,6864.075,-53624.655,1.6669093719820887,4.2807714219431965,14.310188296792415,6.58067388151608,0.35509296494298337,-0.10975128475620781,0.12535381997366632,0.8868330170715857,0.58251804,-0.484190655,0.65612625,6.271859999999999,-4.7458599999999995,15.977219999999999,69.0
1774822845.6549182,0.003086090087890625,2026-03-29T22:20:45.654,2026-03-29T18:20:45.654,-32451.254999999997,-46143.36,-85625.73,-50129.955,-12142.215,-17405.415,6861.554999999999,-53623.799999999996,-2.5995946879199616,2.9485697479182944,11.180246809025158,9.552576661588105,2.2478947867545,-0.7921829520936305,-0.7359958185959895,-3.3212777670731115,0.58251804,-0.484190655,0.65612625,6.271859999999999,-4.7458599999999995,15.977219999999999,69.0
1774822845.6549437,2.5510787963867188e-05,2026-03-29T22:20:45.654,2026-03-29T18:20:45.654,-32439.69,-46147.185,-85649.22,-50142.555,-12159.18,-17428.815,6862.724999999999,-53617.545,-5.796249316226448,0.026192259912647217,2.8573585421897545,8.026444730066343,3.0713310817976787,-1.122218239484689,-1.2544668824853422,-6.148773420588429,0.58251804,-0.484190655,0.65612625,6.271859999999999,-4.7458599999999995,15.977219999999999,69.0
1774822845.6588724,0.003928661346435547,2026-03-29T22:20:45.658,2026-03-29T18:20:45.658,-32445.719999999998,-46159.65,-85674.645,-50145.345,-12157.47,-17431.739999999998,6862.724999999999,-53622.18,-6.282240460892989,-3.1241419554420693,-6.863186110694788,2.6263331306598876,2.2727597673541906,-1.1360639205045613,-1.31056012211017,-6.090566855899471,0.58251804,-0.484190655,0.65612625,6.271859999999999,-4.7458599999999995,15.977219999999999,69.0
1774822845.6588929,2.0503997802734375e-05,2026-03-29T22:20:45.658,2026-03-29T18:20:45.658,-32445.989999999998,-46167.659999999996,-85699.62,-50173.29,-12164.49,-17428.995,6857.73,-53622.72,-3.704321611481774,-4.928972377575101,-13.496667597889221,-4.143886075955106,0.15211442736417546,-0.9191429885309786,-0.9385490391726641,-3.0171885504178584,0.58251804,-0.484190655,0.65612625,6.271859999999999,-4.7458599999999995,15.977219999999999,69.0
1774822845.6628,0.003907203674316406,2026-03-29T22:20:45.662,2026-03-29T18:20:45.662,-32423.625,-46149.255,-85675.095,-50189.715,-12162.645,-17410.545,6859.755,-53604.63,0.7868865056408808,-4.383198358099613,-13.955082258250277,-9.077517437278418,-2.2548623939420773,-0.5334248330045762,-0.2862768645185466,1.6937112336535256,0.58251804,-0.484190655,0.65612625,6.271859999999999,-4.7458599999999995,15.977219999999999,69.0
1774822845.6628203,2.0265579223632812e-05,2026-03-29T22:20:45.662,2026-03-29T18:20:45.662,-32424.614999999998,-46144.799999999996,-85643.45999999999,-50175.765,-12155.895,-17408.43,6858.315,-53600.4,5.062926723399587,-1.5959998220014133,-7.998194082842573,-9.798605569482403,-3.691205673061364,-0.012890085664069661,0.43710044914831747,5.785350060483198,0.58251804,-0.484190655,0.65612625,6.271859999999999,-4.7458599999999995,15.977219999999999,69.0
1774822845.6690192,0.006198883056640625,2026-03-29T22:20:45.669,2026-03-29T18:20:45.669,-32438.25,-46154.205,-85633.83,-50154.345,-12148.605,-17406.945,6866.054999999999,-53609.805,7.039611584054731,2.1891548778035577,1.6390292572361687,-5.911925287846036,-3.3318842578412498,0.5847541694172695,1.010937477490419,7.218095810723349,0.58251804,-0.484190655,0.65612625,6.271859999999999,-4.7458599999999995,15.977219999999999,69.0
1774822845.6690395,2.0265579223632812e-05,2026-03-29T22:20:45.669,2026-03-29T18:20:45.669,-32433.344999999998,-46142.325,-85613.535,-50125.365,-12137.535,-17405.145,6868.304999999999,-53613.99,5.698617514846438,5.145244160903775,10.511217598070191,0.7900435148864026,-1.2376050344562912,1.1252864166507435,1.2512377909719954,5.194843051858879,0.58251804,-0.484190655,0.65612625,6.271859999999999,-4.7458599999999995,15.977219999999999,69.0
1774822845.6718063,0.002766847610473633,2026-03-29T22:20:45.671,2026-03-29T18:20:45.671,-32430.42,-46136.025,-85616.28,-50128.064999999995,-12140.369999999999,-17411.985,6862.455,-53610.479999999996,1.6053565240870487,5.741504701376016,14.530825843670366,7.168369446222491,1.6331767912557524,1.4026921693142438,1.0606507436096497,0.5963740102329345,0.591978465,-0.486021705,0.657896265,4.94424,-3.25038,14.619079999999999,69.0
1774822845.6718273,2.09808349609375e-05,2026-03-29T22:20:45.671,2026-03-29T18:20:45.671,-32444.82,-46138.68,-85613.08499999999,-50120.415,-12130.335,-17406.989999999998,6863.3099999999995,-53625.78,-3.337807306134825,3.5288760595793773,11.869291915513708,10.225766245323905,3.8741953541635867,1.2218296644802644,0.4725180322594743,-4.407999977710073,0.591978465,-0.486021705,0.657896265,4.94424,-3.25038,14.619079999999999,69.0
1774822845.6841316,0.012304306030273438,2026-03-29T22:20:45.684,2026-03-29T18:20:45.684,-32429.969999999998,-46144.89,-85632.56999999999,-50142.869999999995,-12152.25,-17428.59,6855.929999999999,-53613.09,-6.791095734785312,-0.5701826350697184,3.7981673911557037,8.527993611932304,4.326911034325885,0.5232972907698014,-0.3333571951313745,-7.399492954959943,0.591978465,-0.486021705,0.657896265,4.94424,-3.25038,14.619079999999999,69.0
1774822845.6841576,2.5987625122070312e-05,2026-03-29T22:20:45.684,2026-03-29T18:20:45.684,-32418.495,-46152.314999999995,-85642.785,-50153.58,-12162.42,-17434.53,6851.61,-53596.575,-7.097622752151946,-4.641801911080468,-5.9215661843913425,2.8786336192652042,2.675101803952694,-0.5245531376686614,-1.0677356148918276,-6.893945589427017,0.591978465,-0.486021705,0.657896265,4.94424,-3.25038,14.619079999999999,69.0
1774822845.6841843,2.6702880859375e-05,2026-03-29T22:20:45.684,2026-03-29T18:20:45.684,-32427.315,-46145.88,-85630.59,-50139.36,-12148.92,-17413.02,6859.215,-53602.965,-4.082664285056803,-6.677113965146182,-12.80758420887631,-4.071170409227878,-0.36462783047538233,-1.5376969824429783,-1.427782539192155,-3.0848658432994718,0.591978465,-0.486021705,0.657896265,4.94424,-3.25038,14.619079999999999,69.0
1774822845.6841943,1.0013580322265625e-05,2026-03-29T22:20:45.684,2026-03-29T18:20:45.684,-32435.82,-46146.104999999996,-85641.795,-50141.52,-12144.015,-17407.755,6864.12,-53610.975,0.8554710386080681,-5.5635320807601785,-13.743370623736425,-9.084212167548682,-3.3625577329446985,-2.0545815299777876,-1.2247947277049451,2.2293099939974903,0.591978465,-0.486021705,0.657896265,4.94424,-3.25038,14.619079999999999,69.0
1774822845.6842067,1.239776611328125e-05,2026-03-29T22:20:45.684,2026-03-29T18:20:45.684,-32413.545,-46147.229999999996,-85661.01,-50162.265,-12163.14,-17430.57,6850.304999999999,-53587.125,5.40743333003677,-1.6806063308220138,-8.402925770776674,-9.861982497340312,-4.858706393054604,-1.7515917019298883,-0.4883164331217851,6.50701719958207,0.591978465,-0.486021705,0.657896265,4.94424,-3.25038,14.619079999999999,69.0
1774822845.6842155,8.821487426757812e-06,2026-03-29T22:20:45.684,2026-03-29T18:20:45.684,-32417.46,-46145.384999999995,-85659.795,-50169.015,-12166.92,-17430.434999999998,6844.455,-53596.89,7.448560188365652,3.2152250333466355,0.6454583054064641,-6.106979005884057,-4.078371562568349,-0.6333194455560319,0.5124275900992323,7.695822457592394,0.591978465,-0.486021705,0.657896265,4.94424,-3.25038,14.619079999999999,69.0
1774822845.68712,0.0029044151306152344,2026-03-29T22:20:45.687,2026-03-29T18:20:45.687,-32413.41,-46134.27,-85640.535,-50162.805,-12168.765,-17436.195,6846.255,-53598.375,6.041856644225402,6.791608677842231,9.183837844273782,0.37210564926296696,-1.3282132744759774,0.9092223852903398,1.3585317514863058,5.2304880509132845,0.591978465,-0.486021705,0.657896265,4.94424,-3.25038,14.619079999999999,69.0
1774822845.687137,1.6927719116210938e-05,2026-03-29T22:20:45.687,2026-03-29T18:20:45.687,-32452.02,-46131.435,-85594.86,-50109.299999999996,-12126.195,-17401.23,6861.6449999999995,-53636.895,1.8700607440761463,7.258790299708283,13.330253358232392,6.543967088293201,2.127237964920631,2.2257427675861368,1.6579459679278647,0.3059107999256425,0.591978465,-0.486021705,0.657896265,4.94424,-3.25038,14.619079999999999,69.0
1774822845.6911163,0.00397944450378418,2026-03-29T22:20:45.691,2026-03-29T18:20:45.691,-32491.17,-46143.045,-85587.48,-50084.729999999996,-12101.13,-17379.54,6874.11,-53679.78,-3.1031800926750104,4.265225160326347,11.321349062474487,9.590009015842076,4.656781290929545,2.682995698520737,1.2333650215326022,-4.708478918064158,0.601621995,-0.483092025,0.65612625,3.00622,-0.7019599999999999,14.252839999999999,69.0
1774822845.6911345,1.811981201171875e-05,2026-03-29T22:20:45.691,2026-03-29T18:20:45.691,-32474.969999999998,-46148.985,-85613.58,-50103.494999999995,-12117.015,-17393.895,6877.53,-53666.325,-6.572009361169056,-0.879152400639793,4.264569867997775,8.204189392502208,5.040767690606391,1.9719699687779628,0.22849867393178938,-7.422967023779753,0.601621995,-0.483092025,0.65612625,3.00622,-0.7019599999999999,14.252839999999999,69.0
1774822845.6959991,0.004864692687988281,2026-03-29T22:20:45.695,2026-03-29T18:20:45.695,-32460.795,-46152.225,-85629.555,-50115.15,-12120.57,-17393.355,6876.405,-53646.525,-6.972327709857659,-5.783781859612338,-4.462422332574339,3.152420346033373,3.0619756305257075,0.2965112016112753,-0.9307200371704105,-6.582089744058162,0.601621995,-0.483092025,0.65612625,3.00622,-0.7019599999999999,14.252839999999999,69.0
1774822845.6960292,3.0040740966796875e-05,2026-03-29T22:20:45.696,2026-03-29T18:20:45.696,-32452.965,-46152.765,-85641.97499999999,-50135.759999999995,-12133.305,-17399.925,6866.054999999999,-53639.325,-4.195335394987341,-8.101576707812475,-10.84329568276028,-3.1472125579675825,-0.3776822375550232,-1.6646176922705944,-1.716409452804944,-2.655088465680931,0.601621995,-0.483092025,0.65612625,3.00622,-0.7019599999999999,14.252839999999999,69.0
1774822845.7034776,0.007448434829711914,2026-03-29T22:20:45.703,2026-03-29T18:20:45.703,-32448.059999999998,-46152.72,-85647.645,-50148.27,-12139.154999999999,-17404.92,6860.115,-53633.295,0.3983149500642333,-6.6612936736300705,-12.090432870683726,-7.79472755835127,-3.6747154959954087,-3.0297249197014513,-1.7441333436002389,2.4194727361451527,0.601621995,-0.483092025,0.65612625,3.00622,-0.7019599999999999,14.252839999999999,69.0
1774822845.7034917,1.4066696166992188e-05,2026-03-29T22:20:45.703,2026-03-29T18:20:45.703,-32448.735,-46156.455,-85645.845,-50148.765,-12141.945,-17403.12,6866.46,-53628.84,4.652955540411272,-2.0567640502757074,-7.870520148946428,-8.756956348916068,-5.279493757781938,-3.1128060103916235,-0.9667318088792722,6.198007338422037,0.601621995,-0.483092025,0.65612625,3.00622,-0.7019599999999999,14.252839999999999,69.0
1774822845.703504,1.239776611328125e-05,2026-03-29T22:20:45.703,2026-03-29T18:20:45.703,-32438.43,-46142.189999999995,-85620.465,-50131.034999999996,-12141.225,-17409.555,6867.495,-53622.18,6.643803432802356,3.6036212605565585,-0.345314527990877,-5.761428503237585,-4.430528075157865,-1.7680621746599314,0.2836180808998794,6.922317904743652,0.601621995,-0.483092025,0.65612625,3.00622,-0.7019599999999999,14.252839999999999,69.0
1774822845.7035084,4.291534423828125e-06,2026-03-29T22:20:45.703,2026-03-29T18:20:45.703,-32435.19,-46134.36,-85612.59,-50120.189999999995,-12136.14,-17408.565,6860.5199999999995,-53624.25,5.560390973951214,7.679029742665371,6.937936425060875,-0.3409635195673539,-1.5177713595482325,0.4917798398582014,1.4360049678294406,4.350528922087966,0.601621995,-0.483092025,0.65612625,3.00622,-0.7019599999999999,14.252839999999999,69.0
1774822845.7109954,0.007487058639526367,2026-03-29T22:20:45.710,2026-03-29T18:20:45.710,-32439.96,-46137.06,-85621.36499999999,-50121.36,-12132.765,-17396.91,6861.375,-53628.615,2.0368038591852193,8.244677589345804,10.735681053303649,4.952216816597415,2.0985077499000533,2.6815883786495456,1.945025281590638,-0.16944103486203677,0.601621995,-0.483092025,0.65612625,3.00622,-0.7019599999999999,14.252839999999999,69.0
1774822845.7110217,2.6226043701171875e-05,2026-03-29T22:20:45.711,2026-03-29T18:20:45.711,-32448.059999999998,-46154.34,-85647.06,-50139.494999999995,-12143.115,-17403.975,6867.855,-53632.17,-2.205733497684908,5.008303991663461,9.564067472846784,7.759017931549678,4.727835483566325,3.771979963650631,1.5543292976682044,-4.401516651323024,0.601621995,-0.483092025,0.65612625,3.00622,-0.7019599999999999,14.252839999999999,69.0
1774822845.711043,2.1219253540039062e-05,2026-03-29T22:20:45.711,2026-03-29T18:20:45.711,-32450.895,-46159.74,-85657.5,-50161.365,-12158.369999999999,-17419.635,6862.32,-53634.465,-5.207575107391249,-0.5461106117354827,4.262132844706609,6.971816327003849,5.145397189223052,3.17439185228339,0.4294357113595824,-6.334609820241572,0.611997945,-0.47961303,0.655576935,-1.4802199999999999,2.45686,15.244739999999998,69.0
1774822845.711053,1.0013580322265625e-05,2026-03-29T22:20:45.711,2026-03-29T18:20:45.711,-32437.26,-46145.115,-85633.875,-50138.369999999995,-12146.535,-17417.925,6849.2699999999995,-53626.994999999995,-5.68940895402912,-5.856066159645641,-2.54227111082472,3.1611568322025785,3.1671190082508662,1.0546436444516711,-0.9104642089970377,-5.150347464950777,0.611997945,-0.47961303,0.655576935,-1.4802199999999999,2.45686,15.244739999999998,69.0
1774822845.7155669,0.004513978958129883,2026-03-29T22:20:45.715,2026-03-29T18:20:45.715,-32435.46,-46141.38,-85625.595,-50123.115,-12133.664999999999,-17403.704999999998,6849.54,-53624.115,-3.6048753811303813,-8.483956629236323,-7.744200804768418,-1.7868997508708548,-0.2672045002974403,-1.6895681874269655,-1.834492919722209,-1.5749057006143863,0.611997945,-0.47961303,0.655576935,-1.4802199999999999,2.45686,15.244739999999998,69.0
1774822845.7155826,1.5735626220703125e-05,2026-03-29T22:20:45.715,2026-03-29T18:20:45.715,-32443.649999999998,-46156.365,-85645.53,-50139.09,-12144.24,-17408.52,6857.73,-53627.4,-0.08511917974466887,-7.250901161765977,-9.191597982772418,-5.60671518918996,-3.5405645589591335,-3.8029075541098796,-1.9015873185909022,2.538482663027837,0.611997945,-0.47961303,0.655576935,-1.4802199999999999,2.45686,15.244739999999998,69.0
1774822845.7193491,0.0037665367126464844,2026-03-29T22:20:45.719,2026-03-29T18:20:45.719,-32450.265,-46174.86,-85669.56,-50156.369999999995,-12155.22,-17415.72,6866.46,-53628.57,3.1651498838519894,-2.7659718877948354,-6.568105283368549,-6.696524574669833,-5.122627823787963,-4.245534373548445,-1.075017081967051,5.1650289153897475,0.611997945,-0.47961303,0.655576935,-1.4802199999999999,2.45686,15.244739999999998,69.0
1774822845.719367,1.7881393432617188e-05,2026-03-29T22:20:45.719,2026-03-29T18:20:45.719,-32435.82,-46168.244999999995,-85674.105,-50156.595,-12159.0,-17419.995,6868.125,-53614.799999999996,4.701734473578488,2.887591438761118,-1.370462818066809,-4.7864119408973655,-4.289283052721471,-2.7044636496864154,0.2563626350510422,5.111130690751346,0.611997945,-0.47961303,0.655576935,-1.4802199999999999,2.45686,15.244739999999998,69.0
1774822845.726061,0.00669407844543457,2026-03-29T22:20:45.726,2026-03-29T18:20:45.726,-32436.945,-46155.869999999995,-85662.0,-50136.03,-12135.195,-17396.505,6870.42,-53618.67,3.9941035138373335,7.142848704259767,3.9272239199156065,-0.9551275773546026,-1.4585030160292025,0.20752033863425587,1.4626076920738935,2.5655281375898453,0.611997945,-0.47961303,0.655576935,-1.4802199999999999,2.45686,15.244739999999998,69.0
1774822845.7260773,1.621246337890625e-05,2026-03-29T22:20:45.726,2026-03-29T18:20:45.726,-32442.614999999998,-46143.585,-85635.72,-50123.07,-12117.42,-17374.77,6869.79,-53634.24,1.5973947550660241,8.134900893175683,7.062284606089014,2.9608279458841773,2.0144713108471537,3.183828190707939,1.9743262981456595,-1.0590709812885335,0.611997945,-0.47961303,0.655576935,-1.4802199999999999,2.45686,15.244739999999998,69.0
1774822845.7261,2.2649765014648438e-05,2026-03-29T22:20:45.726,2026-03-29T18:20:45.726,-32431.815,-46145.115,-85635.18,-50141.07,-12133.17,-17390.43,6865.245,-53621.954999999994,-1.206159875841571,5.524147541745577,6.948348083216788,5.248286837461295,4.48371311512046,4.805674976056332,1.5549753978436307,-3.888961371409111,0.611997945,-0.47961303,0.655576935,-1.4802199999999999,2.45686,15.244739999999998,69.0
1774822845.7261057,5.7220458984375e-06,2026-03-29T22:20:45.726,2026-03-29T18:20:45.726,-32429.969999999998,-46150.2,-85626.18,-50137.695,-12141.855,-17400.239999999998,6866.28,-53615.79,-3.0846322528992958,0.5902532193734199,4.005352606347898,5.065537215016192,4.793508333090474,4.216946700522646,0.4116951486051975,-4.552266877587394,0.611997945,-0.47961303,0.655576935,-1.4802199999999999,2.45686,15.244739999999998,69.0
1774822845.7321544,0.006048679351806641,2026-03-29T22:20:45.732,2026-03-29T18:20:45.732,-32445.045,-46159.155,-85612.14,-50097.465,-12120.345,-17389.53,6869.16,-53637.075,-3.298473611544286,-4.413668212677511,-0.21522605988168264,2.732209393072283,2.8232681314108374,1.572404850822683,-0.90797559486737,-2.849181737074323,0.619078005,-0.479674065,0.6538679550000001,-5.5393799999999995,4.6543,14.97006,69.0
1774822845.7321732,1.8835067749023438e-05,2026-03-29T22:20:45.732,2026-03-29T18:20:45.732,-32443.515,-46183.68,-85646.52,-50117.22,-12128.13,-17391.87,6869.7,-53629.784999999996,-1.994227871574739,-7.31305293692987,-3.846599661361784,-0.5261468097010615,-0.46146385178202454,-1.9732812063994474,-1.78134419697977,0.19961144347626908,0.619078005,-0.479674065,0.6538679550000001,-5.5393799999999995,4.6543,14.97006,69.0
1774822845.7375276,0.005354404449462891,2026-03-29T22:20:45.737,2026-03-29T18:20:45.737,-32454.045,-46196.505,-85654.75499999999,-50130.54,-12131.955,-17392.454999999998,6860.07,-53626.095,-0.03183184792711797,-6.967753542389106,-5.534953808027836,-3.21020164839558,-3.4752854933537476,-4.76129228676133,-1.8075330360078712,2.930101404880862,0.619078005,-0.479674065,0.6538679550000001,-5.5393799999999995,4.6543,14.97006,69.0
1774822845.7375517,2.4080276489257812e-05,2026-03-29T22:20:45.737,2026-03-29T18:20:45.737,-32460.344999999998,-46161.314999999995,-85629.915,-50124.735,-12132.404999999999,-17395.965,6855.344999999999,-53638.064999999995,1.5293531885061291,-3.7058925972398913,-4.910527477806859,-4.233624593410094,-4.773962924341742,-5.400728973060303,-0.9927598018182414,3.922419420389366,0.619078005,-0.479674065,0.6538679550000001,-5.5393799999999995,4.6543,14.97006,69.0
1774822845.7375736,2.193450927734375e-05,2026-03-29T22:20:45.737,2026-03-29T18:20:45.737,-32439.824999999997,-46117.215,-85622.94,-50139.674999999996,-12155.805,-17426.07,6853.094999999999,-53631.99,1.9949966855288088,0.920947734450719,-2.558110093324589,-3.3516540234295773,-3.7469084611238075,-3.4596952533944907,0.2624385989437862,2.732782277673465,0.619078005,-0.479674065,0.6538679550000001,-5.5393799999999995,4.6543,14.97006,69.0
1774822845.737584,1.049041748046875e-05,2026-03-29T22:20:45.737,2026-03-29T18:20:45.737,-32425.965,-46111.814999999995,-85623.84,-50154.479999999996,-12165.84,-17441.055,6862.679999999999,-53626.77,1.353178773371967,4.897101803063857,0.4003088714772856,-1.1693668498159144,-0.9094532316427496,0.26647635821364957,1.3627076014700956,0.0952373757589445,0.619078005,-0.479674065,0.6538679550000001,-5.5393799999999995,4.6543,14.97006,69.0
1774822845.7438881,0.006304025650024414,2026-03-29T22:20:45.743,2026-03-29T18:20:45.743,-32426.91,-46120.275,-85616.28,-50141.43,-12151.215,-17424.63,6867.2699999999995,-53627.895,0.19581435487879154,6.635458008321621,2.8435884522486488,1.2247998352076934,2.346681663050187,4.0679781030782864,1.803323141130781,-2.499639011391778,0.619078005,-0.479674065,0.6538679550000001,-5.5393799999999995,4.6543,14.97006,69.0
1774822845.7439141,2.5987625122070312e-05,2026-03-29T22:20:45.743,2026-03-29T18:20:45.743,-32433.12,-46142.055,-85624.83,-50125.68,-12140.505,-17411.355,6856.0199999999995,-53621.954999999994,-0.6846016416315963,5.60058955288618,4.0501471158361015,2.791920244966907,4.427182178525715,6.098672721278364,1.4030091549683978,-3.6170639397155986,0.619078005,-0.479674065,0.6538679550000001,-5.5393799999999995,4.6543,14.97006,69.0
1774822845.752785,0.008870840072631836,2026-03-29T22:20:45.752,2026-03-29T18:20:45.752,-32448.78,-46171.665,-85651.02,-50124.015,-12135.645,-17406.72,6846.75,-53627.354999999996,-0.7790011869084097,2.4237369850273742,3.8313593339408962,2.984833308906822,4.310598140296486,5.268629841917543,0.3759483446223865,-2.649039530706992,0.619078005,-0.479674065,0.6538679550000001,-5.5393799999999995,4.6543,14.97006,69.0
1774822845.752804,1.9073486328125e-05,2026-03-29T22:20:45.752,2026-03-29T18:20:45.752,-32441.039999999997,-46178.1,-85670.01,-50133.869999999995,-12147.525,-17429.265,6837.705,-53612.729999999996,-0.14841260473459367,-1.4769453658844718,2.4373483201938053,1.9164801437075645,2.05066156767344,1.8213355078620594,-0.7840857580223539,-0.13774456125086657,0.619078005,-0.479674065,0.6538679550000001,-5.5393799999999995,4.6543,14.97006,69.0
1774822845.752818,1.4066696166992188e-05,2026-03-29T22:20:45.752,2026-03-29T18:20:45.752,-32451.434999999998,-46173.42,-85667.12999999999,-50132.79,-12145.185,-17430.03,6844.41,-53625.825,0.6450800256464341,-4.545531686301756,0.3692715456310973,0.2177668026004795,-1.2415206223212802,-2.706818850095645,-1.5442384593721514,2.5177874543541288,0.621275265,-0.477843015,0.65160966,-7.996239999999999,6.867,15.26,69.0
1774822845.752822,3.814697265625e-06,2026-03-29T22:20:45.752,2026-03-29T18:20:45.752,-32465.385,-46155.735,-85640.22,-50125.14,-12134.43,-17402.715,6864.66,-53649.72,0.9154868617398108,-5.701689952329452,-1.7792680998533499,-1.308479857175319,-3.9333247360764556,-6.162822839917892,-1.5789431372396663,3.8164089252219253,0.621275265,-0.477843015,0.65160966,-7.996239999999999,6.867,15.26,69.0
1774822845.7555575,0.002735614776611328,2026-03-29T22:20:45.755,2026-03-29T18:20:45.755,-32466.015,-46142.415,-85611.375,-50112.854999999996,-12119.895,-17384.579999999998,6882.03,-53656.47,0.3124389415046285,-4.68071851244027,-3.415519204377147,-2.055982802610989,-4.670243328795823,-6.795755391880735,-0.907326961494665,2.9723952594604888,0.621275265,-0.477843015,0.65160966,-7.996239999999999,6.867,15.26,69.0
1774822845.7555737,1.621246337890625e-05,2026-03-29T22:20:45.755,2026-03-29T18:20:45.755,-32449.77,-46130.354999999996,-85592.745,-50101.784999999996,-12119.13,-17390.43,6875.235,-53650.575,-0.9137381942255708,-2.019895297141836,-4.023788963702094,-1.8418410939597416,-3.051691591635525,-4.138066926552053,0.13520121444748237,0.3612909204838069,0.621275265,-0.477843015,0.65160966,-7.996239999999999,6.867,15.26,69.0
1774822845.7590275,0.0034537315368652344,2026-03-29T22:20:45.759,2026-03-29T18:20:45.759,-32427.989999999998,-46122.479999999996,-85598.415,-50101.38,-12120.435,-17385.21,6867.2699999999995,-53634.329999999994,-2.0118847917703935,1.2327067528349418,-3.2884005023973892,-0.9155612412712181,0.15179901408737723,0.6918908732968662,1.0672164928706038,-2.6492751053244734,0.621275265,-0.477843015,0.65160966,-7.996239999999999,6.867,15.26,69.0
1774822845.7590408,1.33514404296875e-05,2026-03-29T22:20:45.759,2026-03-29T18:20:45.759,-32443.02,-46147.14,-85628.97,-50116.59,-12130.425,-17387.595,6863.804999999999,-53638.29,-2.157484528434996,3.925916425733592,-1.263092848734563,0.21814880287282618,3.3571598212532585,5.448784702982634,1.4856888210626087,-4.406571529733319,0.621275265,-0.477843015,0.65160966,-7.996239999999999,6.867,15.26,69.0
1774822845.776586,0.017545223236083984,2026-03-29T22:20:45.776,2026-03-29T18:20:45.776,-32464.98,-46154.295,-85637.16,-50126.354999999996,-12128.31,-17375.985,6872.085,-53656.2,-0.9749356606527976,5.173997540583766,1.50572199268324,1.0553557266287836,4.939851740785351,7.798939699304823,1.238859649821255,-3.8554849102212776,0.621275265,-0.477843015,0.65160966,-7.996239999999999,6.867,15.26,69.0
1774822845.776601,1.5020370483398438e-05,2026-03-29T22:20:45.776,2026-03-29T18:20:45.776,-32449.454999999998,-46143.36,-85639.95,-50151.195,-12142.17,-17386.785,6873.4349999999995,-53646.704999999994,1.1505654694137122,4.593516104049672,4.035751180441999,1.304528582216931,4.046339547630442,6.460639944413935,0.4742406412729016,-1.1342307115894297,0.621275265,-0.477843015,0.65160966,-7.996239999999999,6.867,15.26,69.0
1774822845.776615,1.3828277587890625e-05,2026-03-29T22:20:45.776,2026-03-29T18:20:45.776,-32435.37,-46136.88,-85635.58499999999,-50154.975,-12150.27,-17408.97,6864.66,-53638.2,3.178822644031838,2.384056942826265,5.218875353813089,0.9715316800214677,1.0457718717938493,1.8905433617854328,-0.448647427190749,2.440997776632079,0.621275265,-0.477843015,0.65160966,-7.996239999999999,6.867,15.26,69.0
1774822845.7766192,4.291534423828125e-06,2026-03-29T22:20:45.776,2026-03-29T18:20:45.776,-32431.004999999997,-46134.765,-85626.98999999999,-50139.585,-12144.869999999999,-17415.989999999998,6858.9,-53632.35,3.9223766822501167,-0.7351960429919135,4.312068980011628,0.3045990164493222,-2.6150001475983418,-3.8467732106399506,-1.1297514528959425,5.015790489490845,0.621275265,-0.477843015,0.65160966,-7.996239999999999,6.867,15.26,69.0
1774822845.7766244,5.245208740234375e-06,2026-03-29T22:20:45.776,2026-03-29T18:20:45.776,-32443.515,-46141.064999999995,-85619.16,-50120.145,-12125.744999999999,-17391.78,6863.625,-53637.659999999996,2.709050147498503,-3.715796754772489,1.3891035683161004,-0.3524964793277389,-5.100606169597271,-8.006335523628167,-1.3012660045208355,5.149447507863694,0.619932495,-0.478575435,0.650205855,-8.72872,9.6138,14.405439999999999,69.0
1774822845.7766285,4.0531158447265625e-06,2026-03-29T22:20:45.776,2026-03-29T18:20:45.776,-32454.495,-46153.619999999995,-85622.805,-50117.58,-12131.595,-17390.97,6868.304999999999,-53646.704999999994,-0.15934278218657755,-5.477797091057928,-2.5149058541039553,-0.7215301947417498,-5.095877183000519,-8.473404378614187,-0.9275431811631263,2.5941234416362837,0.619932495,-0.478575435,0.650205855,-8.72872,9.6138,14.405439999999999,69.0
1774822845.7766328,4.291534423828125e-06,2026-03-29T22:20:45.776,2026-03-29T18:20:45.776,-32444.73,-46162.395,-85652.325,-50139.134999999995,-12143.835,-17402.85,6861.014999999999,-53636.85,-3.4320693203089285,-5.268421393410314,-5.725954474473256,-0.6962043933224107,-2.488515522267644,-4.832343296877113,-0.19823179785838613,-1.5108355950546462,0.619932495,-0.478575435,0.650205855,-8.72872,9.6138,14.405439999999999,69.0
1774822845.7766368,4.0531158447265625e-06,2026-03-29T22:20:45.776,2026-03-29T18:20:45.776,-32440.59,-46168.47,-85680.495,-50150.07,-12147.074999999999,-17405.864999999998,6855.4349999999995,-53630.325,-5.458467975931557,-2.9841199465163113,-6.649712017309101,-0.3596901141956897,1.5240211806126047,1.3444821387964245,0.5697196486706003,-5.1539385499697685,0.619932495,-0.478575435,0.650205855,-8.72872,9.6138,14.405439999999999,69.0
1774822845.780548,0.003911256790161133,2026-03-29T22:20:45.780,2026-03-29T18:20:45.780,-32436.675,-46160.595,-85675.545,-50141.655,-12143.25,-17407.98,6846.795,-53625.015,-5.018676909529739,0.6815343778900842,-4.57764302609221,0.07938915625901367,4.979775404503877,7.168935051467699,1.0699236585858052,-6.440134706423327,0.619932495,-0.478575435,0.650205855,-8.72872,9.6138,14.405439999999999,69.0
1774822845.7806203,7.224082946777344e-05,2026-03-29T22:20:45.780,2026-03-29T18:20:45.780,-32461.605,-46155.689999999995,-85647.23999999999,-50129.325,-12127.095,-17393.445,6852.105,-53656.02,-2.018738316952693,4.3832756429519435,-0.1668647320515901,0.3946459005180524,6.103898292829972,9.787086371534466,1.124414264790212,-4.565917312731193,0.619932495,-0.478575435,0.650205855,-8.72872,9.6138,14.405439999999999,69.0
1774822845.788659,0.008038759231567383,2026-03-29T22:20:45.788,2026-03-29T18:20:45.788,-32460.57,-46148.445,-85626.765,-50123.115,-12121.154999999999,-17379.63,6869.88,-53658.585,2.333087658444823,6.582448465701588,4.710291646161746,0.4444068322057924,4.208083924781902,7.77607770011241,0.7389083348834568,-0.28311511798567135,0.619932495,-0.478575435,0.650205855,-8.72872,9.6138,14.405439999999999,69.0
1774822845.7886853,2.6226043701171875e-05,2026-03-29T22:20:45.788,2026-03-29T18:20:45.788,-32438.969999999998,-46140.075,-85611.95999999999,-50115.555,-12133.845,-17392.68,6869.25,-53632.215,6.011036747085796,6.185168461174484,7.756409150484923,0.22838139024650947,0.08623561002317295,1.9042423852370323,0.08375209071430666,4.404562018705777,0.619932495,-0.478575435,0.650205855,-8.72872,9.6138,14.405439999999999,69.0
1774822845.7887063,2.09808349609375e-05,2026-03-29T22:20:45.788,2026-03-29T18:20:45.788,-32429.43,-46134.225,-85605.48,-50105.115,-12133.89,-17403.39,6856.695,-53622.36,7.124744391438869,3.0972211826182576,7.348220945791919,-0.12079649199039587,-4.313021021814513,-5.147125192832057,-0.5820220839005853,7.188939817742572,0.619932495,-0.478575435,0.650205855,-8.72872,9.6138,14.405439999999999,69.0
1774822845.7887137,7.3909759521484375e-06,2026-03-29T22:20:45.788,2026-03-29T18:20:45.788,-32428.98,-46135.439999999995,-85609.08,-50104.89,-12130.289999999999,-17402.489999999998,6853.545,-53625.465,4.887965513520931,-1.5902568743435175,3.4109942962621216,-0.4045666395925868,-6.805151569666075,-10.009247195116531,-1.0095157368201935,6.596653931908093,0.619932495,-0.478575435,0.650205855,-8.72872,9.6138,14.405439999999999,69.0
1774822845.7942164,0.0055027008056640625,2026-03-29T22:20:45.794,2026-03-29T18:20:45.794,-32425.515,-46137.645,-85616.235,-50114.115,-12141.9,-17416.305,6847.5599999999995,-53618.985,0.1076478106857991,-5.943926254022203,-2.40616925757694,-0.4549429462368631,-6.047765034009187,-10.238210829020984,-1.0462808157586927,2.756776659834935,0.616514535,-0.478453365,0.648863085,-9.3849,11.490779999999999,12.055399999999999,69.0
1774822845.7942464,3.0040740966796875e-05,2026-03-29T22:20:45.794,2026-03-29T18:20:45.794,-32442.614999999998,-46146.24,-85623.93,-50114.924999999996,-12136.994999999999,-17414.595,6851.745,-53635.77,-5.0920732065133905,-7.980949367987716,-7.4103788652723965,-0.2192849560223791,-2.2481513485382028,-5.540765590652394,-0.6845163414979035,-2.5988842432426207,0.616514535,-0.478453365,0.648863085,-9.3849,11.490779999999999,12.055399999999999,69.0
1774822845.7942724,2.5987625122070312e-05,2026-03-29T22:20:45.794,2026-03-29T18:20:45.794,-32474.969999999998,-46164.104999999996,-85628.97,-50106.735,-12116.97,-17391.285,6871.724999999999,-53662.409999999996,-8.225812352481837,-6.589782579093088,-9.126179297969738,0.20513112107622875,2.867527333063135,2.000949599359381,-0.05991223556121055,-6.928216092796671,0.616514535,-0.478453365,0.648863085,-9.3849,11.490779999999999,12.055399999999999,69.0
1774822845.7942824,1.0013580322265625e-05,2026-03-29T22:20:45.794,2026-03-29T18:20:45.794,-32471.145,-46168.92,-85628.52,-50109.345,-12122.145,-17387.73,6872.985,-53658.854999999996,-7.647367984071418,-2.1433480543622645,-6.540199768697465,0.6066225853452111,6.839701462503431,8.853064570174809,0.5960293446505494,-8.096470487012,0.616514535,-0.478453365,0.648863085,-9.3849,11.490779999999999,12.055399999999999,69.0
1774822845.7993147,0.00503230094909668,2026-03-29T22:20:45.799,2026-03-29T18:20:45.799,-32468.489999999998,-46165.275,-85623.61499999999,-50101.515,-12114.045,-17374.14,6861.78,-53657.369999999995,-3.4094905553443415,3.5355040569911154,-0.6945882666241462,0.7550324632181421,7.657939153526154,11.69241681868657,1.0356443819947405,-5.43127214228719,0.616514535,-0.478453365,0.648863085,-9.3849,11.490779999999999,12.055399999999999,69.0
1774822845.7993422,2.7418136596679688e-05,2026-03-29T22:20:45.799,2026-03-29T18:20:45.799,-32462.145,-46151.505,-85629.78,-50108.985,-12115.439999999999,-17370.09,6855.21,-53655.704999999994,2.664350344027942,7.911705934161394,5.714867915517198,0.5188470827163559,4.771736727640721,9.022558401526116,1.0833122973940619,-0.09244103365671451,0.616514535,-0.478453365,0.648863085,-9.3849,11.490779999999999,12.055399999999999,69.0
1774822845.80309,0.0037479400634765625,2026-03-29T22:20:45.803,2026-03-29T18:20:45.803,-32443.065,-46133.235,-85627.845,-50116.095,-12125.609999999999,-17382.015,6862.634999999999,-53644.14,7.77349247809616,8.886582619231024,9.591923269539121,-0.051548529810862824,-0.5766830260128707,1.9548947551518692,0.7040442001165267,5.44117588674126,0.616514535,-0.478453365,0.648863085,-9.3849,11.490779999999999,12.055399999999999,69.0
1774822845.8031056,1.5497207641601562e-05,2026-03-29T22:20:45.803,2026-03-29T18:20:45.803,-32438.969999999998,-46140.21,-85638.87,-50130.18,-12141.72,-17403.12,6863.985,-53640.765,9.44967104927111,5.829170520499574,8.956922355847304,-0.7211290710443573,-5.8881107262934025,-6.250566559155116,0.02642538683347789,8.53702802140545,0.616514535,-0.478453365,0.648863085,-9.3849,11.490779999999999,12.055399999999999,69.0
1774822845.8076208,0.004515171051025391,2026-03-29T22:20:45.807,2026-03-29T18:20:45.807,-32449.815,-46168.244999999995,-85660.56,-50138.505,-12145.949999999999,-17408.295,6865.92,-53643.42,6.7622954437600695,-0.027397994362417643,3.974630819055742,-1.1615510858402884,-8.579668678460854,-11.697486485949897,-0.6944611167074074,7.6723479000348,0.616514535,-0.478453365,0.648863085,-9.3849,11.490779999999999,12.055399999999999,69.0
1774822845.8076544,3.361701965332031e-05,2026-03-29T22:20:45.807,2026-03-29T18:20:45.807,-32469.48,-46200.689999999995,-85683.015,-50146.965,-12152.744999999999,-17414.145,6866.91,-53653.634999999995,0.8252822485041165,-6.067081373998728,-3.04758287694136,-1.1045519579186778,-7.242438657738911,-11.713072502757612,-1.1680225637690427,3.184638793108474,0.616514535,-0.478453365,0.648863085,-9.3849,11.490779999999999,12.055399999999999,69.0
1774822845.8136544,0.006000041961669922,2026-03-29T22:20:45.813,2026-03-29T18:20:45.813,-32467.815,-46209.42,-85682.97,-50142.465,-12150.945,-17411.895,6857.28,-53649.765,-5.667125138152699,-9.471949749943615,-8.732223453659522,-0.48875968453241786,-2.3697815141158114,-6.162924938435027,-1.1836965738208316,-2.8614937908463656,0.613218645,-0.476134035,0.647764455,-12.31482,13.734,10.31576,69.0
1774822845.813682,2.765655517578125e-05,2026-03-29T22:20:45.813,2026-03-29T18:20:45.813,-32456.835,-46185.479999999996,-85664.34,-50129.82,-12138.75,-17401.005,6839.82,-53644.275,-9.681192756643851,-8.564233430514749,-10.274289869525557,0.4759879725122069,3.8173975213933287,2.428182175028261,-0.7059014633023122,-7.637830586205412,0.613218645,-0.476134035,0.647764455,-12.31482,13.734,10.31576,69.0
1774822845.8137107,2.86102294921875e-05,2026-03-29T22:20:45.813,2026-03-29T18:20:45.813,-32435.684999999998,-46137.33,-85642.73999999999,-50129.64,-12133.755,-17396.415,6841.125,-53633.88,-9.281595884007414,-3.6579256951358268,-6.846675646238162,1.3719442845958354,8.391213310909786,10.033307821706215,0.0952840969131828,-8.89078516035126,0.613218645,-0.476134035,0.647764455,-12.31482,13.734,10.31576,69.0
1774822845.813721,1.0251998901367188e-05,2026-03-29T22:20:45.813,2026-03-29T18:20:45.813,-32420.25,-46115.865,-85623.56999999999,-50139.27,-12142.8,-17405.91,6848.91,-53622.405,-4.575888520726874,3.0224373699408926,-0.054941236266756635,1.7508913731129756,9.110647050282141,13.024185728579567,0.8993086060288106,-6.014568363125866,0.613218645,-0.476134035,0.647764455,-12.31482,13.734,10.31576,69.0
1774822845.8193977,0.005676746368408203,2026-03-29T22:20:45.819,2026-03-29T18:20:45.819,-32444.504999999997,-46111.77,-85582.665,-50109.165,-12119.355,-17383.005,6862.679999999999,-53647.29,2.300321357203497,8.35535795699214,6.811890233544306,1.3521861239960804,5.521131129327008,9.912335646333643,1.3617542237601499,-0.3439289793503602,0.613218645,-0.476134035,0.647764455,-12.31482,13.734,10.31576,69.0
1774822845.8194308,3.314018249511719e-05,2026-03-29T22:20:45.819,2026-03-29T18:20:45.819,-32445.18,-46124.28,-85599.495,-50114.34,-12129.029999999999,-17397.765,6865.0199999999995,-53651.204999999994,8.166777643605815,9.80427738658104,10.385964419817677,0.2573233409840226,-0.7810318144571967,2.0897873035902,1.2632062696115491,5.475012816810641,0.613218645,-0.476134035,0.647764455,-12.31482,13.734,10.31576,69.0
1774822845.823158,0.0037271976470947266,2026-03-29T22:20:45.823,2026-03-29T18:20:45.823,-32417.235,-46134.09,-85626.09,-50132.025,-12151.439999999999,-17423.505,6855.165,-53619.299999999996,10.291339512336107,6.6536625601695185,8.89202705919607,-1.104521040772308,-6.8666551619919245,-6.799834556098665,0.6151743968037847,8.735020754494329,0.613218645,-0.476134035,0.647764455,-12.31482,13.734,10.31576,69.0
1774822845.8231823,2.4318695068359375e-05,2026-03-29T22:20:45.823,2026-03-29T18:20:45.823,-32404.77,-46143.314999999995,-85644.315,-50148.585,-12170.52,-17438.399999999998,6844.05,-53598.104999999996,7.6816642268758635,0.38403229726214483,3.0473689755048645,-2.1212649934898384,-9.847622336963857,-12.573053250993144,-0.32909283613983764,7.941610659155216,0.613218645,-0.476134035,0.647764455,-12.31482,13.734,10.31576,69.0
1774822845.839287,0.016104698181152344,2026-03-29T22:20:45.839,2026-03-29T18:20:45.839,-32449.77,-46150.875,-85625.595,-50120.009999999995,-12138.345,-17404.29,6851.61,-53633.88,1.5565953922163194,-6.018708777037739,-4.273324695773264,-2.271804269052703,-8.256599870345966,-12.49016384475615,-1.1717642515438924,3.504851734187217,0.613218645,-0.476134035,0.647764455,-12.31482,13.734,10.31576,69.0
1774822845.8393176,3.0517578125e-05,2026-03-29T22:20:45.839,2026-03-29T18:20:45.839,-32494.454999999998,-46151.955,-85610.385,-50083.064999999995,-12092.895,-17359.02,6874.38,-53694.225,-5.230121155908931,-9.499419033977226,-9.455431650188073,-1.386819532168661,-2.7688944050208844,-6.563010792968264,-1.5392444642903258,-2.474051633731777,0.613218645,-0.476134035,0.647764455,-12.31482,13.734,10.31576,69.0
1774822845.8393424,2.47955322265625e-05,2026-03-29T22:20:45.839,2026-03-29T18:20:45.839,-32472.945,-46162.259999999995,-85666.68,-50130.225,-12126.555,-17392.005,6874.0199999999995,-53671.14,-9.538149971565556,-8.417978119732373,-9.942975082269589,0.23218121626394175,4.0891318773327825,2.4413069277963473,-1.2502318299068498,-7.209782914507814,0.61059414,-0.47668335,0.646543755,-13.1999,13.581399999999999,8.42352,69.0
1774822845.839353,1.0728836059570312e-05,2026-03-29T22:20:45.839,2026-03-29T18:20:45.839,-32467.815,-46168.29,-85673.43,-50132.295,-12130.38,-17397.63,6859.889999999999,-53660.52,-9.41550914232979,-3.348890742741188,-5.5169677859945265,1.9077166194803945,9.116964030317387,10.305694442560176,-0.40604892282019217,-8.545715952543675,0.61059414,-0.47668335,0.646543755,-13.1999,13.581399999999999,8.42352,69.0
1774822845.8393652,1.2159347534179688e-05,2026-03-29T22:20:45.839,2026-03-29T18:20:45.839,-32472.09,-46164.869999999995,-85645.035,-50103.854999999996,-12102.93,-17356.095,6868.8,-53668.305,-4.9976433027297755,3.2050519540117013,1.593317397062418,2.869889724707189,9.947577445451843,13.355446956271525,0.6422586901789917,-5.947040639462985,0.61059414,-0.47668335,0.646543755,-13.1999,13.581399999999999,8.42352,69.0
1774822845.8393743,9.059906005859375e-06,2026-03-29T22:20:45.839,2026-03-29T18:20:45.839,-32466.555,-46163.475,-85644.495,-50119.2,-12114.63,-17366.22,6873.389999999999,-53659.71,1.5900514561131673,8.04879942730874,7.828028609356434,2.609859583955961,6.168999746242449,10.188253573160198,1.440907740400948,-0.7120560577767157,0.61059414,-0.47668335,0.646543755,-13.1999,13.581399999999999,8.42352,69.0
1774822845.8393853,1.0967254638671875e-05,2026-03-29T22:20:45.839,2026-03-29T18:20:45.839,-32458.094999999998,-46153.35,-85623.03,-50115.33,-12126.689999999999,-17387.954999999998,6869.474999999999,-53654.174999999996,7.265341859536876,8.869333792204747,10.084234979067254,1.1407423578346487,-0.47529935963908826,2.3210295853694953,1.6322291417948174,4.680036748161061,0.61059414,-0.47668335,0.646543755,-13.1999,13.581399999999999,8.42352,69.0
1774822845.839394,8.821487426757812e-06,2026-03-29T22:20:45.839,2026-03-29T18:20:45.839,-32436.989999999998,-46129.229999999996,-85588.425,-50098.905,-12131.505,-17404.965,6862.995,-53640.405,9.450969370990856,5.364926968981018,7.272734563987755,-0.9652561081893805,-6.903384275072656,-6.545978088339749,1.1168753039894437,7.755586563022549,0.61059414,-0.47668335,0.646543755,-13.1999,13.581399999999999,8.42352,69.0
1774822845.8436913,0.0042972564697265625,2026-03-29T22:20:45.843,2026-03-29T18:20:45.843,-32436.989999999998,-46139.265,-85608.27,-50113.259999999995,-12143.97,-17419.68,6854.219999999999,-53635.59,7.263081122979328,-0.6326064519229885,0.8575720928155887,-2.7981769695830625,-10.140694718693057,-12.286721944487164,0.10474631593841201,7.193965196942159,0.61059414,-0.47668335,0.646543755,-13.1999,13.581399999999999,8.42352,69.0
1774822845.8437576,6.628036499023438e-05,2026-03-29T22:20:45.843,2026-03-29T18:20:45.843,-32438.25,-46145.295,-85632.705,-50135.174999999996,-12153.734999999999,-17423.595,6852.0599999999995,-53634.645,1.8701602616064734,-6.099151720304854,-5.8945356932585575,-3.5051021367549167,-8.708846958509193,-12.28574078340442,-0.9712221698310278,3.3982204159709664,0.61059414,-0.47668335,0.646543755,-13.1999,13.581399999999999,8.42352,69.0
1774822845.847104,0.0033464431762695312,2026-03-29T22:20:45.847,2026-03-29T18:20:45.847,-32452.065,-46138.14,-85620.015,-50128.965,-12143.789999999999,-17413.065,6858.315,-53654.265,-4.123855703894417,-8.344484190537347,-9.573777492508128,-2.6861545859825355,-3.3030432549642113,-6.6367955425867144,-1.6424601997405115,-1.7590153300442992,0.61059414,-0.47668335,0.646543755,-13.1999,13.581399999999999,8.42352,69.0
1774822845.8471198,1.5735626220703125e-05,2026-03-29T22:20:45.847,2026-03-29T18:20:45.847,-32458.905,-46141.695,-85618.98,-50121.72,-12131.369999999999,-17406.045,6855.48,-53665.74,-7.94895536281635,-6.351643705265605,-8.353280247833029,-0.6079771259059407,3.553526640901765,1.949036204585673,-1.610965777106525,-5.864181957486593,0.61059414,-0.47668335,0.646543755,-13.1999,13.581399999999999,8.42352,69.0
1774822845.8517232,0.004603385925292969,2026-03-29T22:20:45.851,2026-03-29T18:20:45.851,-32441.535,-46132.155,-85605.48,-50099.04,-12117.869999999999,-17399.565,6843.915,-53651.159999999996,-7.966703616144498,-1.2558727343677196,-2.905611145563197,1.8751771929149348,8.703155655543375,9.458121942127205,-0.8824250023411513,-7.10325864561862,0.60705411,-0.476073,0.64221027,-13.06256,13.1236,3.70818,69.0
1774822845.8517475,2.4318695068359375e-05,2026-03-29T22:20:45.851,2026-03-29T18:20:45.851,-32435.055,-46127.07,-85596.075,-50082.03,-12104.189999999999,-17373.825,6854.3099999999995,-53642.564999999995,-4.380426981118482,4.270588871524221,3.9538606886884633,3.6736029608643648,9.823152809204128,12.468081760845946,0.2335800893530014,-5.0703489048302215,0.60705411,-0.476073,0.64221027,-13.06256,13.1236,3.70818,69.0
1774822845.8607054,0.008957862854003906,2026-03-29T22:20:45.860,2026-03-29T18:20:45.860,-32446.62,-46134.36,-85608.315,-50093.775,-12110.58,-17365.59,6875.28,-53648.189999999995,0.9536612909237849,7.404176350454568,8.71191564638818,3.9416376115241754,6.480293403195684,9.718792731150515,1.257008015386118,-0.88106135370134,0.60705411,-0.476073,0.64221027,-13.06256,13.1236,3.70818,69.0
1774822845.8607233,1.7881393432617188e-05,2026-03-29T22:20:45.860,2026-03-29T18:20:45.860,-32455.8,-46137.78,-85618.665,-50107.229999999996,-12119.939999999999,-17374.32,6877.349999999999,-53657.685,5.4834669970272625,6.612319108406464,8.951998381965918,2.472804215351697,0.28822056363646653,2.6340761067950043,1.7458168965184806,3.4278250181738734,0.60705411,-0.476073,0.64221027,-13.06256,13.1236,3.70818,69.0
1774822845.8607442,2.09808349609375e-05,2026-03-29T22:20:45.860,2026-03-29T18:20:45.860,-32439.239999999998,-46134.945,-85630.68,-50123.384999999995,-12133.935,-17394.795,6871.905,-53649.54,7.193766142199564,2.414917770338546,4.582710315164373,-0.17299283172467927,-5.8830960605184925,-5.418553191806226,1.4878680789639853,5.893441294416975,0.60705411,-0.476073,0.64221027,-13.06256,13.1236,3.70818,69.0
1774822845.8607488,4.5299530029296875e-06,2026-03-29T22:20:45.860,2026-03-29T18:20:45.860,-32442.254999999997,-46147.365,-85643.325,-50134.905,-12136.59,-17389.44,6868.17,-53646.704999999994,5.514005067481924,-2.9183968003617102,-2.1249727297245213,-2.8808517642599485,-9.253353308325517,-10.744077029236065,0.5925376929215147,5.528282324105235,0.60705411,-0.476073,0.64221027,-13.06256,13.1236,3.70818,69.0
1774822845.8633807,0.0026319026947021484,2026-03-29T22:20:45.863,2026-03-29T18:20:45.863,-32454.405,-46151.729999999996,-85638.87,-50127.255,-12136.949999999999,-17391.51,6866.099999999999,-53649.54,1.487192436435241,-6.569379885352146,-7.7080187326314835,-4.451691069527489,-8.394661832255723,-11.029233725132672,-0.5571417836017756,2.7109807087390796,0.60705411,-0.476073,0.64221027,-13.06256,13.1236,3.70818,69.0
1774822845.8634124,3.170967102050781e-05,2026-03-29T22:20:45.863,2026-03-29T18:20:45.863,-32452.739999999998,-46145.97,-85625.86499999999,-50110.56,-12130.56,-17393.579999999998,6862.7699999999995,-53654.579999999994,-2.836352003528805,-6.643324003005115,-9.288958663539013,-4.133127879774238,-3.832728298554519,-6.347669336179476,-1.4699641784608313,-1.0851100014565789,0.60705411,-0.476073,0.64221027,-13.06256,13.1236,3.70818,69.0
1774822845.8689663,0.0055539608001708984,2026-03-29T22:20:45.868,2026-03-29T18:20:45.868,-32450.895,-46138.14,-85610.97,-50098.5,-12115.845,-17377.245,6872.67,-53654.805,-5.441073338112107,-3.148518151985612,-6.051280814832517,-1.9755762772569128,2.2643082279317577,0.9756312174366756,-1.7572874925549715,-4.054748028543113,0.60705411,-0.476073,0.64221027,-13.06256,13.1236,3.70818,69.0
1774822845.8689933,2.6941299438476562e-05,2026-03-29T22:20:45.868,2026-03-29T18:20:45.868,-32464.485,-46152.854999999996,-85629.78,-50108.759999999995,-12117.105,-17378.37,6870.0599999999995,-53658.09,-5.294749444175132,2.0223713527092197,0.34150936102212787,1.153025992310846,7.129419387139328,7.527248908341856,-1.2982616419887045,-4.922704531246264,0.60705411,-0.476073,0.64221027,-13.06256,13.1236,3.70818,69.0
1774822845.873094,0.004100799560546875,2026-03-29T22:20:45.873,2026-03-29T18:20:45.873,-32461.695,-46151.82,-85640.4,-50119.965,-12126.869999999999,-17393.355,6858.99,-53656.38,-2.7531689027054775,6.095392224171646,6.597064808030274,3.9152191732041803,8.664281347416297,10.410204526354804,-0.2896120077847246,-3.4917547817022965,0.605894445,-0.473082285,0.63793782,-11.94858,12.45216,0.56462,69.0
1774822845.8731098,1.5735626220703125e-05,2026-03-29T22:20:45.873,2026-03-29T18:20:45.873,-32456.655,-46140.39,-85619.205,-50112.945,-12119.58,-17389.079999999998,6860.07,-53655.615,0.7349197544013785,6.8781898680896525,9.480645009938094,5.075698661227197,6.344653422788431,8.52979626415347,0.8397944791785794,-0.6416639119341095,0.605894445,-0.473082285,0.63793782,-11.94858,12.45216,0.56462,69.0
1774822845.8752365,0.0021266937255859375,2026-03-29T22:20:45.875,2026-03-29T18:20:45.875,-32461.739999999998,-46143.045,-85616.595,-50121.765,-12128.58,-17391.105,6863.759999999999,-53659.755,3.425635705088599,3.9192505001666644,7.47544446917287,4.052603585554961,1.3731267764983448,2.9876205840360606,1.6118762279870449,2.177660030111184,0.605894445,-0.473082285,0.63793782,-11.94858,12.45216,0.56462,69.0
1774822845.8752532,1.6689300537109375e-05,2026-03-29T22:20:45.875,2026-03-29T18:20:45.875,-32464.215,-46150.56,-85620.105,-50113.395,-12138.705,-17405.19,6856.965,-53662.229999999996,4.150594612362789,-1.2427172110744422,1.568507517806059,1.2032688009914807,-3.9472866546241647,-3.5447804940335974,1.7015407979505943,3.677635621193441,0.605894445,-0.473082285,0.63793782,-11.94858,12.45216,0.56462,69.0
1774822845.879364,0.004110813140869141,2026-03-29T22:20:45.879,2026-03-29T18:20:45.879,-32463.855,-46155.869999999995,-85619.745,-50088.96,-12129.21,-17408.43,6847.695,-53662.185,2.8258457563842305,-5.873370746274707,-5.2406830639308275,-2.2933890603151883,-7.291153176588796,-8.123605132191038,1.0729450263797284,3.3202521647455043,0.605894445,-0.473082285,0.63793782,-11.94858,12.45216,0.56462,69.0
1774822845.8793793,1.52587890625e-05,2026-03-29T22:20:45.879,2026-03-29T18:20:45.879,-32461.425,-46160.865,-85637.87999999999,-50089.229999999996,-12118.77,-17393.04,6853.995,-53657.909999999996,0.3770265963412684,-7.472412053486618,-9.461471392876788,-4.923010603874756,-7.3304126554273,-8.866978348534793,-0.006776451928315781,1.4958254126865649,0.605894445,-0.473082285,0.63793782,-11.94858,12.45216,0.56462,69.0
1774822845.8832333,0.003854036331176758,2026-03-29T22:20:45.883,2026-03-29T18:20:45.883,-32462.1,-46161.314999999995,-85662.09,-50106.78,-12115.935,-17386.425,6866.325,-53657.189999999995,-1.8320225719167573,-5.096656980929693,-8.891311465402849,-5.491078446660194,-4.247472003259902,-5.717630721627645,-1.081166597290819,-0.7596205443748499,0.605894445,-0.473082285,0.63793782,-11.94858,12.45216,0.56462,69.0
1774822845.8832595,2.6226043701171875e-05,2026-03-29T22:20:45.883,2026-03-29T18:20:45.883,-32464.62,-46159.02,-85663.62,-50112.54,-12110.355,-17379.09,6875.505,-53661.555,-2.7358878733274365,0.11489867624084961,-3.7490645276298684,-3.664508198986657,0.4479239826505831,-0.3314140737763662,-1.6971785629131722,-2.3292874422694725,0.605894445,-0.473082285,0.63793782,-11.94858,12.45216,0.56462,69.0
1774822845.9012232,0.017963647842407227,2026-03-29T22:20:45.901,2026-03-29T18:20:45.901,-32460.254999999997,-46147.77,-85645.26,-50128.064999999995,-12118.455,-17383.005,6869.16,-53657.46,-2.0793387244328403,5.496556863836647,3.4152388245376493,-0.15473544266854855,4.663989543718664,4.789423842790196,-1.5959648882128956,-2.562635844603551,0.605894445,-0.473082285,0.63793782,-11.94858,12.45216,0.56462,69.0
