unix_time_s,dt_s,UTC,LOCAL,EMG1_Raw,EMG2_Raw,EMG3_Raw,EMG4_Raw,EMG5_Raw,EMG6_Raw,EMG7_Raw,EMG8_Raw,EMG1_Filtered,EMG2_Filtered,EMG3_Filtered,EMG4_Filtered,EMG5_Filtered,EMG6_Filtered,EMG7_Filtered,EMG8_Filtered,Accel1_Raw,Accel2_Raw,Accel3_Raw,Gyro1_Raw,Gyro2_Raw,Gyro3_Raw,Battery
1774823617.188064,,2026-03-29T22:33:37.188,2026-03-29T18:33:37.188,-21327.21,-44739.314999999995,-76586.67,-48672.765,-8399.16,-16309.8,8293.275,-66253.95,-0.45279253136343817,-0.17254199464421707,-0.26871500321719116,1.1941648281923212,0.7985332355244176,0.12568787280491664,-0.7423859235249216,-0.45289078615971945,0.12145965,-0.96752682,0.29040453,-2.77732,-21.562379999999997,-9.155999999999999,67.0
1774823617.1880772,1.3113021850585938e-05,2026-03-29T22:33:37.188,2026-03-29T18:33:37.188,-21324.78,-44737.965,-76582.89,-48673.845,-8402.58,-16312.814999999999,8293.59,-66249.94499999999,-0.35697079107498597,4.585946440409202,9.244424714456352,0.7503720398384793,-1.5502351882721603,-0.2476208579594117,1.152739997098676,-2.4362598340730894,0.12145965,-0.96752682,0.29040453,-2.77732,-21.562379999999997,-9.155999999999999,67.0
1774823617.1917906,0.003713369369506836,2026-03-29T22:33:37.191,2026-03-29T18:33:37.191,-21320.55,-44733.869999999995,-76573.665,-48666.104999999996,-8406.765,-16318.484999999999,8292.735,-66247.965,-0.04777753678646064,7.3104778074576915,14.757316786987001,0.43748119713975986,-2.9492178443057973,-0.422173692127784,2.5048506906849393,-3.2871723869482135,0.12145965,-0.96752682,0.29040453,-2.77732,-21.562379999999997,-9.155999999999999,67.0
1774823617.1918037,1.3113021850585938e-05,2026-03-29T22:33:37.191,2026-03-29T18:33:37.191,-21319.155,-44729.369999999995,-76565.205,-48659.58,-8408.43,-16323.164999999999,8288.73,-66247.965,0.3225625231171934,6.725203463743272,13.662396887245073,0.48261938194444853,-2.730879220272942,-0.31153313209891764,2.716514813700968,-2.5947396321508767,0.12145965,-0.96752682,0.29040453,-2.77732,-21.562379999999997,-9.155999999999999,67.0
1774823617.1974118,0.005608081817626953,2026-03-29T22:33:37.197,2026-03-29T18:33:37.197,-21322.62,-44733.509999999995,-76569.84,-48660.659999999996,-8407.574999999999,-16323.84,8289.18,-66249.36,0.555988466840748,3.0633073683666225,6.328211095462499,0.6861670208998715,-1.1021739575889815,-0.006259860840243479,1.7138119471953586,-0.6755339507477239,0.12145965,-0.96752682,0.29040453,-2.77732,-21.562379999999997,-9.155999999999999,67.0
1774823617.197434,2.2172927856445312e-05,2026-03-29T22:33:37.197,2026-03-29T18:33:37.197,-21326.175,-44738.82,-76577.265,-48655.034999999996,-8401.725,-16318.574999999999,8288.369999999999,-66251.79,0.5112962892108819,-2.0269597034525866,-4.015639067017254,0.5765428147445337,0.9922145463410919,0.28389320789288613,-0.02665952097920219,1.5719675562569395,0.12145965,-0.96752682,0.29040453,-2.77732,-21.562379999999997,-9.155999999999999,67.0
1774823617.2028532,0.005419254302978516,2026-03-29T22:33:37.202,2026-03-29T18:33:37.202,-21328.469999999998,-44748.945,-76610.025,-48653.189999999995,-8394.119999999999,-16310.925,8289.36,-66251.385,0.18394259190810872,-6.230632640650741,-12.710845769479647,-0.20657259252862842,2.3954506502491624,0.3591223270136628,-1.7036345836147255,3.0900039220014803,0.11706513,-0.9646581750000001,0.289489005,-9.6901,-22.035439999999998,-8.6982,67.0
1774823617.2028732,2.002716064453125e-05,2026-03-29T22:33:37.202,2026-03-29T18:33:37.202,-21330.18,-44755.604999999996,-76622.44499999999,-48660.615,-8395.965,-16308.855,8288.46,-66248.28,-0.2801714797382619,-7.625840436326939,-15.77972375291054,-1.5506368046485626,2.368227529547891,0.15497274056976754,-2.5633387677165236,3.161654854766488,0.11706513,-0.9646581750000001,0.289489005,-9.6901,-22.035439999999998,-8.6982,67.0
1774823617.2029061,3.2901763916015625e-05,2026-03-29T22:33:37.202,2026-03-29T18:33:37.202,-21326.94,-44750.34,-76608.405,-48675.6,-8403.39,-16310.744999999999,8289.494999999999,-66246.165,-0.6487177685045145,-5.5665536393586,-11.751026849646415,-2.790771772155679,0.9835844437258839,-0.21069795476590877,-2.2438425961201798,1.7509586259684702,0.11706513,-0.9646581750000001,0.289489005,-9.6901,-22.035439999999998,-8.6982,67.0
1774823617.2029145,8.344650268554688e-06,2026-03-29T22:33:37.202,2026-03-29T18:33:37.202,-21333.285,-44743.275,-76588.02,-48681.54,-8402.85,-16307.73,8290.755,-66256.38,-0.717258505678142,-0.9809376763670121,-2.361476721437373,-3.017874889371887,-0.9254169867641528,-0.5004453274145817,-0.9318708305085903,-0.4791885374594666,0.11706513,-0.9646581750000001,0.289489005,-9.6901,-22.035439999999998,-8.6982,67.0
1774823617.2079487,0.005034208297729492,2026-03-29T22:33:37.207,2026-03-29T18:33:37.207,-21332.25,-44737.02,-76571.50499999999,-48680.1,-8412.84,-16313.67,8291.835,-66256.245,-0.4185509805498527,4.052016545653021,8.199712458470756,-1.6402355876892274,-2.2363292037141993,-0.49782701318313,0.7381590101403251,-2.480454613338556,0.11706513,-0.9646581750000001,0.289489005,-9.6901,-22.035439999999998,-8.6982,67.0
1774823617.20797,2.1219253540039062e-05,2026-03-29T22:33:37.207,2026-03-29T18:33:37.207,-21328.38,-44736.659999999996,-76567.095,-48659.58,-8406.72,-16313.355,8294.22,-66255.61499999999,0.129988175056273,7.251964629258844,15.171056680867261,1.1208576435488646,-2.1701188829719453,-0.14660421610414617,1.9909947832811352,-3.314986086526065,0.11706513,-0.9646581750000001,0.289489005,-9.6901,-22.035439999999998,-8.6982,67.0
1774823617.2116785,0.0037086009979248047,2026-03-29T22:33:37.211,2026-03-29T18:33:37.211,-21331.125,-44737.92,-76561.11,-48639.015,-8396.46,-16312.814999999999,8287.74,-66260.79,0.6701377922903548,7.175842738287073,15.37460392262403,4.133232909705048,-0.7387986887847544,0.3947144362661939,2.274973463044596,-2.5978986753490663,0.11706513,-0.9646581750000001,0.289489005,-9.6901,-22.035439999999998,-8.6982,67.0
1774823617.2116933,1.4781951904296875e-05,2026-03-29T22:33:37.211,2026-03-29T18:33:37.211,-21332.79,-44739.99,-76563.765,-48636.225,-8385.029999999999,-16307.64,8285.085,-66261.015,0.9230957948745322,3.8700750875418057,8.667260629859241,5.7962423757140265,1.2433619675779686,0.8224774286060607,1.5108304190345463,-0.6761157510396801,0.11706513,-0.9646581750000001,0.289489005,-9.6901,-22.035439999999998,-8.6982,67.0
1774823617.216212,0.004518747329711914,2026-03-29T22:33:37.216,2026-03-29T18:33:37.216,-21336.39,-44746.604999999996,-76574.97,-48643.155,-8378.865,-16300.439999999999,8288.19,-66261.285,0.7308592035501162,-1.158942481551731,-1.9760022274948381,4.863239001512537,2.6015610379184095,0.851908478172373,0.10993502555736748,1.5404087137205116,0.11706513,-0.9646581750000001,0.289489005,-9.6901,-22.035439999999998,-8.6982,67.0
1774823617.2162273,1.52587890625e-05,2026-03-29T22:33:37.216,2026-03-29T18:33:37.216,-21335.355,-44747.64,-76582.215,-48650.58,-8386.515,-16307.685,8294.715,-66261.015,0.14819869179637432,-5.63721542539733,-11.790642710998023,1.231312418085474,2.462411374534398,0.3888953173708422,-1.2404178620273496,3.012845580412606,0.11706513,-0.9646581750000001,0.289489005,-9.6901,-22.035439999999998,-8.6982,67.0
1774823617.220087,0.0038597583770751953,2026-03-29T22:33:37.220,2026-03-29T18:33:37.220,-21330.09,-44741.564999999995,-76574.52,-48643.244999999995,-8391.015,-16312.635,8298.18,-66258.54,-0.5660018554333669,-7.557275167844436,-16.36515920482138,-3.763525636771367,0.7744710756434399,-0.3888330682857702,-1.9150511174353206,3.0645807062430093,0.116759955,-0.963437475,0.291686265,-14.78694,-20.387359999999997,-6.5770599999999995,67.0
1774823617.220111,2.384185791015625e-05,2026-03-29T22:33:37.220,2026-03-29T18:33:37.220,-21325.364999999998,-44740.35,-76570.33499999999,-48641.985,-8389.395,-16310.519999999999,8292.51,-66255.165,-1.062265288625135,-6.0810247315136,-13.629989231769743,-7.798561342817894,-1.6095477953876185,-1.0966168933821925,-1.6457182323145225,1.6951607688442605,0.116759955,-0.963437475,0.291686265,-14.78694,-20.387359999999997,-6.5770599999999995,67.0
1774823617.2238317,0.0037207603454589844,2026-03-29T22:33:37.223,2026-03-29T18:33:37.223,-21320.954999999998,-44735.939999999995,-76562.415,-48645.494999999995,-8387.235,-16305.66,8287.154999999999,-66250.485,-1.0700609503068643,-1.904009871492139,-4.793684595559829,-8.635552292905102,-3.356362439139836,-1.3320927168711971,-0.6313523883409089,-0.43017211302818326,0.116759955,-0.963437475,0.291686265,-14.78694,-20.387359999999997,-6.5770599999999995,67.0
1774823617.2238553,2.3603439331054688e-05,2026-03-29T22:33:37.223,2026-03-29T18:33:37.223,-21322.575,-44732.79,-76568.4,-48661.695,-8400.42,-16311.465,8292.06,-66250.8,-0.5418844021816582,3.0761902006999025,6.196624843142339,-5.320782892959872,-3.3734675038839135,-0.8958325702185493,0.5836014149852283,-2.3058998908464274,0.116759955,-0.963437475,0.291686265,-14.78694,-20.387359999999997,-6.5770599999999995,67.0
1774823617.2279148,0.004059553146362305,2026-03-29T22:33:37.227,2026-03-29T18:33:37.227,-21322.485,-44727.165,-76575.78,-48675.869999999995,-8410.095,-16314.93,8302.185,-66251.295,0.30350252596734084,6.627479368342969,14.426802893320986,1.11531822676858,-1.446107512019732,0.07499967129839398,1.3947045320738538,-3.066662345055313,0.116759955,-0.963437475,0.291686265,-14.78694,-20.387359999999997,-6.5770599999999995,67.0
1774823617.2279418,2.6941299438476562e-05,2026-03-29T22:33:37.227,2026-03-29T18:33:37.227,-21323.745,-44728.2,-76576.00499999999,-48669.975,-8406.18,-16313.984999999999,8303.31,-66251.79,1.0690760331829225,7.187481115214403,16.220457219087773,7.902495305496075,1.5667183867504382,1.1411735230327142,1.4395433450667832,-2.3911151828210526,0.116759955,-0.963437475,0.291686265,-14.78694,-20.387359999999997,-6.5770599999999995,67.0
1774823617.2330143,0.005072593688964844,2026-03-29T22:33:37.233,2026-03-29T18:33:37.233,-21328.245,-44736.479999999996,-76579.965,-48663.854999999996,-8400.465,-16312.23,8297.595,-66254.22,1.3650231705739786,4.550997860970817,10.784703669940992,11.714956367706476,4.113688662934026,1.7612930415471977,0.7648070171925121,-0.6384925157601532,0.116759955,-0.963437475,0.291686265,-14.78694,-20.387359999999997,-6.5770599999999995,67.0
1774823617.2330449,3.0517578125e-05,2026-03-29T22:33:37.233,2026-03-29T18:33:37.233,-21324.555,-44737.83,-76579.65,-48660.119999999995,-8397.404999999999,-16311.914999999999,8293.23,-66251.43,1.00564073789269,-0.061590370804700596,0.5590944797200587,10.294056162511808,4.7412646467057105,1.565477050825842,-0.22092687398703162,1.340820814650142,0.116759955,-0.963437475,0.291686265,-14.78694,-20.387359999999997,-6.5770599999999995,67.0
1774823617.2361803,0.0031354427337646484,2026-03-29T22:33:37.236,2026-03-29T18:33:37.236,-21320.415,-44744.445,-76589.37,-48665.7,-8403.57,-16320.33,8281.755,-66245.84999999999,0.11889169734819599,-4.573369289341251,-9.884793950187412,3.7198419289623903,2.892867318873276,0.5647279359382432,-0.977235347633486,2.6216836824825185,0.116759955,-0.963437475,0.291686265,-14.78694,-20.387359999999997,-6.5770599999999995,67.0
1774823617.2361956,1.52587890625e-05,2026-03-29T22:33:37.236,2026-03-29T18:33:37.236,-21316.905,-44747.46,-76594.86,-48672.18,-8409.33,-16326.765,8275.23,-66239.955,-0.8936421991173423,-6.9900654599670515,-15.894292309027394,-5.362519618402739,-0.7120808218499095,-0.8189214093753568,-1.1205353495904493,2.642141830356687,0.116759955,-0.963437475,0.291686265,-14.78694,-20.387359999999997,-6.5770599999999995,67.0
1774823617.2403378,0.004142284393310547,2026-03-29T22:33:37.240,2026-03-29T18:33:37.240,-21317.219999999998,-44745.39,-76593.915,-48678.705,-8414.955,-16330.814999999999,8273.565,-66243.23999999999,-1.5376317941854847,-6.282851913974381,-14.814134615648198,-12.78864014878687,-4.351086316590023,-1.931361685036923,-0.6197966656571857,1.45306754302031,0.11828583000000001,-0.96996822,0.29260179000000003,-15.96196,-17.30484,-5.27996,67.0
1774823617.2403607,2.288818359375e-05,2026-03-29T22:33:37.240,2026-03-29T18:33:37.240,-21344.399999999998,-44743.005,-76576.72499999999,-48657.42,-8393.715,-16309.71,8285.265,-66288.375,-1.4668831155980446,-2.8235829634878464,-7.161858003433416,-14.79051337680139,-6.124022542654911,-2.198149024886052,0.20100527809213103,-0.3330573865120841,0.11828583000000001,-0.96996822,0.29260179000000003,-15.96196,-17.30484,-5.27996,67.0
1774823617.2437775,0.003416776657104492,2026-03-29T22:33:37.243,2026-03-29T18:33:37.243,-21345.57,-44736.615,-76565.11499999999,-48640.005,-8378.145,-16295.49,8297.369999999999,-66289.59,-0.6670629961289787,1.8100058679516737,3.6208587568309945,-9.897813532662616,-4.934162348283768,-1.4192782205696446,0.8510750264314124,-1.8578341731293566,0.11828583000000001,-0.96996822,0.29260179000000003,-15.96196,-17.30484,-5.27996,67.0
1774823617.2437935,1.5974044799804688e-05,2026-03-29T22:33:37.243,2026-03-29T18:33:37.243,-21337.2,-44741.655,-76575.78,-48648.555,-8386.065,-16303.904999999999,8292.195,-66272.58,0.5143764018662631,5.55734748520167,12.72117034265212,0.13130579900503875,-1.1220191627085845,0.10371541059003189,0.9483163966159049,-2.434428526317758,0.11828583000000001,-0.96996822,0.29260179000000003,-15.96196,-17.30484,-5.27996,67.0
1774823617.2479408,0.00414729118347168,2026-03-29T22:33:37.247,2026-03-29T18:33:37.247,-21329.594999999998,-44735.895,-76575.375,-48650.715,-8385.48,-16299.63,8298.449999999999,-66266.37,1.5176584381480398,6.793390922660299,16.109655208601353,10.898259958462505,3.6002059088098024,1.683089249610491,0.4330526881327478,-1.8616392340060526,0.11828583000000001,-0.96996822,0.29260179000000003,-15.96196,-17.30484,-5.27996,67.0
1774823617.2479665,2.574920654296875e-05,2026-03-29T22:33:37.247,2026-03-29T18:33:37.247,-21326.895,-44736.479999999996,-76577.22,-48651.345,-8385.705,-16299.404999999999,8302.68,-66264.255,1.8361865153915449,5.032164937603019,12.329524429109023,17.30138867082406,6.924269865200309,2.559393624850361,-0.3960614520199161,-0.48865982699553795,0.11828583000000001,-0.96996822,0.29260179000000003,-15.96196,-17.30484,-5.27996,67.0
1774823617.259195,0.011228561401367188,2026-03-29T22:33:37.259,2026-03-29T18:33:37.259,-21328.245,-44737.11,-76575.69,-48658.814999999995,-8393.445,-16305.119999999999,8301.42,-66263.04,1.2720490140019143,1.111753550826911,3.1239976887727425,15.966007141367978,7.077241974264357,2.2695873374334554,-1.0450108916167928,0.98716041006084,0.11828583000000001,-0.96996822,0.29260179000000003,-15.96196,-17.30484,-5.27996,67.0
1774823617.2592225,2.7418136596679688e-05,2026-03-29T22:33:37.259,2026-03-29T18:33:37.259,-21329.145,-44739.63,-76580.09999999999,-48664.215,-8401.59,-16312.365,8296.695,-66257.775,0.052645831062368115,-3.206176923688483,-7.368803432164772,7.003470341096202,3.752372996260962,0.8890588429696125,-1.1003110492935084,1.876174072658645,0.11828583000000001,-0.96996822,0.29260179000000003,-15.96196,-17.30484,-5.27996,67.0
1774823617.2592685,4.601478576660156e-05,2026-03-29T22:33:37.259,2026-03-29T18:33:37.259,-21328.92,-44743.409999999996,-76587.84,-48667.185,-8401.86,-16312.32,8296.515,-66250.70999999999,-1.2581995336687428,-6.030170686627729,-14.481316605352406,-5.811305784803991,-1.644231181734484,-0.9780361799591702,-0.4692672727707685,1.8236381251342129,0.11828583000000001,-0.96996822,0.29260179000000003,-15.96196,-17.30484,-5.27996,67.0
1774823617.2592766,8.106231689453125e-06,2026-03-29T22:33:37.259,2026-03-29T18:33:37.259,-21333.239999999998,-44752.32,-76600.125,-48673.485,-8404.65,-16317.539999999999,8289.63,-66252.06,-2.0216684344211866,-6.167488670519725,-15.09941974534813,-16.631955400986392,-6.592740148651193,-2.4667511626034053,0.5482576293700304,0.9507570329095342,0.11828583000000001,-0.96996822,0.29260179000000003,-15.96196,-17.30484,-5.27996,67.0
1774823617.2592852,8.58306884765625e-06,2026-03-29T22:33:37.259,2026-03-29T18:33:37.259,-21329.28,-44751.689999999995,-76604.58,-48671.28,-8400.24,-16315.515,8288.505,-66250.8,-1.8363951764609325,-3.6246266255545407,-9.030549359303029,-20.23088247261175,-8.647311997506149,-2.857252561475497,1.402358951403936,-0.24629923018133654,0.11523408,-0.978940365,0.288634515,-11.643379999999999,-16.511319999999998,-5.1121,67.0
1774823617.2592933,8.106231689453125e-06,2026-03-29T22:33:37.259,2026-03-29T18:33:37.259,-21328.605,-44748.314999999995,-76596.56999999999,-48661.38,-8392.23,-16309.529999999999,8292.33,-66251.43,-0.7484602923598622,0.42836744645468267,0.94610809195012,-14.539171170870206,-6.647594032783478,-1.925978131004374,1.5818351855960278,-1.1715626072490015,0.11523408,-0.978940365,0.288634515,-11.643379999999999,-16.511319999999998,-5.1121,67.0
1774823617.2685013,0.009207963943481445,2026-03-29T22:33:37.268,2026-03-29T18:33:37.268,-21320.19,-44736.479999999996,-76572.675,-48653.595,-8391.285,-16307.505,8294.355,-66246.435,0.7507555919402222,4.19790243317568,10.354598604325222,-1.794970099838505,-1.352418461921749,-0.0694495139055821,0.9000257127085604,-1.4285300291159535,0.11523408,-0.978940365,0.288634515,-11.643379999999999,-16.511319999999998,-5.1121,67.0
1774823617.2685146,1.33514404296875e-05,2026-03-29T22:33:37.268,2026-03-29T18:33:37.268,-21321.675,-44732.025,-76557.78,-48649.5,-8390.52,-16308.045,8299.485,-66252.59999999999,1.9474272431822397,6.06123085729679,15.036722708224383,12.323602610644409,4.843180924185569,1.866434668439352,-0.37611681608349523,-0.9921201880394318,0.11523408,-0.978940365,0.288634515,-11.643379999999999,-16.511319999999998,-5.1121,67.0
1774823617.268535,2.0265579223632812e-05,2026-03-29T22:33:37.268,2026-03-29T18:33:37.268,-21332.204999999998,-44734.905,-76561.73999999999,-48654.405,-8396.775,-16314.93,8293.095,-66263.84999999999,2.2474253129854813,5.263180576382158,12.996717472519318,21.253222864560023,9.005036659007311,2.9774293403627836,-1.6313015491940774,-0.17772475246513342,0.11523408,-0.978940365,0.288634515,-11.643379999999999,-16.511319999999998,-5.1121,67.0
1774823617.2685397,4.76837158203125e-06,2026-03-29T22:33:37.268,2026-03-29T18:33:37.268,-21326.085,-44734.32,-76568.715,-48654.18,-8396.73,-16312.365,8286.705,-66252.51,1.4725920442982856,2.217144678516847,5.25457572965522,20.62710269268108,9.062384184844182,2.7292346459475567,-2.19930368876829,0.5586745556275327,0.11523408,-0.978940365,0.288634515,-11.643379999999999,-16.511319999999998,-5.1121,67.0
1774823617.2726784,0.0041387081146240234,2026-03-29T22:33:37.272,2026-03-29T18:33:37.272,-21320.64,-44739.81,-76600.485,-48665.025,-8400.33,-16312.32,8284.185,-66241.89,-0.03742848479432538,-1.7068741317245621,-4.658320923275163,10.422474959464614,4.8396911134744744,1.2177425603673742,-1.7079170193977635,0.8707244740848917,0.11523408,-0.978940365,0.288634515,-11.643379999999999,-16.511319999999998,-5.1121,67.0
1774823617.272706,2.765655517578125e-05,2026-03-29T22:33:37.272,2026-03-29T18:33:37.272,-21320.594999999998,-44742.78,-76610.43,-48676.275,-8399.654999999999,-16310.474999999999,8287.289999999999,-66245.76,-1.5748169626322683,-4.799364900527895,-12.314256164860787,-4.888526371680514,-1.7974258108953296,-0.8669152197193143,-0.29538899341134034,0.6867483078218736,0.11523408,-0.978940365,0.288634515,-11.643379999999999,-16.511319999999998,-5.1121,67.0
1774823617.2774975,0.0047914981842041016,2026-03-29T22:33:37.277,2026-03-29T18:33:37.277,-21323.295,-44744.715,-76598.73,-48685.229999999996,-8401.59,-16310.654999999999,8296.47,-66247.425,-2.398525942341774,-5.755210215006961,-14.37446614045057,-18.319323138922076,-7.778558958417856,-2.5598471792902306,1.420003350354031,0.20996335391821033,0.11523408,-0.978940365,0.288634515,-11.643379999999999,-16.511319999999998,-5.1121,67.0
1774823617.2775204,2.288818359375e-05,2026-03-29T22:33:37.277,2026-03-29T18:33:37.277,-21339.36,-44746.695,-76581.855,-48683.295,-8399.385,-16306.695,8299.529999999999,-66265.965,-2.0945160945794816,-4.221187296137673,-10.050970801719087,-23.594530312808,-10.266857160615375,-3.074817564352793,2.6154135252270647,-0.2310090715829008,0.11523408,-0.978940365,0.288634515,-11.643379999999999,-16.511319999999998,-5.1121,67.0
1774823617.2873404,0.009819984436035156,2026-03-29T22:33:37.287,2026-03-29T18:33:37.287,-21342.329999999998,-44744.445,-76565.565,-48679.155,-8403.21,-16311.779999999999,8293.725,-66271.14,-0.7845424585021493,-0.9191333475499462,-1.4019856851967294,-18.114225830425227,-8.017656330530246,-2.1757595059512522,2.6585121953916806,-0.3855882270494361,0.11523408,-0.984921795,0.284117925,-5.31048,-15.977219999999999,-3.17408,67.0
1774823617.2873583,1.7881393432617188e-05,2026-03-29T22:33:37.287,2026-03-29T18:33:37.287,-21336.975,-44744.67,-76563.22499999999,-48660.75,-8397.99,-16311.24,8290.98,-66263.355,0.9224026498480588,2.693918345390116,7.647010463013396,-4.241474927887964,-2.000810229536437,-0.2881382330651763,1.4317469971493149,-0.2195343455934775,0.11523408,-0.984921795,0.284117925,-5.31048,-15.977219999999999,-3.17408,67.0
1774823617.2873807,2.2411346435546875e-05,2026-03-29T22:33:37.287,2026-03-29T18:33:37.287,-21335.985,-44746.244999999995,-76559.985,-48629.384999999995,-8382.51,-16306.019999999999,8288.324999999999,-66262.31999999999,2.2169177988613877,5.068517537664094,13.091297900346623,11.72815783973871,5.024785507359965,1.703859921099857,-0.5772990008971195,0.08687232505215721,0.11523408,-0.984921795,0.284117925,-5.31048,-15.977219999999999,-3.17408,67.0
1774823617.2873852,4.5299530029296875e-06,2026-03-29T22:33:37.287,2026-03-29T18:33:37.287,-21340.8,-44752.229999999996,-76564.665,-48607.47,-8371.035,-16304.58,8284.59,-66269.79,2.477475294541015,5.225034671248254,12.626552033678783,22.460814218883012,9.794637471389152,2.8772327017210717,-2.4741037725115542,0.271420755196968,0.11523408,-0.984921795,0.284117925,-5.31048,-15.977219999999999,-3.17408,67.0
1774823617.289306,0.0019207000732421875,2026-03-29T22:33:37.289,2026-03-29T18:33:37.289,-21340.934999999998,-44754.795,-76573.62,-48592.89,-8366.355,-16303.68,8286.525,-66269.34,1.571644862957794,3.153480613364524,6.625604387573895,22.994702849720756,10.074928795547216,2.7055125919903436,-3.3605482514463807,0.16812552435360303,0.11523408,-0.984921795,0.284117925,-5.31048,-15.977219999999999,-3.17408,67.0
1774823617.2893252,1.9311904907226562e-05,2026-03-29T22:33:37.289,2026-03-29T18:33:37.289,-21337.38,-44748.045,-76571.28,-48598.38,-8373.96,-16308.224999999999,8287.154999999999,-66267.54,-0.07731588024996665,-0.21001066831377288,-2.1026341003397286,13.060964525572231,5.720005458739841,1.301015559190465,-2.7587447158213094,-0.178898530700048,0.11523408,-0.984921795,0.284117925,-5.31048,-15.977219999999999,-3.17408,67.0
1774823617.2921028,0.002777576446533203,2026-03-29T22:33:37.292,2026-03-29T18:33:37.292,-21335.175,-44747.955,-76584.465,-48632.715,-8390.52,-16309.8,8289.63,-66263.625,-1.691977257671334,-3.4064159389135273,-9.630611218152643,-2.783520545520696,-1.2547743713590156,-0.6502528797426993,-0.8555067610256569,-0.5360189552061259,0.11523408,-0.984921795,0.284117925,-5.31048,-15.977219999999999,-3.17408,67.0
1774823617.2921295,2.6702880859375e-05,2026-03-29T22:33:37.292,2026-03-29T18:33:37.292,-21334.005,-44746.38,-76603.455,-48695.715,-8420.535,-16317.314999999999,8291.025,-66257.91,-2.512774271348952,-5.085324556463477,-12.686569454089001,-17.27661320859042,-7.620514130250988,-2.2258556204258584,1.5531868717797175,-0.6247095128608037,0.11523408,-0.984921795,0.284117925,-5.31048,-15.977219999999999,-3.17408,67.0
1774823617.2964792,0.004349708557128906,2026-03-29T22:33:37.296,2026-03-29T18:33:37.296,-21331.98,-44737.83,-76608.405,-48753.09,-8445.645,-16329.195,8289.045,-66260.745,-2.1598794254393257,-4.57207923385139,-10.080680746226118,-23.824363645876804,-10.45075942047163,-2.709853330199774,3.4012388217171714,-0.304799385728382,0.11523408,-0.984921795,0.284117925,-5.31048,-15.977219999999999,-3.17408,67.0
1774823617.296511,3.170967102050781e-05,2026-03-29T22:33:37.296,2026-03-29T18:33:37.296,-21321.45,-44727.39,-76588.02,-48741.255,-8434.08,-16327.664999999999,8289.539999999999,-66254.535,-0.8101403954426082,-2.1340949887130596,-3.1589813361969363,-19.53952950464325,-8.484829344427295,-1.9259677849512595,3.8270594864038983,0.3150720124992031,0.11523408,-0.984921795,0.284117925,-5.31048,-15.977219999999999,-3.17408,67.0
1774823617.300402,0.0038909912109375,2026-03-29T22:33:37.300,2026-03-29T18:33:37.300,-21316.364999999998,-44729.505,-76570.965,-48685.725,-8409.51,-16322.445,8285.94,-66246.93,0.8941545461307548,1.156223622769528,4.883195901234428,-6.526766672022739,-2.695197180774836,-0.30246007732148905,2.570917091799486,0.9123870944738782,0.12182586000000001,-0.99218496,0.284239995,2.19744,-13.291459999999999,-0.6714399999999999,67.0
1774823617.3004177,1.5735626220703125e-05,2026-03-29T22:33:37.300,2026-03-29T18:33:37.300,-21311.415,-44725.68,-76552.92,-48643.965,-8403.75,-16323.345,8282.385,-66241.575,2.1567173020451604,3.8925250416579145,10.481159885055169,9.16363487438258,4.199268017073757,1.355946357321313,0.11356891880580271,1.120889332087205,0.12182586000000001,-0.99218496,0.284239995,2.19744,-13.291459999999999,-0.6714399999999999,67.0
1774823617.3059556,0.005537986755371094,2026-03-29T22:33:37.305,2026-03-29T18:33:37.305,-21304.89,-44717.04,-76546.395,-48637.845,-8400.33,-16320.105,8263.935,-66241.08,2.40523037837894,4.932912218149348,11.286038737249644,20.388190712216236,9.028391782176003,2.2698935927947255,-2.5117897156791913,0.7453504587988397,0.12182586000000001,-0.99218496,0.284239995,2.19744,-13.291459999999999,-0.6714399999999999,67.0
1774823617.3059757,2.002716064453125e-05,2026-03-29T22:33:37.305,2026-03-29T18:33:37.305,-21326.355,-44718.39,-76547.97,-48636.63,-8380.17,-16302.779999999999,8258.625,-66275.64,1.5534979655693968,3.8724307044000956,7.147494244839477,22.205988470509467,9.64923918685367,2.0592812319947362,-4.157713759313482,-0.10150673695568328,0.12182586000000001,-0.99218496,0.284239995,2.19744,-13.291459999999999,-0.6714399999999999,67.0
1774823617.3079991,0.002023458480834961,2026-03-29T22:33:37.307,2026-03-29T18:33:37.307,-21322.53,-44720.009999999995,-76548.285,-48633.884999999995,-8373.015,-16294.005,8286.39,-66262.185,0.02617678175167815,1.1962321607235984,0.08419461445209164,14.076770611756183,5.909128895120578,0.9066295679626923,-4.0629055210538105,-1.0257275572165447,0.12182586000000001,-0.99218496,0.284239995,2.19744,-13.291459999999999,-0.6714399999999999,67.0
1774823617.3080132,1.4066696166992188e-05,2026-03-29T22:33:37.308,2026-03-29T18:33:37.308,-21335.445,-44743.275,-76572.45,-48655.17,-8393.445,-16305.615,8316.765,-66264.705,-1.457520822702655,-1.9420450626561434,-6.69954580324463,-0.027691111779440232,-0.34530474210113643,-0.5630847828040298,-2.1972814491798585,-1.5408927479792003,0.12182586000000001,-0.99218496,0.284239995,2.19744,-13.291459999999999,-0.6714399999999999,67.0
1774823617.312736,0.0047228336334228516,2026-03-29T22:33:37.312,2026-03-29T18:33:37.312,-21346.11,-44757.945,-76590.27,-48670.38,-8406.09,-16314.705,8312.13,-66273.03,-2.229102027554479,-4.21550681352508,-10.271831376017566,-13.58555094795193,-6.18861091845229,-1.6154951248517602,0.7012679673840109,-1.3260525669956418,0.12182586000000001,-0.99218496,0.284239995,2.19744,-13.291459999999999,-0.6714399999999999,67.0
1774823617.3127563,2.0265579223632812e-05,2026-03-29T22:33:37.312,2026-03-29T18:33:37.312,-21338.01,-44751.15,-76582.75499999999,-48665.025,-8399.789999999999,-16307.505,8304.48,-66266.145,-1.9761467203242902,-4.681243707169569,-9.23990245649314,-20.581465947231937,-9.004105034708997,-1.77754879792028,3.4208102174821278,-0.41541169616169804,0.12182586000000001,-0.99218496,0.284239995,2.19744,-13.291459999999999,-0.6714399999999999,67.0
1774823617.3209507,0.008194446563720703,2026-03-29T22:33:37.320,2026-03-29T18:33:37.320,-21331.125,-44744.265,-76581.54,-48660.345,-8395.875,-16302.914999999999,8307.855,-66260.11499999999,-0.8660959730818091,-3.16750012379753,-4.278276147816861,-18.206251961138644,-7.6718353654043785,-1.0572863307601006,4.7814095578261,0.7887635286295845,0.12182586000000001,-0.99218496,0.284239995,2.19744,-13.291459999999999,-0.6714399999999999,67.0
1774823617.3209603,9.5367431640625e-06,2026-03-29T22:33:37.320,2026-03-29T18:33:37.320,-21334.725,-44748.09,-76588.515,-48665.88,-8402.175,-16310.564999999999,8296.695,-66265.02,0.5590814466481341,-0.3338844041700657,2.2735964090560414,-7.973405788969649,-3.0101309453431306,0.09271318263963031,4.142581227505523,1.6988698215302493,0.12182586000000001,-0.99218496,0.284239995,2.19744,-13.291459999999999,-0.6714399999999999,67.0
1774823617.320974,1.3828277587890625e-05,2026-03-29T22:33:37.320,2026-03-29T18:33:37.320,-21333.69,-44744.985,-76585.05,-48665.88,-8403.21,-16313.265,8286.93,-66268.34999999999,1.6533808916147887,2.614621568778169,7.515826479575129,5.184466498815902,2.7010496207978414,1.0384469860766634,1.6966730310339007,1.8349084267166644,0.12768522,-0.99548085,0.2880852,4.959499999999999,-9.766399999999999,2.9757,67.0
1774823617.3209786,4.5299530029296875e-06,2026-03-29T22:33:37.320,2026-03-29T18:33:37.320,-21327.66,-44737.83,-76575.33,-48658.455,-8396.865,-16307.189999999999,8291.475,-66262.36499999999,1.9647962606724956,4.436474809587807,9.271915299167272,15.320003807531096,6.846212371995277,1.3079217284070364,-1.5822812906992758,1.07902663353278,0.12768522,-0.99548085,0.2880852,4.959499999999999,-9.766399999999999,2.9757,67.0
1774823617.3239937,0.0030150413513183594,2026-03-29T22:33:37.323,2026-03-29T18:33:37.323,-21324.78,-44733.869999999995,-76567.77,-48654.54,-8395.244999999999,-16305.39,8302.635,-66256.785,1.4207973112519037,4.372181560570459,6.983057374400958,18.192025161759254,7.68890929592748,0.8311659894224236,-4.323732172211398,-0.24370180705279032,0.12768522,-0.99548085,0.2880852,4.959499999999999,-9.766399999999999,2.9757,67.0
1774823617.3240206,2.6941299438476562e-05,2026-03-29T22:33:37.324,2026-03-29T18:33:37.324,-21329.28,-44739.225,-76573.215,-48659.805,-8401.05,-16310.97,8299.664999999999,-66260.88,0.32582115650241,2.4583045610670324,1.85051040133344,13.042815290505503,5.103155212430935,-0.04699120179090395,-5.329101978120938,-1.5082867471732986,0.12768522,-0.99548085,0.2880852,4.959499999999999,-9.766399999999999,2.9757,67.0
1774823617.328683,0.004662275314331055,2026-03-29T22:33:37.328,2026-03-29T18:33:37.328,-21330.09,-44742.96,-76576.72499999999,-48658.814999999995,-8399.61,-16310.744999999999,8293.23,-66261.33,-0.8096717911130146,-0.4914661424659491,-3.7858071874287837,2.686436326420329,0.5118361940570405,-0.7807071309102451,-4.090728865092344,-2.092024012508626,0.12768522,-0.99548085,0.2880852,4.959499999999999,-9.766399999999999,2.9757,67.0
1774823617.3286984,1.5497207641601562e-05,2026-03-29T22:33:37.328,2026-03-29T18:33:37.328,-21328.92,-44742.42,-76573.8,-48654.854999999996,-8393.355,-16304.535,8294.985,-66259.44,-1.5125721223744524,-3.2288505503281333,-7.513810552096605,-8.009850299978032,-3.883884112670934,-0.94055862691116,-1.0397477099096433,-1.686714625951817,0.12768522,-0.99548085,0.2880852,4.959499999999999,-9.766399999999999,2.9757,67.0
1774823617.3330524,0.004354000091552734,2026-03-29T22:33:37.333,2026-03-29T18:33:37.333,-21332.52,-44747.64,-76580.64,-48655.979999999996,-8393.67,-16303.994999999999,8292.33,-66262.14,-1.5443175698894835,-4.594638425329659,-7.874333275131923,-14.438338595061913,-6.171349467128878,-0.45707946562207397,2.5946686993550014,-0.4621256503526553,0.12768522,-0.99548085,0.2880852,4.959499999999999,-9.766399999999999,2.9757,67.0
1774823617.333073,2.0503997802734375e-05,2026-03-29T22:33:37.333,2026-03-29T18:33:37.333,-21333.645,-44749.979999999996,-76591.34999999999,-48660.884999999995,-8397.045,-16306.425,8288.505,-66264.84,-0.9697242977428872,-4.006244030250396,-4.912879912836024,-14.247090347949946,-5.567253758954178,0.34490186136359796,5.274132135891302,1.006047701491659,0.12768522,-0.99548085,0.2880852,4.959499999999999,-9.766399999999999,2.9757,67.0
1774823617.3361983,0.003125429153442383,2026-03-29T22:33:37.336,2026-03-29T18:33:37.336,-21332.61,-44751.555,-76600.665,-48656.159999999996,-8392.005,-16303.14,8291.789999999999,-66263.48999999999,-0.08593613148887427,-1.7059879169935257,-0.06076348125903325,-8.149814145733151,-2.658920118384768,0.9400620713426039,5.797595784322799,2.012465448723842,0.12768522,-0.99548085,0.2880852,4.959499999999999,-9.766399999999999,2.9757,67.0
1774823617.3362136,1.52587890625e-05,2026-03-29T22:33:37.336,2026-03-29T18:33:37.336,-21334.905,-44757.09,-76624.69499999999,-48664.485,-8395.92,-16305.615,8294.445,-66264.255,0.7341623493055793,1.3354150491401622,4.553351056836596,0.6982792375626049,1.011242179199197,0.9159185573562296,3.8371211734492094,2.0674368770291824,0.12768522,-0.99548085,0.2880852,4.959499999999999,-9.766399999999999,2.9757,67.0
1774823617.3403482,0.004134654998779297,2026-03-29T22:33:37.340,2026-03-29T18:33:37.340,-21341.385,-44760.06,-76615.33499999999,-48670.92,-8405.505,-16313.894999999999,8291.205,-66269.06999999999,1.20036008575631,3.8234389770425636,7.031049804676374,8.328834929041536,3.7573907322331914,0.22813021553817203,0.12555413587044276,1.139435116362272,0.134277,-0.98583732,0.290587635,2.31952,-6.790699999999999,6.928039999999999,67.0
1774823617.3403678,1.9550323486328125e-05,2026-03-29T22:33:37.340,2026-03-29T18:33:37.340,-21344.219999999998,-44762.13,-76617.45,-48668.4,-8406.63,-16316.369999999999,8283.779999999999,-66272.08499999999,1.1975313610028133,4.6864911030391925,6.46971748702932,11.753452113086677,4.533101821964965,-0.7512448472871899,-3.805929286990871,-0.32685967732216914,0.134277,-0.98583732,0.290587635,2.31952,-6.790699999999999,6.928039999999999,67.0
1774823617.3441172,0.003749370574951172,2026-03-29T22:33:37.344,2026-03-29T18:33:37.344,-21338.145,-44755.2,-76631.355,-48662.64,-8396.64,-16309.439999999999,8275.949999999999,-66272.355,0.789418023539761,3.5362898282649984,3.2661355739213334,10.10521888328632,3.3180185009415535,-1.4289772786586517,-6.253479385420362,-1.6269256311365852,0.134277,-0.98583732,0.290587635,2.31952,-6.790699999999999,6.928039999999999,67.0
1774823617.344134,1.6927719116210938e-05,2026-03-29T22:33:37.344,2026-03-29T18:33:37.344,-21344.805,-44758.439999999995,-76621.815,-48674.88,-8398.845,-16309.439999999999,8274.06,-66283.155,0.15692750047170864,0.8449065572228247,-1.1280833514399926,4.709983528835991,0.9725959942826777,-1.329103662098084,-6.077816689697685,-2.1401596745530806,0.134277,-0.98583732,0.290587635,2.31952,-6.790699999999999,6.928039999999999,67.0
1774823617.3593066,0.015172481536865234,2026-03-29T22:33:37.359,2026-03-29T18:33:37.359,-21348.315,-44766.54,-76623.165,-48704.759999999995,-8412.57,-16312.994999999999,8281.26,-66283.785,-0.48361910264762215,-2.243213049286285,-4.858141292764909,-1.790761510631502,-1.2997679744002801,-0.3882663323757461,-3.2353525762261444,-1.6308935571194374,0.134277,-0.98583732,0.290587635,2.31952,-6.790699999999999,6.928039999999999,67.0
1774823617.359326,1.9311904907226562e-05,2026-03-29T22:33:37.359,2026-03-29T18:33:37.359,-21338.82,-44760.869999999995,-76592.7,-48708.045,-8423.955,-16319.519999999999,8289.855,-66266.45999999999,-0.9445709624406771,-4.392605841523618,-6.434892889174949,-6.7335381658973175,-2.5676232508930275,0.9641478719825504,1.1446938004408505,-0.35872246924384454,0.134277,-0.98583732,0.290587635,2.31952,-6.790699999999999,6.928039999999999,67.0
1774823617.359342,1.621246337890625e-05,2026-03-29T22:33:37.359,2026-03-29T18:33:37.359,-21326.04,-44743.814999999995,-76541.67,-48680.145,-8419.23,-16317.449999999999,8302.23,-66250.53,-1.101164861815581,-4.652026939323177,-5.309997964430287,-8.508762911520112,-2.5499157563959103,2.002291310943261,5.199452021721587,1.0540869781807123,0.134277,-0.98583732,0.290587635,2.31952,-6.790699999999999,6.928039999999999,67.0
1774823617.359347,5.0067901611328125e-06,2026-03-29T22:33:37.359,2026-03-29T18:33:37.359,-21318.03,-44744.715,-76545.62999999999,-48665.384999999995,-8412.93,-16314.525,8311.365,-66236.805,-0.9061800748651914,-2.8772267063962516,-2.0467888938237264,-6.993688226900433,-1.6063112118452711,2.0868454684123057,7.122963366822173,1.9298009727365386,0.134277,-0.98583732,0.290587635,2.31952,-6.790699999999999,6.928039999999999,67.0
1774823617.3593524,5.245208740234375e-06,2026-03-29T22:33:37.359,2026-03-29T18:33:37.359,-21321.765,-44737.2,-76536.09,-48632.715,-8396.685,-16307.144999999999,8311.14,-66247.065,-0.39977956128795666,0.18729890694720358,1.9534680696425286,-3.288678937277308,-0.4090291441369058,1.0349819765998398,5.974314360005072,1.8638203423945803,0.134277,-0.98583732,0.290587635,2.31952,-6.790699999999999,6.928039999999999,67.0
1774823617.3593564,4.0531158447265625e-06,2026-03-29T22:33:37.359,2026-03-29T18:33:37.359,-21320.325,-44722.71,-76526.09999999999,-48613.229999999996,-8379.36,-16299.494999999999,8306.685,-66252.87,0.2841223118340669,3.2140719457846667,5.039871194788465,0.9709716363858482,0.4760479464219678,-0.7291414575940298,2.1402791674549193,0.9138046935691281,0.134277,-0.98583732,0.290587635,2.31952,-6.790699999999999,6.928039999999999,67.0
1774823617.3593612,4.76837158203125e-06,2026-03-29T22:33:37.359,2026-03-29T18:33:37.359,-21322.215,-44722.17,-76543.29,-48644.82,-8397.855,-16312.005,8296.785,-66256.965,0.9306490641556794,4.864032459352352,5.975061181757525,4.327338542723807,0.8547955631735036,-2.343906502183847,-2.7761731734955406,-0.4397428057192039,0.139342905,-0.96764889,0.29040453,-3.2198599999999997,-7.034859999999999,9.430679999999999,67.0
1774823617.3593647,3.5762786865234375e-06,2026-03-29T22:33:37.359,2026-03-29T18:33:37.359,-21329.19,-44731.08,-76557.015,-48662.505,-8409.285,-16318.08,8280.0,-66265.245,1.2947435963377478,4.379781714324743,4.4175056181021315,5.931296585158257,0.8931486588718222,-2.933095441823315,-6.622141505068574,-1.5365760913804536,0.139342905,-0.96764889,0.29040453,-3.2198599999999997,-7.034859999999999,9.430679999999999,67.0
1774823617.3640964,0.004731655120849609,2026-03-29T22:33:37.364,2026-03-29T18:33:37.364,-21324.015,-44728.2,-76551.20999999999,-48655.125,-8405.055,-16312.41,8284.635,-66259.70999999999,1.190464245366528,1.9377020905758349,1.043261904532291,5.61104184433337,0.8824201566853347,-2.0736768594951154,-7.641654626961064,-1.8599146352658464,0.139342905,-0.96764889,0.29040453,-3.2198599999999997,-7.034859999999999,9.430679999999999,67.0
1774823617.364123,2.6702880859375e-05,2026-03-29T22:33:37.364,2026-03-29T18:33:37.364,-21319.829999999998,-44732.835,-76561.29,-48659.04,-8408.43,-16317.855,8281.98,-66261.15,0.5885688825130962,-1.4066990546008018,-2.7345645598832937,3.698615987185058,0.9647281234081574,-0.06148053780882,-5.285177921763389,-1.2807713997853483,0.139342905,-0.96764889,0.29040453,-3.2198599999999997,-7.034859999999999,9.430679999999999,67.0
1774823617.367944,0.0038208961486816406,2026-03-29T22:33:37.367,2026-03-29T18:33:37.367,-21313.62,-44732.295,-76563.855,-48656.744999999995,-8402.31,-16311.779999999999,8284.77,-66257.145,-0.32990032194832153,-4.169809317698183,-5.339245716403049,0.8090722330851656,1.0100542109801662,2.1813828439805176,-0.5050473132782651,-0.10767962030800111,0.139342905,-0.96764889,0.29040453,-3.2198599999999997,-7.034859999999999,9.430679999999999,67.0
1774823617.3679595,1.5497207641601562e-05,2026-03-29T22:33:37.367,2026-03-29T18:33:37.367,-21318.344999999998,-44732.79,-76561.605,-48647.25,-8391.914999999999,-16304.265,8286.48,-66263.04,-1.2099579829806149,-5.097568244125917,-5.674724485595824,-2.302162460455444,0.725943602981165,3.5342650503060673,4.621704279667076,1.07580082178512,0.139342905,-0.96764889,0.29040453,-3.2198599999999997,-7.034859999999999,9.430679999999999,67.0
1774823617.3800356,0.012076139450073242,2026-03-29T22:33:37.380,2026-03-29T18:33:37.380,-21340.844999999998,-44730.945,-76548.42,-48631.814999999995,-8376.57,-16292.07,8296.56,-66285.45,-1.6559401435366023,-3.738791489036687,-3.585683308322202,-4.812743181486816,-0.07744986156093599,3.2402077632651576,7.798493120747295,1.7002931562269197,0.139342905,-0.96764889,0.29040453,-3.2198599999999997,-7.034859999999999,9.430679999999999,67.0
1774823617.3800535,1.7881393432617188e-05,2026-03-29T22:33:37.380,2026-03-29T18:33:37.380,-21332.835,-44726.895,-76545.315,-48634.02,-8380.755,-16295.625,8302.455,-66265.2,-1.4142427012783516,-0.6702380967927422,0.05874812425226222,-5.937268595995375,-1.2526370741239305,1.319520538498921,7.547020087710591,1.4831384103972165,0.139342905,-0.96764889,0.29040453,-3.2198599999999997,-7.034859999999999,9.430679999999999,67.0
1774823617.3800714,1.7881393432617188e-05,2026-03-29T22:33:37.380,2026-03-29T18:33:37.380,-21335.715,-44741.7,-76566.825,-48647.924999999996,-8397.09,-16313.805,8294.985,-66260.295,-0.5188218021875455,2.741198019217721,3.7073162632010925,-5.1398315166188855,-2.2874136628872614,-1.3877875713808538,3.90468797884065,0.5543266020241546,0.139342905,-0.96764889,0.29040453,-3.2198599999999997,-7.034859999999999,9.430679999999999,67.0
1774823617.3800812,9.775161743164062e-06,2026-03-29T22:33:37.380,2026-03-29T18:33:37.380,-21343.05,-44758.08,-76591.70999999999,-48659.04,-8404.83,-16323.345,8289.945,-66264.255,0.6843056407644408,4.9451970636497045,5.771608076189038,-2.417197070360026,-2.5388489436231385,-3.594096199496794,-1.5517719598655484,-0.6188948745289597,0.139342905,-0.96764889,0.29040453,-3.2198599999999997,-7.034859999999999,9.430679999999999,67.0
1774823617.3800907,9.5367431640625e-06,2026-03-29T22:33:37.380,2026-03-29T18:33:37.380,-21342.105,-44759.43,-76591.845,-48652.74,-8401.14,-16321.994999999999,8279.595,-66267.72,1.6661587530330297,4.915736872761535,5.314406464665065,1.5081115914966676,-1.6165128196851186,-4.183833588179293,-6.388736428829029,-1.465371931857461,0.142272585,-0.958554675,0.28832934,-5.31048,-5.31048,10.77356,67.0
1774823617.3800976,6.9141387939453125e-06,2026-03-29T22:33:37.380,2026-03-29T18:33:37.380,-21335.175,-44751.42,-76582.08,-48647.115,-8395.199999999999,-16312.32,8264.385,-66266.595,1.952397232567411,2.6354343441889023,2.485206868821764,5.273490051892759,0.30721328606098774,-2.7793020759073985,-8.409232742211264,-1.5848831130926755,0.142272585,-0.958554675,0.28832934,-5.31048,-5.31048,10.77356,67.0
1774823617.3890193,0.008921623229980469,2026-03-29T22:33:37.389,2026-03-29T18:33:37.389,-21335.399999999998,-44748.045,-76579.155,-48628.755,-8381.295,-16296.93,8259.885,-66271.14,1.36033147072523,-0.875191494152281,-1.5041568028452899,7.318159501029312,2.465634648862687,0.0351728814773941,-6.662512677215768,-0.933268101359435,0.142272585,-0.958554675,0.28832934,-5.31048,-5.31048,10.77356,67.0
1774823617.3890438,2.4557113647460938e-05,2026-03-29T22:33:37.389,2026-03-29T18:33:37.389,-21346.965,-44766.81,-76619.52,-48616.02,-8378.055,-16299.855,8273.07,-66274.065,0.11342246835098672,-4.0103246966604384,-4.881110059407245,6.555611182217683,3.8090242849262546,2.9581951537606415,-1.9003008279494098,0.16578665491861114,0.142272585,-0.958554675,0.28832934,-5.31048,-5.31048,10.77356,67.0
1774823617.3990135,0.009969711303710938,2026-03-29T22:33:37.399,2026-03-29T18:33:37.399,-21354.66,-44776.395,-76640.94,-48638.205,-8392.815,-16308.09,8293.949999999999,-66276.94499999999,-1.2372621859876407,-5.314946267236978,-6.093586232565367,2.97285240856092,3.528876370283982,4.581815747922658,3.743176081024951,1.1816359201433024,0.142272585,-0.958554675,0.28832934,-5.31048,-5.31048,10.77356,67.0
1774823617.3990357,2.2172927856445312e-05,2026-03-29T22:33:37.399,2026-03-29T18:33:37.399,-21359.79,-44778.689999999995,-76644.27,-48691.755,-8413.605,-16309.125,8304.795,-66279.19499999999,-2.0610035767786754,-4.166453496068958,-4.5302009393796165,-2.180865778797976,1.5276479087906225,4.077273783551206,7.713173264994129,1.6296479310531005,0.142272585,-0.958554675,0.28832934,-5.31048,-5.31048,10.77356,67.0
1774823617.3990548,1.9073486328125e-05,2026-03-29T22:33:37.399,2026-03-29T18:33:37.399,-21350.88,-44759.205,-76604.22,-48737.34,-8426.16,-16306.695,8296.154999999999,-66272.67,-1.951233389399344,-1.0795752479297567,-0.8420053055407103,-6.7951711454670365,-1.4324294864577107,1.6186513250775938,8.202276785978327,1.296629350980296,0.142272585,-0.958554675,0.28832934,-5.31048,-5.31048,10.77356,67.0
1774823617.399062,7.152557373046875e-06,2026-03-29T22:33:37.399,2026-03-29T18:33:37.399,-21338.37,-44746.155,-76582.75499999999,-48770.865,-8440.11,-16313.22,8298.675,-66265.515,-0.9345926711647177,2.5182512601089777,3.3086565903100387,-8.781220975549235,-4.018299164522739,-1.6724532629010993,4.984961195335013,0.33634802824155224,0.142272585,-0.958554675,0.28832934,-5.31048,-5.31048,10.77356,67.0
1774823617.39907,8.106231689453125e-06,2026-03-29T22:33:37.399,2026-03-29T18:33:37.399,-21329.64,-44735.715,-76558.86,-48714.975,-8428.185,-16320.105,8298.045,-66262.86,0.5258337731702483,4.94635357098443,5.987415889299768,-7.056007623089015,-4.943489140823066,-4.246498402705414,-0.4719031783528382,-0.8046333838417989,0.142272585,-0.958554675,0.28832934,-5.31048,-5.31048,10.77356,67.0
1774823617.3990755,5.4836273193359375e-06,2026-03-29T22:33:37.399,2026-03-29T18:33:37.399,-21325.005,-44727.165,-76523.67,-48624.93,-8402.445,-16317.539999999999,8289.99,-66262.36499999999,1.7442296163931181,5.0609200542518655,5.891767462246818,-2.146381972776856,-3.6200579067205525,-4.865521779781649,-5.679495431777059,-1.5932018960354593,0.142272585,-0.958554675,0.28832934,-5.31048,-5.31048,10.77356,67.0
1774823617.4028523,0.0037767887115478516,2026-03-29T22:33:37.402,2026-03-29T18:33:37.402,-21320.37,-44724.104999999996,-76522.23,-48612.869999999995,-8388.36,-16306.244999999999,8292.105,-66257.415,2.1429316939873115,2.801992011328398,2.9960410969626587,3.9271850328316145,-0.5100737433650888,-3.2052554835060874,-8.27114535647678,-1.653033382909325,0.142150515,-0.955869135,0.28515552,-4.76112,-4.1964999999999995,9.85796,67.0
1774823617.4028723,2.002716064453125e-05,2026-03-29T22:33:37.402,2026-03-29T18:33:37.402,-21323.88,-44733.015,-76544.73,-48637.935,-8395.65,-16305.435,8294.49,-66252.06,1.536868533060151,-0.7680428526981672,-1.3870768315085333,8.493541056574523,3.025581010543984,-0.0240547227060518,-7.089898440073037,-0.9364491990820705,0.142150515,-0.955869135,0.28515552,-4.76112,-4.1964999999999995,9.85796,67.0
1774823617.402892,1.9788742065429688e-05,2026-03-29T22:33:37.402,2026-03-29T18:33:37.402,-21322.17,-44732.52,-76551.075,-48645.54,-8396.73,-16302.015,8303.445,-66247.785,0.22674798558832465,-3.9609930697849522,-5.188452978083019,9.441871911591877,5.337168360043732,3.1889952115936446,-2.7141845288642936,0.2501139843526199,0.142150515,-0.955869135,0.28515552,-4.76112,-4.1964999999999995,9.85796,67.0
1774823617.4028983,6.198883056640625e-06,2026-03-29T22:33:37.402,2026-03-29T18:33:37.402,-21329.28,-44740.619999999995,-76562.64,-48655.979999999996,-8403.48,-16307.505,8301.015,-66252.15,-1.1492459992532136,-5.263901809429576,-6.5566435396216365,6.233804208395716,5.274324576897173,4.920968497278114,2.8215101505670357,1.3774698854635705,0.142150515,-0.955869135,0.28515552,-4.76112,-4.1964999999999995,9.85796,67.0
1774823617.408181,0.00528264045715332,2026-03-29T22:33:37.408,2026-03-29T18:33:37.408,-21333.78,-44743.994999999995,-76566.19499999999,-48656.115,-8403.93,-16308.675,8294.31,-66257.37,-1.9325357314450091,-4.063209060635478,-4.766654400362517,0.21527607447597533,2.767889020364455,4.357005856117944,6.977439859088855,1.9251523094044396,0.142150515,-0.955869135,0.28515552,-4.76112,-4.1964999999999995,9.85796,67.0
1774823617.4082134,3.24249267578125e-05,2026-03-29T22:33:37.408,2026-03-29T18:33:37.408,-21331.89,-44744.04,-76571.50499999999,-48655.485,-8399.88,-16307.055,8295.57,-66262.095,-1.769794114930998,-0.9420061588059928,-0.6138998877181634,-5.9524478465960655,-1.0923656425323973,1.7685767015090226,7.884076652488401,1.613914494973841,0.142150515,-0.955869135,0.28515552,-4.76112,-4.1964999999999995,9.85796,67.0
1774823617.4126613,0.00444793701171875,2026-03-29T22:33:37.412,2026-03-29T18:33:37.412,-21333.645,-44746.695,-76577.44499999999,-48659.58,-8401.77,-16310.07,8293.904999999999,-66264.075,-0.7815246973239282,2.5975110887162405,3.9239999135676666,-9.498963305189795,-4.541321162865173,-1.61901620493778,5.1933950881218145,0.539133488635504,0.142150515,-0.955869135,0.28515552,-4.76112,-4.1964999999999995,9.85796,67.0
1774823617.412682,2.0742416381835938e-05,2026-03-29T22:33:37.412,2026-03-29T18:33:37.412,-21338.415,-44750.924999999996,-76581.045,-48663.18,-8404.83,-16313.49,8289.225,-66269.205,0.5112629370570626,4.8568175944242515,6.6220012312215,-8.826622217164179,-5.963839423543206,-4.214371687267814,0.21356096288513227,-0.8549128062957089,0.142150515,-0.955869135,0.28515552,-4.76112,-4.1964999999999995,9.85796,67.0
1774823617.4160936,0.003411531448364258,2026-03-29T22:33:37.416,2026-03-29T18:33:37.416,-21338.864999999998,-44750.655,-76579.155,-48662.369999999995,-8403.57,-16313.175,8288.55,-66271.815,1.461701766433939,4.76129019845625,6.100032367694466,-4.25743429018502,-4.667647210386228,-4.817608084972962,-4.725835811492198,-1.9546142912359146,0.142150515,-0.955869135,0.28515552,-4.76112,-4.1964999999999995,9.85796,67.0
1774823617.4161155,2.193450927734375e-05,2026-03-29T22:33:37.416,2026-03-29T18:33:37.416,-21338.46,-44750.34,-76578.84,-48662.909999999996,-8403.255,-16313.445,8287.83,-66272.44499999999,1.6282252933919823,2.3793069019232065,2.535568719332095,2.1160819440712526,-1.2269345286727207,-3.182739302287991,-7.370136169506269,-2.2401417972284694,0.142150515,-0.955869135,0.28515552,-4.76112,-4.1964999999999995,9.85796,67.0
1774823617.420606,0.004490375518798828,2026-03-29T22:33:37.420,2026-03-29T18:33:37.420,-21337.92,-44751.24,-76580.81999999999,-48662.009999999995,-8402.31,-16312.365,8288.235,-66271.275,0.9895880111353585,-1.114290716653856,-2.3743754503620664,7.408103012662329,2.7762251749959423,-0.11783872896488458,-6.578392255709601,-1.5229960339187407,0.14123499,-0.953793945,0.279113055,-6.0582199999999995,-3.41824,9.44594,67.0
1774823617.420623,1.71661376953125e-05,2026-03-29T22:33:37.420,2026-03-29T18:33:37.420,-21339.405,-44755.244999999995,-76583.565,-48657.96,-8398.08,-16309.619999999999,8289.539999999999,-66269.61,-0.06545988300805533,-4.014264509721405,-6.211811798721829,9.278760159705827,5.493824622953293,2.9176026743995673,-2.8215024257153978,-0.053215484623867056,0.14123499,-0.953793945,0.279113055,-6.0582199999999995,-3.41824,9.44594,67.0
1774823617.424499,0.0038759708404541016,2026-03-29T22:33:37.424,2026-03-29T18:33:37.424,-21337.02,-44754.255,-76577.44499999999,-48642.57,-8386.92,-16303.185,8293.904999999999,-66265.605,-0.9622253805323202,-4.919410406520891,-7.025131829350836,6.998472533448742,5.682596713373694,4.516048440547764,2.080564957049417,1.559926963200126,0.14123499,-0.953793945,0.279113055,-6.0582199999999995,-3.41824,9.44594,67.0
1774823617.4245155,1.6450881958007812e-05,2026-03-29T22:33:37.424,2026-03-29T18:33:37.424,-21336.93,-44755.784999999996,-76574.655,-48637.215,-8384.22,-16302.644999999999,8295.885,-66264.705,-1.252826499711742,-3.41585399312784,-4.323029498611372,1.7394570635233872,3.2854704362991263,3.9833357261473656,5.841225419077281,2.593509968096973,0.14123499,-0.953793945,0.279113055,-6.0582199999999995,-3.41824,9.44594,67.0
1774823617.4282675,0.003751993179321289,2026-03-29T22:33:37.428,2026-03-29T18:33:37.428,-21339.405,-44755.064999999995,-76576.545,-48642.57,-8390.654999999999,-16307.46,8292.735,-66267.58499999999,-0.8475814253601808,-0.272989886567228,0.6322479218141783,-4.0253768079102095,-0.5534920437433254,1.6434338736136094,6.780813324756231,2.527993563582526,0.14123499,-0.953793945,0.279113055,-6.0582199999999995,-3.41824,9.44594,67.0
1774823617.4282904,2.288818359375e-05,2026-03-29T22:33:37.428,2026-03-29T18:33:37.428,-21337.11,-44746.604999999996,-76580.415,-48659.625,-8403.435,-16313.175,8287.56,-66269.47499999999,-0.04234615641094767,2.9439904676802957,5.4050534040775595,-7.707190420739672,-4.04289890188486,-1.3487291517955386,4.583876110421838,1.3003198246254855,0.14123499,-0.953793945,0.279113055,-6.0582199999999995,-3.41824,9.44594,67.0
1774823617.4327967,0.004506349563598633,2026-03-29T22:33:37.432,2026-03-29T18:33:37.432,-21331.079999999998,-44740.665,-76585.23,-48676.68,-8411.805,-16317.359999999999,8285.445,-66268.845,0.6672413444817895,4.652239203526059,7.5776696989585,-7.791588666295111,-5.594817139831159,-3.5815155497411846,0.3954786773173031,-0.6270702340694485,0.14123499,-0.953793945,0.279113055,-6.0582199999999995,-3.41824,9.44594,67.0
1774823617.4328253,2.86102294921875e-05,2026-03-29T22:33:37.432,2026-03-29T18:33:37.432,-21327.344999999998,-44744.58,-76587.39,-48677.895,-8411.715,-16319.385,8286.795,-66263.625,0.8761297213557281,4.03345427736282,5.971990900675574,-4.47432050920535,-4.5618653380317,-4.060506201791576,-3.7671902633008445,-2.4305566277220603,0.14123499,-0.953793945,0.279113055,-6.0582199999999995,-3.41824,9.44594,67.0
1774823617.4363165,0.0034911632537841797,2026-03-29T22:33:37.436,2026-03-29T18:33:37.436,-21332.475,-44749.08,-76588.245,-48671.235,-8407.98,-16316.055,8290.485,-66267.45,0.4996463677157497,1.4318015062845162,1.2847867677451672,0.5306757935190877,-1.512123351274007,-2.6568343338676756,-5.988468818947848,-3.2708939157047374,0.14123499,-0.953793945,0.279113055,-6.0582199999999995,-3.41824,9.44594,67.0
1774823617.4363441,2.765655517578125e-05,2026-03-29T22:33:37.436,2026-03-29T18:33:37.436,-21334.635,-44752.049999999996,-76592.43,-48668.445,-8403.84,-16311.914999999999,8292.645,-66266.505,-0.18692784284450953,-1.8287768166759062,-4.204684345630415,4.876548074972627,2.0769693186498097,-0.12532320395266866,-5.341939985588823,-2.678851744033905,0.14123499,-0.953793945,0.279113055,-6.0582199999999995,-3.41824,9.44594,67.0
1774823617.4400887,0.0037446022033691406,2026-03-29T22:33:37.440,2026-03-29T18:33:37.440,-21327.614999999998,-44757.54,-76604.535,-48678.39,-8411.895,-16319.385,8288.685,-66253.59,-0.7203083292927788,-4.113980472679551,-7.737607375118382,6.7039323958422425,4.542681918506116,2.2970196521684167,-2.277963081925867,-0.8060674306553858,0.13623012,-0.952207035,0.274352325,-8.606639999999999,-4.13546,10.17842,67.0
1774823617.4401147,2.5987625122070312e-05,2026-03-29T22:33:37.440,2026-03-29T18:33:37.440,-21330.45,-44765.325,-76611.735,-48683.564999999995,-8418.015,-16326.63,8282.385,-66255.20999999999,-0.7330363173524803,-4.298271824624676,-7.457259600561287,5.45236941573585,4.82041399076076,3.500158789665289,1.6516545657736326,1.5893896880960043,0.13623012,-0.952207035,0.274352325,-8.606639999999999,-4.13546,10.17842,67.0
1774823617.443998,0.00388336181640625,2026-03-29T22:33:37.443,2026-03-29T18:33:37.443,-21348.18,-44757.63,-76588.83,-48661.74,-8397.494999999999,-16306.47,8292.51,-66285.0,-0.18394551577466572,-2.322765784219068,-3.3786665041165973,2.0010814467434885,2.911564301988107,3.0157681855610963,4.574393387364537,3.442203735398002,0.13623012,-0.952207035,0.274352325,-8.606639999999999,-4.13546,10.17842,67.0
1774823617.44401,1.1920928955078125e-05,2026-03-29T22:33:37.444,2026-03-29T18:33:37.444,-21346.605,-44751.06,-76578.84,-48653.189999999995,-8391.195,-16301.07,8295.66,-66284.145,0.6022119369117296,0.7864324077767753,2.5581803446177913,-1.8754391886005835,-0.17344657134350763,1.1961198154689452,5.192136192851819,3.8505649911962183,0.13623012,-0.952207035,0.274352325,-8.606639999999999,-4.13546,10.17842,67.0
1774823617.4486516,0.004641532897949219,2026-03-29T22:33:37.448,2026-03-29T18:33:37.448,-21335.579999999998,-44745.795,-76574.87999999999,-48654.765,-8397.63,-16309.035,8292.51,-66273.84,1.1161006681959071,3.4453908131075153,7.407850400002754,-4.420028013275112,-2.9454605699253973,-1.00920215633609,3.36131781901428,2.5123345719964587,0.13623012,-0.952207035,0.274352325,-8.606639999999999,-4.13546,10.17842,67.0
1774823617.4486763,2.47955322265625e-05,2026-03-29T22:33:37.448,2026-03-29T18:33:37.448,-21335.85,-44745.525,-76572.94499999999,-48663.54,-8403.255,-16311.33,8292.555,-66273.3,0.9682531019727159,4.316232839502184,8.677147567547333,-4.703451113535372,-4.163256452230664,-2.5465826837170797,0.09710316495934196,-0.08337897904465033,0.13623012,-0.952207035,0.274352325,-8.606639999999999,-4.13546,10.17842,67.0
1774823617.4542656,0.00558924674987793,2026-03-29T22:33:37.454,2026-03-29T18:33:37.454,-21332.565,-44739.585,-76567.59,-48663.18,-8402.445,-16309.26,8288.955,-66274.515,0.14248590812135067,2.9805678369276767,5.6003762580274214,-2.9525026848835516,-3.3985316070456815,-2.766165062967015,-2.9728392823096246,-2.822310650763701,0.13623012,-0.952207035,0.274352325,-8.606639999999999,-4.13546,10.17842,67.0
1774823617.4542823,1.6689300537109375e-05,2026-03-29T22:33:37.454,2026-03-29T18:33:37.454,-21334.005,-44743.14,-76574.205,-48663.585,-8403.93,-16312.59,8284.41,-66278.52,-0.9551341437769248,0.14302164956777957,-0.41814025233171204,-0.28632069080513023,-1.1779111321736737,-1.6974327195889805,-4.416940122269972,-4.440768222951596,0.13623012,-0.952207035,0.274352325,-8.606639999999999,-4.13546,10.17842,67.0
1774823617.456184,0.0019016265869140625,2026-03-29T22:33:37.456,2026-03-29T18:33:37.456,-21340.665,-44751.195,-76581.72,-48664.08,-8402.49,-16311.105,8286.435,-66283.11,-1.69523813506791,-2.735376766532776,-6.443248084513351,1.9447482479200713,1.339867564817643,0.024601582851884813,-3.669971082414002,-4.109855169758435,0.13623012,-0.952207035,0.274352325,-8.606639999999999,-4.13546,10.17842,67.0
1774823617.4562013,1.7404556274414062e-05,2026-03-29T22:33:37.456,2026-03-29T18:33:37.456,-21339.765,-44750.295,-76577.22,-48655.71,-8394.164999999999,-16303.14,8295.57,-66276.09,-1.5747697924209914,-4.185017798968669,-9.439860333196284,2.843568824150923,2.965051765833799,1.520321344123733,-1.249795386413549,-1.8576246872295565,0.13623012,-0.952207035,0.274352325,-8.606639999999999,-4.13546,10.17842,67.0
1774823617.462376,0.006174802780151367,2026-03-29T22:33:37.462,2026-03-29T18:33:37.462,-21341.79,-44753.354999999996,-76578.61499999999,-48652.244999999995,-8391.24,-16301.744999999999,8299.08,-66270.465,-0.5267862049242467,-3.4753695663383146,-7.7977124433516485,2.326310364742143,3.0454930178450415,2.11399992186868,1.5600887514228214,1.3853527195739463,0.130920075,-0.95116944,0.27062919,-11.506039999999999,-6.1955599999999995,9.85796,67.0
1774823617.4624016,2.5510787963867188e-05,2026-03-29T22:33:37.462,2026-03-29T18:33:37.462,-21339.045,-44751.915,-76582.665,-48656.655,-8397.765,-16308.449999999999,8296.785,-66266.01,0.9907294143875837,-0.9827874942040924,-2.1850076629622066,1.0141541295281529,1.7281795026410427,1.6413782384769784,3.379778788227811,4.166469065820547,0.130920075,-0.95116944,0.27062919,-11.506039999999999,-6.1955599999999995,9.85796,67.0
1774823617.464262,0.0018603801727294922,2026-03-29T22:33:37.464,2026-03-29T18:33:37.464,-21333.825,-44746.47,-76579.965,-48659.58,-8404.02,-16313.535,8293.23,-66266.055,2.1961050281648484,2.0067775363535807,4.717441677546567,-0.22663212087234308,-0.1909147455210141,0.47529073506362385,3.4092094692476773,5.164936403254257,0.130920075,-0.95116944,0.27062919,-11.506039999999999,-6.1955599999999995,9.85796,67.0
1774823617.4642727,1.0728836059570312e-05,2026-03-29T22:33:37.464,2026-03-29T18:33:37.464,-21334.77,-44744.715,-76571.73,-48646.845,-8402.22,-16312.23,8288.279999999999,-66267.135,2.3864140393373887,3.95755454848588,9.499334397867718,-0.8036384371317072,-1.7216733438160268,-0.7191173656581863,1.780377896444279,3.8235228522728235,0.130920075,-0.95116944,0.27062919,-11.506039999999999,-6.1955599999999995,9.85796,67.0
1774823617.4683745,0.004101753234863281,2026-03-29T22:33:37.468,2026-03-29T18:33:37.468,-21343.14,-44753.04,-76580.73,-48654.585,-8407.664999999999,-16316.189999999999,8280.449999999999,-66276.09,1.333733644145195,3.868828581817264,9.705622694699521,-0.680958188638773,-2.1878476786213708,-1.3518666855239097,-0.5697671692107796,0.6537777774472082,0.130920075,-0.95116944,0.27062919,-11.506039999999999,-6.1955599999999995,9.85796,67.0
1774823617.4683895,1.5020370483398438e-05,2026-03-29T22:33:37.468,2026-03-29T18:33:37.468,-21351.015,-44761.814999999995,-76595.58,-48667.185,-8406.449999999999,-16313.67,8278.154999999999,-66282.525,-0.5435969322377582,1.7850186046205592,5.09007193952297,-0.29051774740318986,-1.5284309528711888,-1.1994586794513948,-2.416764555357361,-2.9507686736873917,0.130920075,-0.95116944,0.27062919,-11.506039999999999,-6.1955599999999995,9.85796,67.0
1774823617.4728887,0.004499197006225586,2026-03-29T22:33:37.472,2026-03-29T18:33:37.472,-21350.43,-44763.03,-76609.845,-48671.325,-8398.89,-16304.76,8284.949999999999,-66282.61499999999,-2.345686254730663,-1.227988335411966,-2.2001285050467714,-0.16199188005965176,-0.25695220132286845,-0.47614984484958883,-2.8781863276143755,-5.3307532317627855,0.130920075,-0.95116944,0.27062919,-11.506039999999999,-6.1955599999999995,9.85796,67.0
1774823617.4729092,2.0503997802734375e-05,2026-03-29T22:33:37.472,2026-03-29T18:33:37.472,-21355.875,-44778.689999999995,-76652.145,-48682.439999999995,-8400.779999999999,-16305.164999999999,8285.445,-66285.27,-3.12787804208715,-3.627071096872677,-8.627667652374544,-0.5213822879374964,0.8710488119641653,0.33260461541227,-1.8347098463174891,-5.332850246097538,0.130920075,-0.95116944,0.27062919,-11.506039999999999,-6.1955599999999995,9.85796,67.0
1774823617.4796169,0.006707668304443359,2026-03-29T22:33:37.479,2026-03-29T18:33:37.479,-21351.015,-44775.81,-76643.91,-48685.86,-8408.97,-16311.914999999999,8280.81,-66282.84,-2.3950631244975717,-4.178909017418647,-10.985348192423238,-1.1155496875998898,1.2843209499889092,0.7653170296161855,0.05811705602625792,-2.874645641896379,0.130920075,-0.95116944,0.27062919,-11.506039999999999,-6.1955599999999995,9.85796,67.0
1774823617.479642,2.5033950805664062e-05,2026-03-29T22:33:37.479,2026-03-29T18:33:37.479,-21335.535,-44751.78,-76588.83,-48660.705,-8399.565,-16310.34,8280.135,-66273.56999999999,-0.3948898227959405,-2.589326274799447,-7.994525604161645,-1.3747294956623408,0.8827888998018493,0.6381306836675738,1.7527010978828128,0.9771546840182157,0.130920075,-0.95116944,0.27062919,-11.506039999999999,-6.1955599999999995,9.85796,67.0
1774823617.4796658,2.384185791015625e-05,2026-03-29T22:33:37.479,2026-03-29T18:33:37.479,-21328.92,-44743.095,-76569.795,-48672.36,-8404.875,-16312.095,8294.535,-66265.425,1.957364271253933,0.34463766525759393,-0.9854068273164318,-0.8142726724203759,0.041762401752026945,0.12087774073821626,2.3727796270414756,4.471840043788363,0.124694505,-0.95287842,0.26745537,-13.444059999999999,-8.28618,10.880379999999999,67.0
1774823617.479676,1.0251998901367188e-05,2026-03-29T22:33:37.479,2026-03-29T18:33:37.479,-21330.045,-44738.595,-76553.055,-48672.18,-8412.119999999999,-16313.939999999999,8301.914999999999,-66261.33,3.5048645320745018,3.136794534782896,6.697892481283279,0.57601062701341,-0.6486065381812269,-0.394714594935829,1.660305105118196,5.979787492216814,0.124694505,-0.95287842,0.26745537,-13.444059999999999,-8.28618,10.880379999999999,67.0
1774823617.484216,0.004539966583251953,2026-03-29T22:33:37.484,2026-03-29T18:33:37.484,-21325.905,-44734.455,-76548.465,-48655.439999999995,-8409.645,-16312.59,8302.095,-66258.18,3.424444225910405,4.363974853318764,11.299755170956272,2.2111820926747496,-0.7473860965598189,-0.547772550840267,0.08021780732826525,4.7630756530604135,0.124694505,-0.95287842,0.26745537,-13.444059999999999,-8.28618,10.880379999999999,67.0
1774823617.4842513,3.528594970703125e-05,2026-03-29T22:33:37.484,2026-03-29T18:33:37.484,-21326.715,-44736.255,-76553.28,-48640.68,-8401.59,-16313.355,8298.045,-66264.435,1.6619967172351946,3.3875121826507706,10.491681454549166,3.1657884762908206,-0.21994935567023538,-0.2309531649450725,-1.458020198492748,1.342117767916304,0.124694505,-0.95287842,0.26745537,-13.444059999999999,-8.28618,10.880379999999999,67.0
1774823617.488502,0.004250764846801758,2026-03-29T22:33:37.488,2026-03-29T18:33:37.488,-21329.954999999998,-44743.185,-76558.23,-48631.77,-8390.925,-16307.369999999999,8295.21,-66267.495,-1.0015636601595808,0.6795192789676162,4.54531867884908,2.6887289491706374,0.5544646608330216,0.3457303484768103,-2.1034094121397464,-2.726637865530286,0.124694505,-0.95287842,0.26745537,-13.444059999999999,-8.28618,10.880379999999999,67.0
1774823617.4885235,2.1457672119140625e-05,2026-03-29T22:33:37.488,2026-03-29T18:33:37.488,-21338.82,-44752.994999999995,-76574.295,-48646.395,-8396.91,-16309.26,8286.75,-66276.675,-3.3030368414069904,-2.4104685207330427,-3.7491850342261803,0.6956797291368981,1.0226732476482254,0.7848016188189546,-1.5199853854591219,-5.5676547197924515,0.124694505,-0.95287842,0.26745537,-13.444059999999999,-8.28618,10.880379999999999,67.0
1774823617.4979956,0.009472131729125977,2026-03-29T22:33:37.497,2026-03-29T18:33:37.497,-21343.14,-44753.85,-76577.12999999999,-48661.604999999996,-8407.664999999999,-16315.47,8279.685,-66282.48,-4.1057192713550945,-4.330798425698406,-10.400677696460232,-2.057623974871069,0.8026542878610285,0.7478345183748313,-0.057121824515412783,-5.8637529441045135,0.124694505,-0.95287842,0.26745537,-13.444059999999999,-8.28618,10.880379999999999,67.0
1774823617.498025,2.9325485229492188e-05,2026-03-29T22:33:37.498,2026-03-29T18:33:37.498,-21339.495,-44750.97,-76576.095,-48664.215,-8411.175,-16316.82,8285.31,-66277.62,-2.9662830957945108,-4.105558546497122,-12.144194787136884,-4.2614746219084,-0.06743215303744304,0.17407833676211767,1.451078863186058,-3.477496330778101,0.124694505,-0.95287842,0.26745537,-13.444059999999999,-8.28618,10.880379999999999,67.0
1774823617.4980447,1.9788742065429688e-05,2026-03-29T22:33:37.498,2026-03-29T18:33:37.498,-21341.024999999998,-44753.265,-76579.56,-48659.85,-8402.175,-16308.18,8297.505,-66276.855,-0.3744488177124465,-1.8252291695023453,-8.043911117155684,-4.689207258430069,-1.1236330686301714,-0.6588445174736873,2.145299970134631,0.4818501887372649,0.124694505,-0.95287842,0.26745537,-13.444059999999999,-8.28618,10.880379999999999,67.0
1774823617.4980512,6.4373016357421875e-06,2026-03-29T22:33:37.498,2026-03-29T18:33:37.498,-21333.96,-44752.095,-76581.405,-48657.869999999995,-8401.545,-16310.43,8289.18,-66269.97,2.4623717081916476,1.3946100795370888,0.01559746089820052,-2.869416122788676,-1.7247072146087836,-1.2739173211245154,1.6120868349977617,4.180172670308133,0.124694505,-0.95287842,0.26745537,-13.444059999999999,-8.28618,10.880379999999999,67.0
1774823617.502751,0.0046999454498291016,2026-03-29T22:33:37.502,2026-03-29T18:33:37.502,-21327.48,-44755.515,-76588.155,-48659.85,-8405.73,-16318.215,8279.279999999999,-66260.385,4.192206310775274,3.9648684940827215,8.20355272704866,0.57072570459244,-1.4212952439615905,-1.261787423384134,0.11479209096263314,5.921009021633872,0.120422055,-0.959897445,0.26574639,-12.84892,-9.3849,11.490779999999999,67.0
1774823617.5027676,1.6450881958007812e-05,2026-03-29T22:33:37.502,2026-03-29T18:33:37.502,-21319.38,-44755.47,-76587.435,-48655.485,-8403.93,-16317.045,8281.44,-66249.18,3.9723052603984335,4.609377037157201,12.573200999708899,4.108032659588227,-0.23991943723490047,-0.5286769055595213,-1.5395560694607362,4.937127948762646,0.120422055,-0.959897445,0.26574639,-12.84892,-9.3849,11.490779999999999,67.0
1774823617.5100603,0.007292747497558594,2026-03-29T22:33:37.510,2026-03-29T18:33:37.510,-21339.809999999998,-44756.415,-76572.765,-48637.35,-8387.505,-16301.43,8290.26,-66280.995,1.8829597260776583,2.995727842520504,10.969082340238135,6.013844021641947,1.283967301674509,0.6174145899335429,-2.428907640872039,1.7353615745428894,0.120422055,-0.959897445,0.26574639,-12.84892,-9.3849,11.490779999999999,67.0
1774823617.5100763,1.5974044799804688e-05,2026-03-29T22:33:37.510,2026-03-29T18:33:37.510,-21359.655,-44765.46,-76574.11499999999,-48639.96,-8387.64,-16299.224999999999,8295.435,-66298.41,-1.1034293852296317,-0.10039521291502636,4.087129184231455,5.211830554999197,2.35709511341623,1.600689206523177,-2.0150965907947502,-2.1638467186741512,0.120422055,-0.959897445,0.26574639,-12.84892,-9.3849,11.490779999999999,67.0
1774823617.5100906,1.430511474609375e-05,2026-03-29T22:33:37.510,2026-03-29T18:33:37.510,-21357.405,-44769.689999999995,-76586.985,-48651.93,-8396.46,-16306.154999999999,8290.71,-66293.45999999999,-3.5848617794417925,-3.1758373711044787,-4.832715734084968,1.8720462839493452,2.34191752669482,1.8709000822163673,-0.4484850276018094,-4.958680521460557,0.120422055,-0.959897445,0.26574639,-12.84892,-9.3849,11.490779999999999,67.0
1774823617.5100975,6.9141387939453125e-06,2026-03-29T22:33:37.510,2026-03-29T18:33:37.510,-21346.469999999998,-44756.595,-76583.43,-48639.78,-8391.24,-16303.32,8284.68,-66289.14,-4.399092461719095,-4.735282197664544,-11.542727326574735,-2.581366070754912,1.1167031877430158,1.2048813079117808,1.4871697000630726,-5.412678314108114,0.120422055,-0.959897445,0.26574639,-12.84892,-9.3849,11.490779999999999,67.0
1774823617.5143504,0.004252910614013672,2026-03-29T22:33:37.514,2026-03-29T18:33:37.514,-21349.395,-44754.075,-76591.62,-48639.509999999995,-8389.574999999999,-16301.97,8282.475,-66300.84,-3.1749438440847104,-4.018923251382249,-12.818861447575097,-6.089824321753788,-0.8149880223033834,-0.14665826898974546,2.7686430393295076,-3.4113068109336213,0.120422055,-0.959897445,0.26574639,-12.84892,-9.3849,11.490779999999999,67.0
1774823617.5143664,1.5974044799804688e-05,2026-03-29T22:33:37.514,2026-03-29T18:33:37.514,-21345.39,-44755.83,-76598.81999999999,-48644.189999999995,-8392.59,-16303.904999999999,8283.555,-66290.175,-0.5007272146660933,-1.3678796850004395,-8.011635938516845,-6.931347726979005,-2.538093692014277,-1.5545467129180515,2.667114326337517,0.027041777179793947,0.120422055,-0.959897445,0.26574639,-12.84892,-9.3849,11.490779999999999,67.0
1774823617.5212543,0.006887912750244141,2026-03-29T22:33:37.521,2026-03-29T18:33:37.521,-21344.13,-44760.555,-76607.64,-48662.64,-8402.805,-16307.279999999999,8286.93,-66279.015,2.366210977451,1.946423905436165,0.6307856138839332,-4.576099768550124,-3.1684923824345574,-2.3114227865110935,1.1460429394797473,3.2721283806583874,0.120422055,-0.959897445,0.26574639,-12.84892,-9.3849,11.490779999999999,67.0
1774823617.5212808,2.6464462280273438e-05,2026-03-29T22:33:37.521,2026-03-29T18:33:37.521,-21338.864999999998,-44754.57,-76592.47499999999,-48672.99,-8408.43,-16306.064999999999,8286.48,-66262.41,4.101898019066441,4.340058782326706,9.025210504836782,0.0029719105756930383,-2.3061345550390397,-1.9901038922282304,-1.0883044489197549,4.867109396745174,0.120422055,-0.959897445,0.26574639,-12.84892,-9.3849,11.490779999999999,67.0
1774823617.5213015,2.0742416381835938e-05,2026-03-29T22:33:37.521,2026-03-29T18:33:37.521,-21343.23,-44759.115,-76588.11,-48686.31,-8419.095,-16312.68,8281.619999999999,-66265.155,3.936133016541245,4.6777345613672745,13.19423029658191,4.738979681144066,-0.26670717986098974,-0.6771613400088442,-2.9202910849514097,4.193942953787352,0.122375175,-0.96581784,0.26525811,-7.81312,-8.42352,11.10928,67.0
1774823617.521313,1.1444091796875e-05,2026-03-29T22:33:37.521,2026-03-29T18:33:37.521,-21344.085,-44759.835,-76589.145,-48693.645,-8424.045,-16319.744999999999,8268.435,-66279.825,1.9958010183990615,2.809509542737948,11.157094380285926,7.42368015754654,2.0355279283210566,1.0433800488759026,-3.3821892764954797,1.7093344819229928,0.122375175,-0.96581784,0.26525811,-7.81312,-8.42352,11.10928,67.0
1774823617.5242608,0.0029478073120117188,2026-03-29T22:33:37.524,2026-03-29T18:33:37.524,-21333.105,-44742.555,-76557.825,-48652.83,-8403.255,-16311.285,8255.925,-66273.93,-0.7826435070706967,-0.3699858603603299,3.8683985141296007,6.755384415189457,3.508535735507313,2.3574524465505076,-2.156627433555214,-1.3371277967779036,0.122375175,-0.96581784,0.26525811,-7.81312,-8.42352,11.10928,67.0
1774823617.5242825,2.1696090698242188e-05,2026-03-29T22:33:37.524,2026-03-29T18:33:37.524,-21324.915,-44733.465,-76546.75499999999,-48636.765,-8393.49,-16301.43,8275.005,-66262.23,-3.11475673514037,-3.3591166169855335,-5.239555387617168,2.976546190600983,3.407947480360781,2.6132203296940606,0.23342707193890327,-3.537460619870336,0.122375175,-0.96581784,0.26525811,-7.81312,-8.42352,11.10928,67.0
1774823617.5282576,0.0039751529693603516,2026-03-29T22:33:37.528,2026-03-29T18:33:37.528,-21334.005,-44748.045,-76570.785,-48651.525,-8400.645,-16300.98,8322.435,-66266.595,-3.9718174313653316,-4.765602531953074,-11.886769639247946,-2.2140931608680683,1.7109400902028948,1.6459142644757858,2.6528241184224863,-3.987451105991168,0.122375175,-0.96581784,0.26525811,-7.81312,-8.42352,11.10928,67.0
1774823617.528284,2.6464462280273438e-05,2026-03-29T22:33:37.528,2026-03-29T18:33:37.528,-21349.44,-44761.545,-76585.36499999999,-48659.49,-8405.865,-16304.625,8331.75,-66284.055,-3.038078661445067,-3.9566495110779836,-12.96738795565723,-6.44238296652772,-0.8483852726304058,-0.1273861870066866,3.898111915897772,-2.6594762982536038,0.122375175,-0.96581784,0.26525811,-7.81312,-8.42352,11.10928,67.0
1774823617.5336747,0.005390644073486328,2026-03-29T22:33:37.533,2026-03-29T18:33:37.533,-21357.63,-44767.755,-76589.145,-48658.14,-8407.98,-16310.43,8300.699999999999,-66292.47,-0.8165690637573441,-1.3384591265331622,-8.002978336534968,-7.76525988155773,-3.10663518513428,-1.8941753937804124,3.294172474325209,-0.3313615078969269,0.122375175,-0.96581784,0.26525811,-7.81312,-8.42352,11.10928,67.0
1774823617.53369,1.52587890625e-05,2026-03-29T22:33:37.533,2026-03-29T18:33:37.533,-21354.344999999998,-44766.72,-76588.965,-48654.99,-8407.395,-16311.33,8293.635,-66289.14,1.6451707641831934,1.8557490365012583,0.6541761819258405,-5.5773244744843975,-4.0102997812400165,-2.8273741893069055,1.0484212179168584,1.8562005786682485,0.122375175,-0.96581784,0.26525811,-7.81312,-8.42352,11.10928,67.0
1774823617.5366044,0.0029144287109375,2026-03-29T22:33:37.536,2026-03-29T18:33:37.536,-21347.73,-44761.68,-76588.965,-48655.08,-8403.975,-16308.9,8290.26,-66285.63,3.2587904775655505,4.155643884889496,8.949882855678572,-0.8880396582401018,-3.111659628093253,-2.478000430220282,-1.818922128115528,2.9665266545675966,0.122375175,-0.96581784,0.26525811,-7.81312,-8.42352,11.10928,67.0
1774823617.5366201,1.5735626220703125e-05,2026-03-29T22:33:37.536,2026-03-29T18:33:37.536,-21347.82,-44763.84,-76591.215,-48662.369999999995,-8403.39,-16310.789999999999,8283.375,-66287.43,3.3814342388314884,4.53542203629239,13.040852389361167,4.157326926808939,-0.786011059308148,-0.990668963373289,-3.9449328811652817,2.6726143220979144,0.122375175,-0.96581784,0.26525811,-7.81312,-8.42352,11.10928,67.0
1774823617.5406759,0.00405573844909668,2026-03-29T22:33:37.540,2026-03-29T18:33:37.540,-21352.905,-44769.375,-76589.91,-48661.064999999995,-8398.664999999999,-16308.18,8282.16,-66294.58499999999,2.0647038276679246,2.8689427062313224,11.082186260133973,7.279264508478881,1.933149371878737,0.9613071581071233,-4.274397739715381,1.3232955518513396,0.12365691000000001,-0.969663045,0.26574639,-5.90562,-8.48456,11.79598,67.0
1774823617.5406964,2.0503997802734375e-05,2026-03-29T22:33:37.540,2026-03-29T18:33:37.540,-21356.19,-44772.705,-76593.33,-48657.104999999996,-8399.34,-16306.74,8288.865,-66293.685,-0.0259500340906133,-0.04232493732407476,4.0545193355133415,7.110676162554292,3.8240545217302384,2.4893231848341792,-2.5787564428179226,-0.32142092974986464,0.12365691000000001,-0.969663045,0.26574639,-5.90562,-8.48456,11.79598,67.0
1774823617.544315,0.0036187171936035156,2026-03-29T22:33:37.544,2026-03-29T18:33:37.544,-21360.78,-44777.744999999995,-76623.97499999999,-48651.615,-8399.744999999999,-16308.494999999999,8292.51,-66291.12,-1.9542772355007358,-2.863859878569918,-4.737894156359336,3.7997751378073454,4.032729978567429,2.9013667281676456,0.40974974200649056,-1.5125014096828817,0.12365691000000001,-0.969663045,0.26574639,-5.90562,-8.48456,11.79598,67.0
1774823617.5443373,2.2172927856445312e-05,2026-03-29T22:33:37.544,2026-03-29T18:33:37.544,-21360.195,-44781.39,-76651.83,-48679.29,-8414.324999999999,-16318.71,8288.55,-66287.385,-2.9390269250605043,-4.347130066510366,-11.237145417478805,-1.098722943058301,2.4587790331409884,2.017964420030804,3.32066542145287,-1.8591893419279517,0.12365691000000001,-0.969663045,0.26574639,-5.90562,-8.48456,11.79598,67.0
1774823617.5484204,0.004083156585693359,2026-03-29T22:33:37.548,2026-03-29T18:33:37.548,-21350.655,-44773.875,-76635.62999999999,-48688.515,-8414.46,-16316.46,8290.845,-66279.19499999999,-2.665514516731248,-3.8826513059380012,-12.516136430892283,-5.371018329830243,-0.20315417127464008,0.24679157808804472,4.778943100834331,-1.437168150073114,0.12365691000000001,-0.969663045,0.26574639,-5.90562,-8.48456,11.79598,67.0
1774823617.548436,1.5497207641601562e-05,2026-03-29T22:33:37.548,2026-03-29T18:33:37.548,-21348.18,-44762.625,-76594.59,-48683.295,-8410.994999999999,-16311.779999999999,8291.52,-66284.81999999999,-1.3614747902431314,-1.7419372594920093,-8.096654703966982,-7.162640515980223,-2.7796492466413536,-1.613015164126939,4.053994307354894,-0.6407227047939826,0.12365691000000001,-0.969663045,0.26574639,-5.90562,-8.48456,11.79598,67.0
1774823617.5526323,0.0041964054107666016,2026-03-29T22:33:37.552,2026-03-29T18:33:37.552,-21346.829999999998,-44754.255,-76567.545,-48676.725,-8414.235,-16312.814999999999,8294.175,-66284.55,0.362996790964238,1.0828069629050636,-0.10744556550196721,-5.7903566084863085,-4.143546493073417,-2.7394042440687816,1.4179151121769655,0.09803173686313925,0.12365691000000001,-0.969663045,0.26574639,-5.90562,-8.48456,11.79598,67.0
1774823617.5526633,3.0994415283203125e-05,2026-03-29T22:33:37.552,2026-03-29T18:33:37.552,-21341.295,-44747.415,-76554.62999999999,-48660.345,-8412.705,-16311.42,8296.785,-66278.295,1.8078775682421218,3.347027176830699,7.756583768978327,-1.9885105617929808,-3.7090351854820702,-2.6550390267789976,-1.9595241511887551,0.5436310330540851,0.12365691000000001,-0.969663045,0.26574639,-5.90562,-8.48456,11.79598,67.0
1774823617.5575807,0.0049173831939697266,2026-03-29T22:33:37.557,2026-03-29T18:33:37.557,-21346.38,-44753.58,-76559.12999999999,-48645.63,-8408.115,-16310.115,8297.1,-66281.76,2.4645191735624037,4.105409386377471,11.958459358001864,2.490152250432549,-1.6786916788739044,-1.4276129863057208,-4.536138025021993,0.7180408115151405,0.12365691000000001,-0.969663045,0.26574639,-5.90562,-8.48456,11.79598,67.0
1774823617.5576117,3.0994415283203125e-05,2026-03-29T22:33:37.557,2026-03-29T18:33:37.557,-21349.44,-44757.405,-76565.87999999999,-48637.845,-8399.61,-16303.949999999999,8295.029999999999,-66284.28,2.1742970713536396,3.1008603249093865,10.714812003410374,5.699863994536749,1.0587745953038619,0.3799416808429473,-5.103744334018397,0.7814752886972968,0.12365691000000001,-0.969663045,0.26574639,-5.90562,-8.48456,11.79598,67.0
1774823617.5630352,0.005423545837402344,2026-03-29T22:33:37.563,2026-03-29T18:33:37.563,-21345.524999999998,-44756.325,-76575.23999999999,-48647.52,-8400.42,-16301.25,8297.55,-66281.04,1.1284625614191321,0.834131659377705,4.74086563920974,6.356130950211551,3.324828239922834,1.9751297230560687,-3.3510399079438535,0.841090918459923,0.12676969500000002,-0.970761675,0.26647881,-6.28712,-7.996239999999999,13.581399999999999,67.0
1774823617.5630567,2.1457672119140625e-05,2026-03-29T22:33:37.563,2026-03-29T18:33:37.563,-21341.295,-44756.685,-76582.89,-48655.619999999995,-8404.154999999999,-16304.805,8292.645,-66276.855,-0.25318068465913585,-1.6923289147763245,-3.1599464561294535,4.339091314162493,4.161044238936043,2.6885942820136552,-0.02240731788391842,0.833830809553189,0.12676969500000002,-0.970761675,0.26647881,-6.28712,-7.996239999999999,13.581399999999999,67.0
1774823617.5630727,1.5974044799804688e-05,2026-03-29T22:33:37.563,2026-03-29T18:33:37.563,-21334.77,-44760.284999999996,-76593.87,-48665.655,-8413.47,-16314.66,8285.535,-66268.755,-1.4901147553268757,-3.422872124101747,-9.427912078006793,0.6549477872281513,3.2310501378474457,2.254408357287659,3.4039650952161336,0.5716329057721347,0.12676969500000002,-0.970761675,0.26647881,-6.28712,-7.996239999999999,13.581399999999999,67.0
1774823617.5630777,5.0067901611328125e-06,2026-03-29T22:33:37.563,2026-03-29T18:33:37.563,-21331.755,-44760.78,-76596.03,-48671.909999999996,-8425.035,-16327.08,8274.96,-66263.94,-2.188608657612269,-3.6865473455738327,-11.360283458696221,-3.0778888461953398,0.9483237724989592,0.901157093682472,5.376261393833751,-0.07901058091195555,0.12676969500000002,-0.970761675,0.26647881,-6.28712,-7.996239999999999,13.581399999999999,67.0
1774823617.5683937,0.005316019058227539,2026-03-29T22:33:37.568,2026-03-29T18:33:37.568,-21338.91,-44759.88,-76592.7,-48666.15,-8419.904999999999,-16321.5,8276.445,-66276.54,-2.1363831843568777,-2.4447928750078436,-8.270329093251892,-5.350121480440674,-1.7137537350918426,-0.7721253245183225,4.970829537820815,-1.0113426658639268,0.12676969500000002,-0.970761675,0.26647881,-6.28712,-7.996239999999999,13.581399999999999,67.0
1774823617.5684144,2.0742416381835938e-05,2026-03-29T22:33:37.568,2026-03-29T18:33:37.568,-21354.165,-44754.615,-76577.48999999999,-48645.0,-8394.93,-16298.82,8293.455,-66303.63,-1.344014863853141,-0.2650506148325812,-1.6988236572409434,-5.363304932435547,-3.639199166404714,-2.066599077388961,2.3188234818636992,-1.8333554722979721,0.12676969500000002,-0.970761675,0.26647881,-6.28712,-7.996239999999999,13.581399999999999,67.0
1774823617.5726054,0.004190921783447266,2026-03-29T22:33:37.572,2026-03-29T18:33:37.572,-21344.085,-44754.615,-76581.09,-48648.015,-8398.845,-16300.845,8296.244999999999,-66286.395,-0.043186527736459424,1.9442456649734021,5.365366795864591,-3.276958336284221,-4.0342579520255315,-2.4760268184836347,-1.436557890206049,-2.030825846181683,0.12676969500000002,-0.970761675,0.26647881,-6.28712,-7.996239999999999,13.581399999999999,67.0
1774823617.572621,1.5735626220703125e-05,2026-03-29T22:33:37.572,2026-03-29T18:33:37.572,-21339.809999999998,-44757.54,-76585.905,-48653.595,-8405.46,-16306.47,8289.045,-66281.44499999999,1.3574072165826685,3.3111065283354724,9.856921107983261,-0.0470432972427123,-2.748367181469171,-1.8785984768096027,-4.636959944211014,-1.2717703760525538,0.12676969500000002,-0.970761675,0.26647881,-6.28712,-7.996239999999999,13.581399999999999,67.0
1774823617.5768113,0.004190206527709961,2026-03-29T22:33:37.576,2026-03-29T18:33:37.576,-21354.57,-44764.424999999996,-76587.435,-48652.604999999996,-8405.955,-16307.144999999999,8287.199999999999,-66298.995,2.3680479914307564,3.334014456680891,9.96290316924113,3.0224598430347878,-0.3255887495407259,-0.5593384852693192,-5.84185330316722,0.32174303333931353,0.12676969500000002,-0.970761675,0.26647881,-6.28712,-7.996239999999999,13.581399999999999,67.0
1774823617.576834,2.2649765014648438e-05,2026-03-29T22:33:37.576,2026-03-29T18:33:37.576,-21358.71,-44767.08,-76587.84,-48646.755,-8399.52,-16301.699999999999,8291.205,-66306.555,2.566931716861927,2.0507317885453404,5.833999633746117,4.799136462263387,2.2269046981297937,0.9299957858486368,-4.473509522887699,2.1187640671152526,0.12676969500000002,-0.970761675,0.26647881,-6.28712,-7.996239999999999,13.581399999999999,67.0
1774823617.5803618,0.0035278797149658203,2026-03-29T22:33:37.580,2026-03-29T18:33:37.580,-21353.579999999998,-44769.78,-76590.405,-48636.225,-8395.065,-16304.849999999999,8285.76,-66299.175,1.7716444548347143,-0.005275212873025075,-0.5887185327520069,4.709661707444713,3.8541863988024576,2.00297337130059,-1.0870588142382664,3.221654308977476,0.13244595,-0.964047825,0.26769951000000003,-12.00962,-6.50076,15.656759999999998,67.0
1774823617.580372,1.0251998901367188e-05,2026-03-29T22:33:37.580,2026-03-29T18:33:37.580,-21353.67,-44771.715,-76587.3,-48625.695,-8386.56,-16302.105,8285.445,-66293.685,0.16607593845529153,-2.0268173598001487,-6.497715751311814,2.881938477813381,3.8838390418293853,2.264502875670011,2.857522435319703,2.916877043362657,0.13244595,-0.964047825,0.26769951000000003,-12.00962,-6.50076,15.656759999999998,67.0
1774823617.590948,0.010576009750366211,2026-03-29T22:33:37.590,2026-03-29T18:33:37.590,-21354.93,-44769.24,-76582.305,-48622.994999999995,-8383.545,-16300.035,8288.64,-66291.48,-1.696303018725701,-3.2412061748763077,-9.448894834034036,0.03835022450307482,2.2995047815956444,1.6468078397977093,5.626211671371835,1.1069907403135548,0.13244595,-0.964047825,0.26769951000000003,-12.00962,-6.50076,15.656759999999998,67.0
1774823617.5909812,3.314018249511719e-05,2026-03-29T22:33:37.590,2026-03-29T18:33:37.590,-21354.344999999998,-44763.39,-76585.23,-48641.13,-8396.865,-16306.064999999999,8287.695,-66296.43,-3.0573511489739515,-3.192392495054595,-8.358089236640472,-2.784001842814582,-0.25065878409246917,0.41461097806853814,5.971541154814066,-1.5273697094033014,0.13244595,-0.964047825,0.26769951000000003,-12.00962,-6.50076,15.656759999999998,67.0
1774823617.5909972,1.5974044799804688e-05,2026-03-29T22:33:37.590,2026-03-29T18:33:37.590,-21348.719999999998,-44758.935,-76589.64,-48649.994999999995,-8404.154999999999,-16307.279999999999,8294.445,-66292.605,-3.255521613204435,-1.9021106546704991,-3.8666137702210586,-4.580813949257241,-2.7147299932685187,-0.9498713679856026,3.6905419575580636,-3.7682940024582625,0.13244595,-0.964047825,0.26769951000000003,-12.00962,-6.50076,15.656759999999998,67.0
1774823617.591004,6.67572021484375e-06,2026-03-29T22:33:37.591,2026-03-29T18:33:37.591,-21347.82,-44760.78,-76585.86,-48640.545,-8401.32,-16306.244999999999,8286.93,-66298.455,-2.048026052651946,0.14071802329714636,2.026498401969424,-4.699161541994422,-4.064967369018923,-1.9315955161008815,-0.2673530718488731,-4.42821167226705,0.13244595,-0.964047825,0.26769951000000003,-12.00962,-6.50076,15.656759999999998,67.0
1774823617.6006553,0.009651422500610352,2026-03-29T22:33:37.600,2026-03-29T18:33:37.600,-21351.645,-44764.38,-76576.23,-48622.77,-8395.785,-16306.83,8272.08,-66305.83499999999,0.20346025407543897,2.15695541786886,6.858635027065765,-3.052175040869691,-3.722865982609724,-2.168942048731232,-4.196254213599609,-2.9776093598175324,0.13244595,-0.964047825,0.26769951000000003,-12.00962,-6.50076,15.656759999999998,67.0
1774823617.6006713,1.5974044799804688e-05,2026-03-29T22:33:37.600,2026-03-29T18:33:37.600,-21345.03,-44760.015,-76574.97,-48628.259999999995,-8402.49,-16309.935,8275.095,-66293.64,2.605659932085026,3.3618257649643906,8.72267000572511,-0.17458207766055248,-1.8081560997451132,-1.579312958335947,-6.3683013811467735,0.09825030014180332,0.13244595,-0.964047825,0.26769951000000003,-12.00962,-6.50076,15.656759999999998,67.0
1774823617.600695,2.3603439331054688e-05,2026-03-29T22:33:37.600,2026-03-29T18:33:37.600,-21338.864999999998,-44758.439999999995,-76584.69,-48643.965,-8406.045,-16306.605,8295.66,-66281.44499999999,4.0773882420667125,3.2609814496589933,6.99572339702127,2.9136512784684383,0.8957445916257267,-0.38515588766962555,-5.791285737425833,3.4347310650265115,0.13244595,-0.964047825,0.26769951000000003,-12.00962,-6.50076,15.656759999999998,67.0
1774823617.600701,6.198883056640625e-06,2026-03-29T22:33:37.600,2026-03-29T18:33:37.600,-21336.704999999998,-44750.159999999996,-76587.165,-48668.58,-8403.705,-16293.555,8317.619999999999,-66282.885,3.838146583604442,1.852024229233788,2.513763015997169,5.027657617704125,3.2552098205117064,0.966195999635411,-2.6586970111052826,5.395838082003787,0.13244595,-0.964047825,0.26769951000000003,-12.00962,-6.50076,15.656759999999998,67.0
1774823617.6007063,5.245208740234375e-06,2026-03-29T22:33:37.600,2026-03-29T18:33:37.600,-21348.36,-44763.615,-76604.4,-48679.02,-8402.715,-16292.88,8316.494999999999,-66285.09,1.8198050006905486,-0.3499774473786936,-2.8340522088465128,5.249266158924088,4.258008814201961,1.96251730849849,1.7104025820652022,4.882638995739762,0.134093895,-0.957578115,0.26892021,-19.63962,-6.4397199999999994,17.610039999999998,67.0
1774823617.60071,3.5762786865234375e-06,2026-03-29T22:33:37.600,2026-03-29T18:33:37.600,-21347.415,-44768.295,-76605.61499999999,-48671.189999999995,-8403.39,-16294.949999999999,8311.41,-66285.9,-1.2151014895756314,-2.4873057626415216,-6.894301535614067,3.327640091697286,3.449587796539606,2.2141262142506357,5.425745963969547,1.9397071128820822,0.134093895,-0.957578115,0.26892021,-19.63962,-6.4397199999999994,17.610039999999998,67.0
1774823617.6044574,0.0037474632263183594,2026-03-29T22:33:37.604,2026-03-29T18:33:37.604,-21346.469999999998,-44762.715,-76579.875,-48652.83,-8405.91,-16301.744999999999,8300.475,-66288.33,-3.9459504544919777,-3.6841257971406596,-8.097074763439728,-0.12610454568524285,1.1454135636101546,1.6043057604960491,6.842514222083746,-2.171341906929836,0.134093895,-0.957578115,0.26892021,-19.63962,-6.4397199999999994,17.610039999999998,67.0
1774823617.6044724,1.5020370483398438e-05,2026-03-29T22:33:37.604,2026-03-29T18:33:37.604,-21347.37,-44764.244999999995,-76583.61,-48655.71,-8411.265,-16305.57,8300.385,-66289.815,-5.069527540130842,-3.403810184349287,-6.040909549863428,-3.7819783657662196,-1.6827965847940491,0.3457534158261697,5.288584922693844,-5.5116120508010304,0.134093895,-0.957578115,0.26892021,-19.63962,-6.4397199999999994,17.610039999999998,67.0
1774823617.608637,0.004164695739746094,2026-03-29T22:33:37.608,2026-03-29T18:33:37.608,-21348.45,-44764.83,-76583.565,-48650.939999999995,-8409.195,-16305.39,8299.935,-66292.155,-3.927315466643822,-1.6943058435774792,-1.6104746960600569,-6.077252550183229,-3.812183245361091,-1.0854513373109804,1.3815622383238455,-6.387618279611386,0.134093895,-0.957578115,0.26892021,-19.63962,-6.4397199999999994,17.610039999999998,67.0
1774823617.6086533,1.621246337890625e-05,2026-03-29T22:33:37.608,2026-03-29T18:33:37.608,-21350.79,-44767.395,-76585.14,-48654.99,-8412.119999999999,-16308.72,8295.074999999999,-66294.855,-0.8799987035925604,0.7930329360177804,3.397268783573137,-5.884987967627894,-4.299602267740414,-2.123449902235907,-3.213348079739085,-4.213802821309231,0.134093895,-0.957578115,0.26892021,-19.63962,-6.4397199999999994,17.610039999999998,67.0
1774823617.61503,0.006376743316650391,2026-03-29T22:33:37.615,2026-03-29T18:33:37.615,-21352.86,-44769.645,-76587.525,-48658.68,-8412.57,-16307.685,8293.095,-66298.68,2.779679303602163,3.0408802212756196,6.984884089427643,-3.079782302147917,-2.907321999526094,-2.334557431795118,-6.491913791755855,0.1262404010402798,0.134093895,-0.957578115,0.26892021,-19.63962,-6.4397199999999994,17.610039999999998,67.0
1774823617.6150503,2.0265579223632812e-05,2026-03-29T22:33:37.615,2026-03-29T18:33:37.615,-21351.149999999998,-44767.665,-76584.78,-48655.71,-8412.21,-16307.189999999999,8290.755,-66299.44499999999,5.373906343484049,4.079843971475193,7.733177096119953,1.2883179273664662,-0.22770606989321832,-1.6016163590948849,-6.985628995343043,4.632518205967185,0.134093895,-0.957578115,0.26892021,-19.63962,-6.4397199999999994,17.610039999999998,67.0
1774823617.616468,0.0014176368713378906,2026-03-29T22:33:37.616,2026-03-29T18:33:37.616,-21346.605,-44761.905,-76581.18,-48642.93,-8402.355,-16300.8,8290.71,-66299.895,5.616124182529236,3.4119596582639438,5.354519071946223,5.3550801455963875,2.562118861471846,-0.1906803025194425,-4.421101014096128,7.118088750181441,0.134093895,-0.957578115,0.26892021,-19.63962,-6.4397199999999994,17.610039999999998,67.0
1774823617.616481,1.3113021850585938e-05,2026-03-29T22:33:37.616,2026-03-29T18:33:37.616,-21350.61,-44772.479999999996,-76608.98999999999,-48639.78,-8400.779999999999,-16301.25,8291.16,-66297.645,3.254031425602741,1.256126260358175,0.8098723189092099,7.235692471973534,4.218313769872957,1.3384931205705415,0.13270053209673413,6.2793868914737,0.134093895,-0.957578115,0.26892021,-19.63962,-6.4397199999999994,17.610039999999998,67.0
1774823617.620748,0.004266977310180664,2026-03-29T22:33:37.620,2026-03-29T18:33:37.620,-21358.53,-44785.215,-76621.635,-48641.49,-8399.205,-16300.125,8297.235,-66299.895,-0.7444461829904194,-1.5085047893016834,-4.062510201181348,5.915389249811252,3.9933117548953745,2.352724953925028,4.707486110050821,2.379329218921989,0.13293423000000001,-0.95751708,0.26940849,-25.80466,-6.24134,19.4565,67.0
1774823617.620761,1.2874603271484375e-05,2026-03-29T22:33:37.620,2026-03-29T18:33:37.620,-21362.355,-44788.95,-76617.765,-48653.82,-8401.994999999999,-16299.99,8296.695,-66306.105,-4.582922278629181,-3.697596530093315,-7.2742124324043,1.8088965746299526,1.9851908163822,2.411024291389638,7.287332279109036,-2.814604604442367,0.13293423000000001,-0.95751708,0.26940849,-25.80466,-6.24134,19.4565,67.0
1774823617.6244946,0.0037336349487304688,2026-03-29T22:33:37.624,2026-03-29T18:33:37.624,-21359.114999999998,-44783.865,-76611.59999999999,-48672.72,-8412.525,-16304.805,8296.244999999999,-66302.595,-6.450354948084344,-4.334032858925261,-7.492594384911231,-3.3234587487677185,-0.8955163311559711,1.4623850464329606,6.700684458497493,-6.837451360394757,0.13293423000000001,-0.95751708,0.26940849,-25.80466,-6.24134,19.4565,67.0
1774823617.6245189,2.4318695068359375e-05,2026-03-29T22:33:37.624,2026-03-29T18:33:37.624,-21354.57,-44776.89,-76599.18,-48676.905,-8420.4,-16310.43,8290.215,-66300.48,-5.384992130336218,-3.0936806608477316,-4.602772809263738,-7.124018620915523,-3.3366679303588125,-0.11601491634310085,3.156543673653345,-7.707411927412182,0.13293423000000001,-0.95751708,0.26940849,-25.80466,-6.24134,19.4565,67.0
1774823617.628512,0.003993034362792969,2026-03-29T22:33:37.628,2026-03-29T18:33:37.628,-21350.114999999998,-44771.985,-76591.215,-48659.58,-8416.08,-16311.734999999999,8287.65,-66297.69,-1.7718639378945005,-0.476617450416948,0.21616942298229802,-7.7373891393326,-4.229201420700623,-1.6665725231518709,-1.8226432386988627,-4.909365999010638,0.13293423000000001,-0.95751708,0.26940849,-25.80466,-6.24134,19.4565,67.0
1774823617.6285353,2.3365020751953125e-05,2026-03-29T22:33:37.628,2026-03-29T18:33:37.628,-21334.905,-44754.435,-76567.31999999999,-48636.045,-8408.565,-16312.59,8278.11,-66286.485,2.7845026302797495,2.388924373990159,4.955056793606643,-4.741668528637791,-3.1841293378968922,-2.5286519443056723,-6.054963498013675,0.31020516542458954,0.13293423000000001,-0.95751708,0.26940849,-25.80466,-6.24134,19.4565,67.0
1774823617.632922,0.0043866634368896484,2026-03-29T22:33:37.632,2026-03-29T18:33:37.632,-21330.27,-44752.86,-76564.34999999999,-48626.865,-8405.414999999999,-16310.43,8266.14,-66282.345,6.177633552892698,4.236509461793928,7.607202309650868,0.566677575308943,-0.7148121181106216,-2.3270371779725276,-7.659682382226736,5.501965692858626,0.13293423000000001,-0.95751708,0.26940849,-25.80466,-6.24134,19.4565,67.0
1774823617.6329312,9.298324584960938e-06,2026-03-29T22:33:37.632,2026-03-29T18:33:37.632,-21336.03,-44763.479999999996,-76579.155,-48636.314999999995,-8410.59,-16310.654999999999,8258.58,-66286.125,6.783686638205209,4.231126017673903,7.028674627666799,5.721045399064361,2.0072992357717347,-1.142013862299481,-5.8999314060466075,8.17390668735417,0.13293423000000001,-0.95751708,0.26940849,-25.80466,-6.24134,19.4565,67.0
1774823617.6387792,0.005847930908203125,2026-03-29T22:33:37.638,2026-03-29T18:33:37.638,-21332.16,-44760.104999999996,-76572.36,-48633.345,-8403.119999999999,-16303.5,8269.74,-66283.69499999999,4.247827859545046,2.357698930014699,3.4525259456965705,8.242666246298366,3.7109726039686466,0.5194492966983889,-1.5266714045780896,6.998194023628,0.13293423000000001,-0.95751708,0.26940849,-25.80466,-6.24134,19.4565,67.0
1774823617.6388636,8.440017700195312e-05,2026-03-29T22:33:37.638,2026-03-29T18:33:37.638,-21361.32,-44763.705,-76564.305,-48626.865,-8394.57,-16289.865,8313.3,-66322.62,-0.3126307031813138,-0.5573732735090033,-1.5848120641952774,6.860350604354125,3.6306860688629485,1.9432960062645332,3.5394685265457526,2.475168619975963,0.13293423000000001,-0.95751708,0.26940849,-25.80466,-6.24134,19.4565,67.0
1774823617.6407852,0.0019216537475585938,2026-03-29T22:33:37.640,2026-03-29T18:33:37.640,-21369.645,-44772.39,-76580.28,-48629.97,-8400.914999999999,-16294.095,8320.41,-66327.84,-4.8027399584466925,-3.2114334003319343,-5.896060495261657,2.1802100521882455,1.865790978149578,2.5225675182148435,7.05548278867304,-3.2794280441575108,0.130675935,-0.96374265,0.27123954,-26.506619999999998,-4.303319999999999,21.6692,67.0
1774823617.6407967,1.1444091796875e-05,2026-03-29T22:33:37.640,2026-03-29T18:33:37.640,-21357.719999999998,-44768.43,-76595.12999999999,-48635.369999999995,-8408.43,-16301.025,8305.02,-66320.055,-7.122218226475778,-4.416055413822147,-7.602644548159667,-3.5587247201026386,-0.6823609467205942,2.0244623796303567,7.457390224550335,-7.533560504376661,0.130675935,-0.96374265,0.27123954,-26.506619999999998,-4.303319999999999,21.6692,67.0
1774823617.6446157,0.003818988800048828,2026-03-29T22:33:37.644,2026-03-29T18:33:37.644,-21351.329999999998,-44764.155,-76593.78,-48632.265,-8403.525,-16297.83,8296.605,-66320.64,-6.159644208962651,-3.641423038469658,-5.976270311824553,-7.557538830928899,-2.7640808292759846,0.6885562398858571,4.5650163621736315,-8.247982394225037,0.130675935,-0.96374265,0.27123954,-26.506619999999998,-4.303319999999999,21.6692,67.0
1774823617.644636,2.0265579223632812e-05,2026-03-29T22:33:37.644,2026-03-29T18:33:37.644,-21357.27,-44768.34,-76594.995,-48645.9,-8401.23,-16295.22,8291.385,-66324.95999999999,-2.332524929727795,-1.2596883381723936,-1.7743135052946493,-7.845059200236581,-3.400293379493594,-0.8880331191269035,-0.33180656260221064,-5.06234118471143,0.130675935,-0.96374265,0.27123954,-26.506619999999998,-4.303319999999999,21.6692,67.0
1774823617.653412,0.008776187896728516,2026-03-29T22:33:37.653,2026-03-29T18:33:37.653,-21348.09,-44763.03,-76589.955,-48646.71,-8394.345,-16288.65,8293.185,-66309.93,2.5925029471012024,1.6292954251659582,3.098064628166564,-4.283122208470803,-2.3578659013850967,-2.023868781342773,-5.049662890421343,0.5225262440070089,0.130675935,-0.96374265,0.27123954,-26.506619999999998,-4.303319999999999,21.6692,67.0
1774823617.6534328,2.0742416381835938e-05,2026-03-29T22:33:37.653,2026-03-29T18:33:37.653,-21341.43,-44760.195,-76588.92,-48648.78,-8401.815,-16293.24,8294.805,-66292.69499999999,6.32261748579861,3.7101977972611397,6.456128977825743,1.336809461996546,-0.24407485244955301,-2.257028420846587,-7.492953692096676,5.85851958711847,0.130675935,-0.96374265,0.27123954,-26.506619999999998,-4.303319999999999,21.6692,67.0
1774823617.6534612,2.8371810913085938e-05,2026-03-29T22:33:37.653,2026-03-29T18:33:37.653,-21342.239999999998,-44754.93,-76575.42,-48634.92,-8402.445,-16297.289999999999,8300.07,-66287.83499999999,7.118080577013168,4.062001404665828,6.837165407075875,6.180613138997019,1.8242553464354305,-1.5395871342998686,-6.595882571867587,8.417514442716566,0.130675935,-0.96374265,0.27123954,-26.506619999999998,-4.303319999999999,21.6692,67.0
1774823617.6534684,7.152557373046875e-06,2026-03-29T22:33:37.653,2026-03-29T18:33:37.653,-21344.355,-44755.74,-76565.655,-48625.965,-8403.119999999999,-16302.105,8294.895,-66285.58499999999,4.614367210326573,2.5778663911726087,4.166265194209364,7.809310799913072,2.8043906546637554,-0.23715348977270984,-2.7964735109810674,6.99998685839546,0.130675935,-0.96374265,0.27123954,-26.506619999999998,-4.303319999999999,21.6692,67.0
1774823617.6616344,0.008166074752807617,2026-03-29T22:33:37.661,2026-03-29T18:33:37.661,-21348.315,-44761.275,-76568.12999999999,-48626.415,-8403.525,-16298.505,8303.895,-66296.11499999999,-0.006183814292836319,-0.0019013608741886004,-0.2308697900005552,5.435379193487995,2.261689755479893,1.0581570194636822,2.172782931329139,2.3021560415877844,0.130675935,-0.96374265,0.27123954,-26.506619999999998,-4.303319999999999,21.6692,67.0
1774823617.6616566,2.2172927856445312e-05,2026-03-29T22:33:37.661,2026-03-29T18:33:37.661,-21352.995,-44766.045,-76567.14,-48620.295,-8403.93,-16297.515,8303.13,-66302.055,-4.576060787729042,-2.4553790304490697,-4.275622042289138,0.33959627589688185,0.5773438127982363,1.8055425510407375,6.079776455667312,-3.4287183962908037,0.130675935,-0.96374265,0.27123954,-26.506619999999998,-4.303319999999999,21.6692,67.0
1774823617.6616752,1.8596649169921875e-05,2026-03-29T22:33:37.661,2026-03-29T18:33:37.661,-21348.765,-44762.939999999995,-76566.51,-48619.89,-8404.92,-16299.18,8294.085,-66302.145,-6.969141644972895,-3.6639166246534414,-6.132710023077561,-4.786601932394233,-1.2765262823219554,1.7499754783312056,7.206621919192241,-7.478863773087755,0.127135905,-0.97118892,0.273375765,-24.06502,-3.2045999999999997,21.257179999999998,67.0
1774823617.6616797,4.5299530029296875e-06,2026-03-29T22:33:37.661,2026-03-29T18:33:37.661,-21345.03,-44760.06,-76564.53,-48613.455,-8402.715,-16297.47,8289.675,-66298.455,-6.101446822613705,-3.1338408618778653,-5.071791413188447,-7.24818954492463,-2.2731299443019584,1.0071461419831529,5.117044098297181,-7.964456814690516,0.127135905,-0.97118892,0.273375765,-24.06502,-3.2045999999999997,21.257179999999998,67.0
1774823617.6712463,0.009566545486450195,2026-03-29T22:33:37.671,2026-03-29T18:33:37.671,-21338.37,-44757.54,-76567.95,-48622.545,-8401.32,-16291.664999999999,8296.695,-66287.745,-2.4297907761069273,-1.2066122546465086,-1.7767245361943724,-5.773292082277989,-1.891349142995621,-0.028996543116291615,0.8287574770262727,-4.715332385278287,0.127135905,-0.97118892,0.273375765,-24.06502,-3.2045999999999997,21.257179999999998,67.0
1774823617.6712613,1.5020370483398438e-05,2026-03-29T22:33:37.671,2026-03-29T18:33:37.671,-21343.545,-44770.77,-76594.86,-48644.46,-8406.855,-16297.335,8300.52,-66292.965,2.2845240051504496,1.1363604375106602,2.0413933614352175,-1.2012508099758215,-0.39770498091244444,-0.8963807487315525,-3.679767884318471,0.6720684351685067,0.127135905,-0.97118892,0.273375765,-24.06502,-3.2045999999999997,21.257179999999998,67.0
1774823617.6712751,1.3828277587890625e-05,2026-03-29T22:33:37.671,2026-03-29T18:33:37.671,-21337.559999999998,-44769.195,-76590.98999999999,-48633.03,-8402.805,-16295.22,8300.475,-66289.68,5.826105691372144,2.7695575278930047,4.523992115874015,3.951004749624464,1.3057676512281395,-1.2803327065196661,-6.3903095296897545,5.624528647285123,0.127135905,-0.97118892,0.273375765,-24.06502,-3.2045999999999997,21.257179999999998,67.0
1774823617.67128,4.76837158203125e-06,2026-03-29T22:33:37.671,2026-03-29T18:33:37.671,-21330.765,-44766.9,-76588.155,-48631.814999999995,-8406.945,-16294.949999999999,8299.529999999999,-66278.655,6.5767667836727,2.970669853581618,4.5885464779276575,6.835530680748298,2.189822244998201,-1.1295989884348496,-6.16146089636677,7.831310531088744,0.127135905,-0.97118892,0.273375765,-24.06502,-3.2045999999999997,21.257179999999998,67.0
1774823617.671285,5.0067901611328125e-06,2026-03-29T22:33:37.671,2026-03-29T18:33:37.671,-21329.954999999998,-44769.96,-76586.44499999999,-48633.479999999996,-8410.32,-16295.039999999999,8303.355,-66275.145,4.264185608050228,1.7505424509775263,2.429179926570383,5.826491628650768,1.6877477130706167,-0.6283199239899102,-3.2184804324668947,6.331244349555376,0.127135905,-0.97118892,0.273375765,-24.06502,-3.2045999999999997,21.257179999999998,67.0
1774823617.6712885,3.5762786865234375e-06,2026-03-29T22:33:37.671,2026-03-29T18:33:37.671,-21343.59,-44782.65,-76613.84999999999,-48634.56,-8413.11,-16296.84,8300.475,-66284.91,0.05735730206829654,-0.18963268811394557,-0.6509272447449457,1.4411471750453344,0.03945840567066593,-0.05815006919226216,0.9986374313657256,1.9320870987010843,0.127135905,-0.97118892,0.273375765,-24.06502,-3.2045999999999997,21.257179999999998,67.0
1774823617.67697,0.005681514739990234,2026-03-29T22:33:37.676,2026-03-29T18:33:37.676,-21361.95,-44800.604999999996,-76677.075,-48647.205,-8410.32,-16292.43,8301.96,-66297.42,-4.022736175636675,-1.8406064079791697,-2.972950408754162,-3.892643464496554,-1.811942193470327,0.361063930784837,4.539799834873278,-3.2209598195237064,0.127135905,-0.97118892,0.273375765,-24.06502,-3.2045999999999997,21.257179999999998,67.0
1774823617.6769967,2.6702880859375e-05,2026-03-29T22:33:37.676,2026-03-29T18:33:37.676,-21373.155,-44799.525,-76673.745,-48643.29,-8396.505,-16274.97,8309.699999999999,-66321.72,-6.080462450035518,-2.404977023795952,-3.3855412467348436,-7.132289110609645,-2.732042227935969,0.5619894472589851,5.857370167455131,-6.69831289194366,0.127135905,-0.97118892,0.273375765,-24.06502,-3.2045999999999997,21.257179999999998,67.0
1774823617.715096,0.03809928894042969,2026-03-29T22:33:37.715,2026-03-29T18:33:37.715,-21367.8,-44791.875,-76637.87999999999,-48661.92,-8398.619999999999,-16268.49,8310.914999999999,-66317.04,-5.235220909059372,-1.6886787917686856,-1.856194045841969,-6.304734519452626,-2.046839137499485,0.6108801593847619,4.4948155031063175,-6.94040947747509,0.12377898,-0.97192134,0.27062919,-20.860419999999998,-1.9380199999999999,22.737399999999997,67.0
1774823617.7151163,2.0265579223632812e-05,2026-03-29T22:33:37.715,2026-03-29T18:33:37.715,-21370.59,-44788.14,-76602.06,-48695.22,-8418.465,-16278.615,8305.425,-66317.04,-2.001842467807495,-0.1693791048296174,0.5608213100192174,-1.6648306822185703,0.026159018657456155,0.607481963539086,1.2390541666498638,-3.9608007794764446,0.12377898,-0.97192134,0.27062919,-20.860419999999998,-1.9380199999999999,22.737399999999997,67.0
1774823617.7151349,1.8596649169921875e-05,2026-03-29T22:33:37.715,2026-03-29T18:33:37.715,-21375.945,-44794.755,-76609.98,-48699.9,-8427.105,-16292.609999999999,8300.61,-66323.52,2.004228434189287,1.2837765706277278,2.354671486067381,4.3359588926050545,2.425158967239657,0.5808804237009572,-2.3118695563347265,0.7206305425200552,0.12377898,-0.97192134,0.27062919,-20.860419999999998,-1.9380199999999999,22.737399999999997,67.0
1774823617.7151415,6.67572021484375e-06,2026-03-29T22:33:37.715,2026-03-29T18:33:37.715,-21367.44,-44791.965,-76606.155,-48643.02,-8413.02,-16297.65,8295.795,-66318.03,4.8740983569334375,1.8849777016225582,2.4355262095627803,8.309700426291554,3.77646377815913,0.4574721132626525,-4.53571654259609,4.853781825868483,0.12377898,-0.97192134,0.27062919,-20.860419999999998,-1.9380199999999999,22.737399999999997,67.0
1774823617.715149,7.3909759521484375e-06,2026-03-29T22:33:37.715,2026-03-29T18:33:37.715,-21353.175,-44767.619999999995,-76560.20999999999,-48598.335,-8399.88,-16295.939999999999,8280.63,-66313.08,5.321236454752323,1.3489528587880766,0.7704482525574486,7.785664892799199,3.1493541919588672,0.12732711634638036,-4.538861791386675,6.546871460107439,0.12377898,-0.97192134,0.27062919,-20.860419999999998,-1.9380199999999999,22.737399999999997,67.0
1774823617.7151546,5.7220458984375e-06,2026-03-29T22:33:37.715,2026-03-29T18:33:37.715,-21345.165,-44751.869999999995,-76544.055,-48595.905,-8386.335,-16284.15,8268.255,-66310.605,3.263642497673889,0.03184637513820049,-1.5839411682201998,2.6633972104624917,0.6292156895224887,-0.43360219000652067,-2.5202017088698696,5.137484849165535,0.12377898,-0.97192134,0.27062919,-20.860419999999998,-1.9380199999999999,22.737399999999997,67.0
1774823617.7151616,6.9141387939453125e-06,2026-03-29T22:33:37.715,2026-03-29T18:33:37.715,-21340.89,-44744.67,-76540.185,-48612.6,-8384.805,-16278.75,8279.055,-66307.5,-0.1935371667002369,-1.2758373205206754,-3.0840225841540847,-4.561554367052604,-2.624105615403013,-1.0729692682899035,0.40494760946651776,1.4427096380185003,0.12377898,-0.97192134,0.27062919,-20.860419999999998,-1.9380199999999999,22.737399999999997,67.0
1774823617.7151673,5.7220458984375e-06,2026-03-29T22:33:37.715,2026-03-29T18:33:37.715,-21343.995,-44746.02,-76538.16,-48624.345,-8401.815,-16288.47,8305.38,-66308.08499999999,-3.3418899558525714,-1.7916219209618947,-2.612645620857648,-9.99795887777443,-4.9074848817343755,-1.4815488701830957,2.8039239877468356,-2.700641601277504,0.12377898,-0.97192134,0.27062919,-20.860419999999998,-1.9380199999999999,22.737399999999997,67.0
1774823617.7151742,6.9141387939453125e-06,2026-03-29T22:33:37.715,2026-03-29T18:33:37.715,-21346.695,-44753.625,-76547.7,-48630.104999999996,-8422.92,-16302.06,8310.96,-66308.31,-4.714927021860828,-1.1808925079284849,-0.19133520797303963,-10.414101766865196,-4.85336443208952,-1.3385350402434149,3.6328648206925553,-5.35203711498407,0.12377898,-0.97192134,0.27062919,-20.860419999999998,-1.9380199999999999,22.737399999999997,67.0
1774823617.7151804,6.198883056640625e-06,2026-03-29T22:33:37.715,2026-03-29T18:33:37.715,-21350.204999999998,-44760.645,-76553.415,-48611.61,-8417.34,-16306.289999999999,8296.695,-66310.02,-3.775672180427567,0.2441763877365464,2.9305525673224526,-5.075969074044778,-2.207082702088534,-0.5161957228354174,2.6996845574326165,-5.381192073120004,0.12377898,-0.97192134,0.27062919,-20.860419999999998,-1.9380199999999999,22.737399999999997,67.0
1774823617.7151873,6.9141387939453125e-06,2026-03-29T22:33:37.715,2026-03-29T18:33:37.715,-21341.43,-44752.229999999996,-76549.545,-48606.21,-8401.005,-16293.015,8295.48,-66302.505,-1.1221396657593194,1.6791668797710133,4.901387671696641,3.649643637520782,1.9256806882942936,0.7752544747150242,0.674106884342117,-2.9471429508787557,0.12274138500000001,-0.97326411,0.270079875,-16.00774,-1.6175599999999999,25.59102,67.0
1774823617.7151928,5.4836273193359375e-06,2026-03-29T22:33:37.715,2026-03-29T18:33:37.715,-21335.715,-44749.439999999995,-76551.20999999999,-48610.485,-8390.07,-16280.369999999999,8304.66,-66295.215,1.865252872747788,2.2604522296272864,4.300762355872758,11.33685525070692,5.537358855995026,2.0084577973412645,-1.3272675967425933,0.6589050785399561,0.12274138500000001,-0.97326411,0.270079875,-16.00774,-1.6175599999999999,25.59102,67.0
1774823617.7152,7.152557373046875e-06,2026-03-29T22:33:37.715,2026-03-29T18:33:37.715,-21344.489999999998,-44761.14,-76558.36499999999,-48602.43,-8388.404999999999,-16280.144999999999,8317.71,-66298.815,3.735251256701683,1.5501018041360832,1.0238954911236455,13.733109842768938,6.695172385701872,2.5510022546521807,-2.341588160196919,3.693215284021646,0.12274138500000001,-0.97326411,0.270079875,-16.00774,-1.6175599999999999,25.59102,67.0
1774823617.715206,5.9604644775390625e-06,2026-03-29T22:33:37.715,2026-03-29T18:33:37.715,-21366.225,-44784.494999999995,-76573.75499999999,-48589.47,-8398.26,-16298.64,8275.904999999999,-66319.47,3.671638855215807,-0.1890489394241122,-3.4964224162511925,9.059637952704552,4.5598827486218765,1.985593390246219,-2.027914331620814,4.805843160369872,0.12274138500000001,-0.97326411,0.270079875,-16.00774,-1.6175599999999999,25.59102,67.0
1774823617.7152133,7.3909759521484375e-06,2026-03-29T22:33:37.715,2026-03-29T18:33:37.715,-21362.895,-44781.119999999995,-76572.36,-48580.064999999995,-8394.84,-16293.015,8271.945,-66317.4,1.8494042116933764,-2.087085560222004,-6.913474161525203,-0.8472579006217492,-0.08528959593152441,0.3775854774472123,-0.7727970961544316,3.6413614546761086,0.12274138500000001,-0.97326411,0.270079875,-16.00774,-1.6175599999999999,25.59102,67.0
1774823617.7152188,5.4836273193359375e-06,2026-03-29T22:33:37.715,2026-03-29T18:33:37.715,-21355.38,-44773.47,-76574.925,-48600.72,-8401.59,-16285.635,8301.465,-66306.825,-0.7140593506627794,-3.0979410239540424,-7.165814696406673,-11.23682909903074,-5.1071278809026035,-1.6681505064561282,0.5944096124331285,0.9267875911180136,0.12274138500000001,-0.97326411,0.270079875,-16.00774,-1.6175599999999999,25.59102,67.0
1774823617.7152257,6.9141387939453125e-06,2026-03-29T22:33:37.715,2026-03-29T18:33:37.715,-21358.53,-44781.165,-76599.18,-48665.52,-8423.145,-16292.07,8308.71,-66308.31,-2.71167839886086,-2.555170218823627,-3.6449858293281103,-16.73197851077554,-8.010757374215268,-3.2270733495199804,1.2974669575794264,-1.9567177497079495,0.12274138500000001,-0.97326411,0.270079875,-16.00774,-1.6175599999999999,25.59102,67.0
1774823617.7152312,5.4836273193359375e-06,2026-03-29T22:33:37.715,2026-03-29T18:33:37.715,-21361.59,-44784.72,-76605.165,-48674.52,-8412.164999999999,-16286.039999999999,8301.465,-66314.025,-3.208289819524549,-0.5638064242226095,2.3065760972352147,-14.097478340347582,-7.182020903637694,-3.4764009409699876,1.0390366642389375,-3.6748296845898416,0.12274138500000001,-0.97326411,0.270079875,-16.00774,-1.6175599999999999,25.59102,67.0
1774823617.7168055,0.0015742778778076172,2026-03-29T22:33:37.716,2026-03-29T18:33:37.716,-21353.445,-44776.845,-76593.375,-48652.47,-8412.795,-16288.154999999999,8299.619999999999,-66306.87,-2.0777240721504358,1.988858232844656,7.895435612418808,-4.066739486807043,-2.7632802794225717,-2.12442203280398,0.12745622876430354,-3.5584943765106676,0.12274138500000001,-0.97326411,0.270079875,-16.00774,-1.6175599999999999,25.59102,67.0
1774823617.7168136,8.106231689453125e-06,2026-03-29T22:33:37.716,2026-03-29T18:33:37.716,-21352.725,-44770.68,-76565.295,-48607.83,-8407.529999999999,-16289.73,8294.085,-66304.485,-0.01126901039465033,3.832863508233115,10.195540014877437,8.77900467429982,3.3055898228194023,0.3748629030644974,-0.7502728404115501,-1.8527858765980194,0.12274138500000001,-0.97326411,0.270079875,-16.00774,-1.6175599999999999,25.59102,67.0
1774823617.7207582,0.0039446353912353516,2026-03-29T22:33:37.720,2026-03-29T18:33:37.720,-21355.29,-44774.595,-76566.465,-48581.549999999996,-8390.97,-16283.789999999999,8296.425,-66307.95,1.8820407009621682,3.9433726527180437,7.6587679079650615,18.124058453800316,8.148746732324192,2.958191928439171,-0.9657783694437019,0.48929516299061,0.12280242,-0.974789985,0.273741975,-13.367759999999999,0.8087799999999999,26.64396,67.0
1774823617.7207713,1.3113021850585938e-05,2026-03-29T22:33:37.720,2026-03-29T18:33:37.720,-21357.495,-44786.295,-76613.04,-48599.729999999996,-8401.095,-16287.705,8294.535,-66310.73999999999,2.6597947368902486,2.0872070838541803,1.0440953116015639,19.0393726837112,9.331417514658062,4.409945777769343,-0.3393866838902273,2.327137236488822,0.12280242,-0.974789985,0.273741975,-13.367759999999999,0.8087799999999999,26.64396,67.0
1774823617.7248187,0.004047393798828125,2026-03-29T22:33:37.724,2026-03-29T18:33:37.724,-21357.719999999998,-44791.965,-76638.69,-48619.215,-8411.31,-16285.904999999999,8299.17,-66309.03,2.0109875255438023,-0.9961206236023629,-6.760823537472519,10.560391139449711,6.086406165650487,3.941167222741319,0.7432447157034638,2.8873637015309153,0.12280242,-0.974789985,0.273741975,-13.367759999999999,0.8087799999999999,26.64396,67.0
1774823617.7248497,3.0994415283203125e-05,2026-03-29T22:33:37.724,2026-03-29T18:33:37.724,-21363.12,-44799.345,-76655.16,-48673.53,-8430.39,-16288.335,8302.275,-66310.875,0.3733969371465748,-3.892360725890113,-12.01620956950843,-3.6203024224304463,-0.22972295403288842,1.6115857200185444,1.5564645110561044,2.083513421210851,0.12280242,-0.974789985,0.273741975,-13.367759999999999,0.8087799999999999,26.64396,67.0
1774823617.728837,0.003987312316894531,2026-03-29T22:33:37.728,2026-03-29T18:33:37.728,-21367.215,-44801.865,-76635.9,-48690.99,-8419.32,-16281.81,8297.955,-66316.59,-1.3365829750686324,-5.167423895452849,-11.932590197437515,-16.78123791904253,-6.709937343848083,-1.6291527608302105,1.4744258074986534,0.471774750402704,0.12280242,-0.974789985,0.273741975,-13.367759999999999,0.8087799999999999,26.64396,67.0
1774823617.7288527,1.5735626220703125e-05,2026-03-29T22:33:37.728,2026-03-29T18:33:37.728,-21367.485,-44798.445,-76608.405,-48664.08,-8406.315,-16281.675,8292.869999999999,-66318.885,-2.2230456316945086,-4.072781366256512,-6.124509086048934,-22.393777162352574,-10.254577700681082,-4.3313565291306,0.37241924796554104,-1.0952078349567123,0.12280242,-0.974789985,0.273741975,-13.367759999999999,0.8087799999999999,26.64396,67.0
1774823617.7326913,0.0038385391235351562,2026-03-29T22:33:37.732,2026-03-29T18:33:37.732,-21360.239999999998,-44785.439999999995,-76579.245,-48641.625,-8415.0,-16288.965,8296.65,-66314.06999999999,-1.871500928058989,-0.9555136911286464,3.033844589679444,-17.37613921679547,-9.070463834643403,-5.205108422243077,-1.2475135094710064,-1.9130002030467073,0.12280242,-0.974789985,0.273741975,-13.367759999999999,0.8087799999999999,26.64396,67.0
1774823617.7327068,1.5497207641601562e-05,2026-03-29T22:33:37.732,2026-03-29T18:33:37.732,-21358.8,-44778.555,-76559.48999999999,-48618.585,-8416.845,-16298.414999999999,8294.67,-66316.59,-0.5373182965827668,2.842803257846847,11.39124107971582,-3.7493390155833546,-3.578454923065806,-3.7444094795299065,-2.493964416220736,-1.7390338468484137,0.12280242,-0.974789985,0.273741975,-13.367759999999999,0.8087799999999999,26.64396,67.0
1774823617.7374942,0.004787445068359375,2026-03-29T22:33:37.737,2026-03-29T18:33:37.737,-21350.114999999998,-44767.53,-76546.44,-48600.99,-8408.25,-16295.535,8288.55,-66313.89,1.0216456330030768,5.573350286361246,14.927084488468527,12.183172377550072,3.731005671741312,-0.5095500306291507,-2.5704864662177154,-0.8372458528216908,0.12280242,-0.974789985,0.273741975,-13.367759999999999,0.8087799999999999,26.64396,67.0
1774823617.7375147,2.0503997802734375e-05,2026-03-29T22:33:37.737,2026-03-29T18:33:37.737,-21342.87,-44758.575,-76535.73,-48583.395,-8398.125,-16287.029999999999,8279.414999999999,-66308.84999999999,1.9648375494773478,5.89144747670818,11.694858314059571,22.796039327541624,9.44797107886705,3.086778112199424,-1.2457743517300761,0.23302115303469653,0.12280242,-0.974789985,0.273741975,-13.367759999999999,0.8087799999999999,26.64396,67.0
1774823617.7501173,0.012602567672729492,2026-03-29T22:33:37.750,2026-03-29T18:33:37.750,-21337.829999999998,-44752.275,-76535.055,-48571.965,-8387.369999999999,-16274.564999999999,8288.595,-66302.45999999999,1.8125611297298487,3.5124062186300886,2.856585838270875,22.83152326275026,10.85826854206885,5.408833132863216,0.9563457923418401,0.9426060213529153,0.12274138500000001,-0.971860305,0.27697683,-10.34628,3.052,26.231939999999998,67.0
1774823617.750132,1.4781951904296875e-05,2026-03-29T22:33:37.750,2026-03-29T18:33:37.750,-21345.434999999998,-44767.125,-76562.325,-48591.134999999995,-8394.525,-16275.105,8295.615,-66306.15,0.682489374065709,-0.6061786984235803,-7.729687301301259,12.013994306752727,7.247571250800742,5.356423189641675,2.971207159659129,1.0502601696252984,0.12274138500000001,-0.971860305,0.27697683,-10.34628,3.052,26.231939999999998,67.0
1774823617.7501469,1.4781951904296875e-05,2026-03-29T22:33:37.750,2026-03-29T18:33:37.750,-21351.825,-44777.43,-76580.28,-48610.53,-8402.445,-16279.289999999999,8308.8,-66308.805,-0.7948104053782807,-4.658335097269024,-15.224572173609854,-4.7165193976666435,0.26018088776879467,2.893962495436861,3.72024808362844,0.6686422769422793,0.12274138500000001,-0.971860305,0.27697683,-10.34628,3.052,26.231939999999998,67.0
1774823617.750154,7.152557373046875e-06,2026-03-29T22:33:37.750,2026-03-29T18:33:37.750,-21356.37,-44782.695,-76585.23,-48617.145,-8404.38,-16280.865,8311.949999999999,-66312.72,-1.82452607356681,-6.793114684661436,-16.047161692839058,-19.50401747751411,-6.8673314141377375,-0.9084144130001715,2.6844697534939,0.13197806900889958,0.12274138500000001,-0.971860305,0.27697683,-10.34628,3.052,26.231939999999998,67.0
1774823617.7501647,1.0728836059570312e-05,2026-03-29T22:33:37.750,2026-03-29T18:33:37.750,-21357.809999999998,-44783.415,-76583.205,-48621.869999999995,-8408.789999999999,-16283.744999999999,8302.815,-66314.06999999999,-1.8691693721663718,-5.964465318432966,-9.590128834438719,-25.31879039614498,-10.832851070141402,-4.35147978996222,0.22043620119692356,-0.23344087939213667,0.12274138500000001,-0.971860305,0.27697683,-10.34628,3.052,26.231939999999998,67.0
1774823617.7501724,7.62939453125e-06,2026-03-29T22:33:37.750,2026-03-29T18:33:37.750,-21358.98,-44788.229999999996,-76579.29,-48611.655,-8405.19,-16281.99,8302.455,-66313.035,-0.9215704126382038,-2.434985048014532,1.4142095356997957,-19.335068964424458,-9.82323531692375,-5.883636914416879,-2.5619423900896847,-0.2938182580364231,0.12274138500000001,-0.971860305,0.27697683,-10.34628,3.052,26.231939999999998,67.0
1774823617.75503,0.004857540130615234,2026-03-29T22:33:37.755,2026-03-29T18:33:37.755,-21366.315,-44801.64,-76589.325,-48604.68,-8401.14,-16279.244999999999,8297.369999999999,-66316.455,0.5067864427464362,2.3060029154045085,12.077739508841317,-4.3042820492632465,-4.353256699418459,-4.814434835047904,-4.317423738384685,-0.1475898432508155,0.12274138500000001,-0.971860305,0.27697683,-10.34628,3.052,26.231939999999998,67.0
1774823617.7550497,1.9788742065429688e-05,2026-03-29T22:33:37.755,2026-03-29T18:33:37.755,-21371.265,-44803.755,-76602.59999999999,-48601.619999999995,-8394.615,-16274.835,8286.66,-66320.28,1.6658089212224196,6.183719745276608,17.56341670225526,12.744454136337259,3.004354689867287,-1.6296813704263735,-4.129020783586234,-0.015143140183225776,0.12274138500000001,-0.971860305,0.27697683,-10.34628,3.052,26.231939999999998,67.0
