unix_time_s,dt_s,UTC,LOCAL,EMG1_Raw,EMG2_Raw,EMG3_Raw,EMG4_Raw,EMG5_Raw,EMG6_Raw,EMG7_Raw,EMG8_Raw,EMG1_Filtered,EMG2_Filtered,EMG3_Filtered,EMG4_Filtered,EMG5_Filtered,EMG6_Filtered,EMG7_Filtered,EMG8_Filtered,Accel1_Raw,Accel2_Raw,Accel3_Raw,Gyro1_Raw,Gyro2_Raw,Gyro3_Raw,Battery
1774823705.8456137,,2026-03-29T22:35:05.845,2026-03-29T18:35:05.845,-21003.39,-45305.82,-76833.855,-48533.22,-8227.44,-16317.494999999999,8446.68,-61237.53,0.49061036923028095,3.658053360926078,3.357084789853431,2.7107993092472373,2.485510564889508,1.8107842870029192,-2.0458033089010366,-0.7550909103475244,0.37683009,-0.893491365,0.334654905,8.1641,3.3571999999999997,2.35004,67.0
1774823705.845629,1.52587890625e-05,2026-03-29T22:35:05.845,2026-03-29T18:35:05.845,-20932.02,-45262.35,-76804.92,-48502.755,-8185.32,-16264.035,8529.93,-61138.755,14.819686924003866,8.327254577932116,-0.8912039249425334,-2.2668554793901694,2.8857381104281203,2.3605690614696244,2.2503850475864944,17.237333301399822,0.37683009,-0.893491365,0.334654905,8.1641,3.3571999999999997,2.35004,67.0
1774823705.845642,1.3113021850585938e-05,2026-03-29T22:35:05.845,2026-03-29T18:35:05.845,-20896.605,-45274.905,-76841.955,-48549.869999999995,-8230.5,-16308.404999999999,8511.795,-61086.42,22.47374472863548,9.34775149792076,-4.5838304633194555,-5.783757183242693,2.3711465860770344,2.3354430136704405,6.750436325504526,27.470253616746582,0.37683009,-0.893491365,0.334654905,8.1641,3.3571999999999997,2.35004,67.0
1774823705.845647,5.0067901611328125e-06,2026-03-29T22:35:05.845,2026-03-29T18:35:05.845,-20890.395,-45280.979999999996,-76848.61499999999,-48572.505,-8256.914999999999,-16331.535,8448.66,-61088.085,19.727616812602236,6.019490680629697,-6.433667107015301,-6.601171521471097,0.932559910402108,1.6104570915624146,9.33124579226892,24.94700327979481,0.37683009,-0.893491365,0.334654905,8.1641,3.3571999999999997,2.35004,67.0
1774823705.845652,5.0067901611328125e-06,2026-03-29T22:35:05.845,2026-03-29T18:35:05.845,-20935.35,-45260.505,-76780.035,-48499.47,-8182.755,-16258.455,8442.855,-61165.53,7.724496612927353,-0.32528618726315073,-5.922599576296703,-4.794349454717241,-1.1146250967788949,0.19610762500627593,8.218439495431934,10.659672988798366,0.37683009,-0.893491365,0.334654905,8.1641,3.3571999999999997,2.35004,67.0
1774823705.8456557,3.5762786865234375e-06,2026-03-29T22:35:05.845,2026-03-29T18:35:05.845,-20980.665,-45283.994999999995,-76789.17,-48488.58,-8169.75,-16247.07,8468.46,-61213.68,-7.993585349600694,-6.838158734224139,-3.3586708649791768,-1.4900819178729754,-3.107785449515261,-1.6196512747335838,3.0607711184634163,-8.789354959268934,0.37683009,-0.893491365,0.334654905,8.1641,3.3571999999999997,2.35004,67.0
1774823705.8456607,5.0067901611328125e-06,2026-03-29T22:35:05.845,2026-03-29T18:35:05.845,-20950.515,-45308.88,-76833.405,-48522.645,-8208.765,-16282.71,8548.83,-61156.034999999996,-20.07064866581056,-10.434894869983042,0.3342349894430684,1.8239521560589538,-4.197635274961699,-3.230879836011197,-4.521267974185096,-24.26999244138806,0.366148965,-0.87756123,0.32067789,0.5341,-3.6624,2.73154,67.0
1774823705.845664,3.337860107421875e-06,2026-03-29T22:35:05.845,2026-03-29T18:35:05.845,-20952.855,-45320.895,-76843.665,-48526.92,-8214.029999999999,-16293.599999999999,8521.92,-61150.005,-22.819782291349405,-9.264030753944834,3.948735931979446,4.002722022078723,-3.6933418356648806,-3.8773306749482295,-11.342640775228984,-28.4578341695864,0.366148965,-0.87756123,0.32067789,0.5341,-3.6624,2.73154,67.0
1774823705.8456688,4.76837158203125e-06,2026-03-29T22:35:05.845,2026-03-29T18:35:05.845,-20974.545,-45302.939999999995,-76826.87999999999,-48514.994999999995,-8200.485,-16287.255,8455.14,-61180.92,-14.936811229233857,-3.660563248173431,6.326274335634725,4.611054646876706,-1.4620897431314517,-2.9956127083212123,-13.984768531970674,-19.34022660217867,0.366148965,-0.87756123,0.32067789,0.5341,-3.6624,2.73154,67.0
1774823705.8456724,3.5762786865234375e-06,2026-03-29T22:35:05.845,2026-03-29T18:35:05.845,-20940.795,-45270.045,-76802.12999999999,-48503.97,-8192.744999999999,-16285.769999999999,8447.625,-61162.47,-0.1334311447983559,3.906972731990607,6.638464344061352,3.852271320004102,1.8359511585605657,-0.5991342852300172,-10.498127200486055,-1.1983121529074423,0.366148965,-0.87756123,0.32067789,0.5341,-3.6624,2.73154,67.0
1774823705.8456771,4.76837158203125e-06,2026-03-29T22:35:05.845,2026-03-29T18:35:05.845,-20917.079999999998,-45252.045,-76789.75499999999,-48501.854999999996,-8193.24,-16295.76,8455.635,-61141.59,14.624183809674149,9.922543350550134,4.614210162941238,2.2224473078672546,4.869390752729179,2.543924009616427,-1.6306865811778128,17.420873649114206,0.366148965,-0.87756123,0.32067789,0.5341,-3.6624,2.73154,67.0
1774823705.8456807,3.5762786865234375e-06,2026-03-29T22:35:05.845,2026-03-29T18:35:05.845,-20953.079999999998,-45296.775,-76837.995,-48533.67,-8210.789999999999,-16305.345,8481.375,-61167.06,22.429449268692846,11.465017670743173,0.6949392887176418,0.1812411077804169,6.149806518863225,5.104807065847656,9.137032377640347,27.77397246870506,0.366148965,-0.87756123,0.32067789,0.5341,-3.6624,2.73154,67.0
1774823705.8456855,4.76837158203125e-06,2026-03-29T22:35:05.845,2026-03-29T18:35:05.845,-20951.954999999998,-45305.955,-76831.73999999999,-48509.64,-8182.98,-16276.05,8536.86,-61155.494999999995,19.709398611348377,7.635475621243806,-3.9541255389087846,-1.946004096929971,4.754340565933935,5.748674194914593,16.93850631405587,25.07578712167192,0.366148965,-0.87756123,0.32067789,0.5341,-3.6624,2.73154,67.0
1774823705.8456888,3.337860107421875e-06,2026-03-29T22:35:05.845,2026-03-29T18:35:05.845,-20987.19,-45326.43,-76829.265,-48509.955,-8183.745,-16273.08,8529.255,-61188.165,7.887721872617429,0.06765341081659897,-7.676263079933427,-3.8329894994791043,0.9093125412204749,3.8224133316247104,17.739819160088466,10.742783087113763,0.366148965,-0.87756123,0.32067789,0.5341,-3.6624,2.73154,67.0
1774823705.845693,4.291534423828125e-06,2026-03-29T22:35:05.845,2026-03-29T18:35:05.845,-20981.88,-45306.18,-76801.59,-48485.835,-8161.065,-16245.18,8498.744999999999,-61201.259999999995,-7.350092255113638,-7.763393044630609,-8.838625420114344,-4.9802938699856165,-3.9105359730510387,-0.17610058700724385,10.409031116533258,-8.34083788578085,0.366148965,-0.87756123,0.32067789,0.5341,-3.6624,2.73154,67.0
1774823705.8456967,3.5762786865234375e-06,2026-03-29T22:35:05.845,2026-03-29T18:35:05.845,-20969.684999999998,-45288.72,-76798.75499999999,-48491.595,-8177.58,-16263.494999999999,8474.535,-61188.84,-18.814128786472434,-12.14529547917167,-6.520600260614051,-4.746640002910625,-7.514001197885552,-4.644859969745902,-2.4216935182046493,-23.157972920683406,0.366148965,-0.87756123,0.32067789,0.5341,-3.6624,2.73154,67.0
1774823705.8504877,0.0047910213470458984,2026-03-29T22:35:05.850,2026-03-29T18:35:05.850,-20963.07,-45295.064999999995,-76814.01,-48523.005,-8212.455,-16288.019999999999,8518.32,-61164.765,-21.242508576506225,-10.9007062393179,-1.100404104257702,-2.6759983645420724,-7.986225416936166,-7.506694282595789,-15.255159639528438,-26.866611219763083,0.358946835,-0.8752419,0.30322188,-2.7010199999999998,-10.86512,2.39582,67.0
1774823705.8505127,2.5033950805664062e-05,2026-03-29T22:35:05.850,2026-03-29T18:35:05.850,-20980.755,-45338.805,-76861.75499999999,-48552.884999999995,-8235.449999999999,-16300.484999999999,8510.535,-61168.68,-13.752369578775347,-4.475631738550924,5.599069009788767,1.0349918322593872,-4.694774632740518,-7.181399441956099,-22.10974796310875,-18.001860733509623,0.358946835,-0.8752419,0.30322188,-2.7010199999999998,-10.86512,2.39582,67.0
1774823705.8618088,0.01129603385925293,2026-03-29T22:35:05.861,2026-03-29T18:35:05.861,-20994.84,-45357.93,-76874.22,-48543.075,-8217.9,-16283.654999999999,8519.58,-61166.115,-0.15110609575017192,4.2036535138850155,10.823126044931948,5.263752324573337,1.215506255841192,-3.442897077785865,-19.337978376368913,-1.054117142757249,0.358946835,-0.8752419,0.30322188,-2.7010199999999998,-10.86512,2.39582,67.0
1774823705.8618245,1.5735626220703125e-05,2026-03-29T22:35:05.861,2026-03-29T18:35:05.861,-20992.454999999998,-45356.085,-76870.17,-48544.02,-8215.244999999999,-16289.055,8470.485,-61179.03,12.997150095694426,11.070536613915321,11.981425106034282,8.186126340922337,7.1683242151713875,2.2984979916966286,-7.539174783965926,15.805087458883618,0.358946835,-0.8752419,0.30322188,-2.7010199999999998,-10.86512,2.39582,67.0
1774823705.861838,1.3589859008789062e-05,2026-03-29T22:35:05.861,2026-03-29T18:35:05.861,-20958.3,-45316.215,-76834.17,-48532.994999999995,-8204.085,-16276.769999999999,8477.865,-61165.619999999995,19.568438141120374,12.838083159836666,7.913093040903354,8.043154197578014,10.273775146424844,7.505267425160204,8.429278502471332,24.697950036016646,0.358946835,-0.8752419,0.30322188,-2.7010199999999998,-10.86512,2.39582,67.0
1774823705.861842,3.814697265625e-06,2026-03-29T22:35:05.861,2026-03-29T18:35:05.861,-20949.524999999998,-45276.255,-76811.985,-48507.479999999996,-8167.59,-16240.05,8533.845,-61148.43,16.76948310486296,8.585456311556118,-0.2893501278155117,4.139819277307084,8.736925206974371,9.643795129701063,21.472564694847804,21.767451234461923,0.358946835,-0.8752419,0.30322188,-2.7010199999999998,-10.86512,2.39582,67.0
1774823705.8618472,5.245208740234375e-06,2026-03-29T22:35:05.861,2026-03-29T18:35:05.861,-20961.855,-45277.424999999996,-76809.59999999999,-48504.15,-8185.139999999999,-16269.074999999999,8526.555,-61157.655,6.340034516524512,0.23834160219340256,-9.412316460109526,-2.4714888093723757,2.8679697611480086,7.428912606404852,25.459867238890155,8.872772784221189,0.358946835,-0.8752419,0.30322188,-2.7010199999999998,-10.86512,2.39582,67.0
1774823705.8618507,3.5762786865234375e-06,2026-03-29T22:35:05.861,2026-03-29T18:35:05.861,-20947.5,-45255.465,-76762.53,-48478.905,-8186.715,-16280.595,8512.56,-61158.689999999995,-6.458335236085857,-8.308314910511186,-15.32795936801266,-9.114006505238487,-4.86473532108467,1.5649337187011234,18.137600950234464,-7.503254034031241,0.358946835,-0.8752419,0.30322188,-2.7010199999999998,-10.86512,2.39582,67.0
1774823705.8633523,0.0015015602111816406,2026-03-29T22:35:05.863,2026-03-29T18:35:05.863,-20924.505,-45248.174999999996,-76757.715,-48477.42,-8179.0199999999995,-16269.48,8522.46,-61140.329999999994,-15.502329435832932,-13.023635441745952,-14.85445136255334,-12.538137020294947,-10.861624419765699,-5.433764982500191,2.3534678489377434,-19.520753065053892,0.358946835,-0.8752419,0.30322188,-2.7010199999999998,-10.86512,2.39582,67.0
1774823705.8633657,1.33514404296875e-05,2026-03-29T22:35:05.863,2026-03-29T18:35:05.863,-20917.125,-45252.225,-76751.81999999999,-48472.74,-8165.7,-16254.99,8527.41,-61124.985,-16.76840935262905,-11.659783240944217,-7.435741512469978,-10.508438860549155,-12.079009466757995,-10.328530750165774,-15.059310087191452,-21.77444274046616,0.358946835,-0.8752419,0.30322188,-2.7010199999999998,-10.86512,2.39582,67.0
1774823705.8674858,0.0041201114654541016,2026-03-29T22:35:05.867,2026-03-29T18:35:05.867,-20943.27,-45251.189999999995,-76740.84,-48468.195,-8157.6449999999995,-16253.144999999999,8510.76,-61139.52,-10.149078066280897,-4.834073255479373,4.234901741012457,-3.1521440198353967,-7.580668393833534,-10.676642334151703,-26.295859784757518,-13.759858361018964,0.366271035,-0.88659441,0.30578535,0.6867,-8.942359999999999,2.77732,67.0
1774823705.8675036,1.7881393432617188e-05,2026-03-29T22:35:05.867,2026-03-29T18:35:05.867,-20943.18,-45257.625,-76757.94,-48485.384999999995,-8168.085,-16266.15,8476.74,-61151.04,0.7087444133312746,4.252514389655602,15.112399845611701,6.708673133128656,0.8401875417170394,-6.062445124393862,-26.134759735680085,0.1274829452430376,0.366271035,-0.88659441,0.30578535,0.6867,-8.942359999999999,2.77732,67.0
1774823705.8717225,0.0042188167572021484,2026-03-29T22:35:05.871,2026-03-29T18:35:05.871,-20928.42,-45278.64,-76785.20999999999,-48487.814999999995,-8164.62,-16261.154999999999,8484.435,-61129.979999999996,10.37415554371339,11.331922717518502,19.971009186407283,14.586819782463897,9.353280951415265,1.586794323177133,-14.386612838335305,12.956762375757357,0.366271035,-0.88659441,0.30578535,0.6867,-8.942359999999999,2.77732,67.0
1774823705.8717437,2.1219253540039062e-05,2026-03-29T22:35:05.871,2026-03-29T18:35:05.871,-20927.835,-45281.835,-76819.815,-48531.15,-8204.085,-16282.08,8478.449999999999,-61122.915,14.361323196883097,13.095290152499095,15.921536622730956,16.379285467236205,13.844965965323155,8.808101734674004,3.9248346227322797,18.735603433736383,0.366271035,-0.88659441,0.30578535,0.6867,-8.942359999999999,2.77732,67.0
1774823705.875302,0.0035583972930908203,2026-03-29T22:35:05.875,2026-03-29T18:35:05.875,-20917.44,-45251.64,-76811.94,-48532.185,-8205.029999999999,-16279.56,8492.985,-61133.085,11.240103128951896,8.75656506321618,4.058787546902997,10.497752619633301,11.925762724184251,12.194865530796582,20.765769391438173,15.24564991592127,0.366271035,-0.88659441,0.30578535,0.6867,-8.942359999999999,2.77732,67.0
1774823705.8753264,2.4318695068359375e-05,2026-03-29T22:35:05.875,2026-03-29T18:35:05.875,-20929.094999999998,-45279.854999999996,-76836.19499999999,-48553.65,-8224.065,-16297.019999999999,8486.955,-61137.314999999995,3.121692916410519,0.4057193135860766,-10.676011300998212,-1.0237786340451012,4.20333317517634,10.03085200309682,28.686436483421794,4.881682712520591,0.366271035,-0.88659441,0.30578535,0.6867,-8.942359999999999,2.77732,67.0
1774823705.8794367,0.0041103363037109375,2026-03-29T22:35:05.879,2026-03-29T18:35:05.879,-20942.145,-45308.025,-76843.845,-48571.965,-8246.88,-16326.539999999999,8429.22,-61145.235,-5.630431510477306,-8.009513760006245,-21.53260771205959,-13.142634800655314,-5.857968135354554,3.1701182735408078,24.163911189428976,-6.817085893150801,0.366271035,-0.88659441,0.30578535,0.6867,-8.942359999999999,2.77732,67.0
1774823705.87945,1.33514404296875e-05,2026-03-29T22:35:05.879,2026-03-29T18:35:05.879,-20934.405,-45323.955,-76856.12999999999,-48564.945,-8241.029999999999,-16327.664999999999,8441.279999999999,-61122.24,-10.71993851046608,-12.572724438185551,-23.062241916738447,-20.018018763153425,-13.498044612847327,-5.293063526281753,9.16920989961747,-14.095339482885738,0.366271035,-0.88659441,0.30578535,0.6867,-8.942359999999999,2.77732,67.0
1774823705.8834336,0.003983497619628906,2026-03-29T22:35:05.883,2026-03-29T18:35:05.883,-20951.594999999998,-45322.155,-76862.745,-48568.634999999995,-8246.97,-16332.164999999999,8439.93,-61140.915,-10.04419524048332,-11.244274844784862,-13.860201023848031,-17.84960632200716,-14.93707521373157,-11.441694425665025,-9.739973986789591,-13.833948825938396,0.366271035,-0.88659441,0.30578535,0.6867,-8.942359999999999,2.77732,67.0
1774823705.8834453,1.1682510375976562e-05,2026-03-29T22:35:05.883,2026-03-29T18:35:05.883,-20988.719999999998,-45293.49,-76814.37,-48517.515,-8195.265,-16280.144999999999,8433.675,-61199.055,-4.567318252567814,-4.782305650615311,2.4440972913672505,-6.954496904695,-9.267974360067212,-12.382059002065395,-24.361002699477776,-6.90357534798326,0.366271035,-0.88659441,0.30578535,0.6867,-8.942359999999999,2.77732,67.0
1774823705.8869648,0.0035195350646972656,2026-03-29T22:35:05.886,2026-03-29T18:35:05.886,-20967.704999999998,-45295.784999999996,-76805.19,-48496.86,-8178.615,-16278.029999999999,8398.845,-61181.954999999994,2.42563916140887,3.6819820678210533,18.576410424463823,8.043285665374322,0.9917364434640487,-7.633438267494376,-28.46673678577222,2.576545379512129,0.37121487000000003,-0.88586199,0.32922279,5.1273599999999995,-0.73248,2.57894,67.0
1774823705.8869865,2.1696090698242188e-05,2026-03-29T22:35:05.886,2026-03-29T18:35:05.886,-20954.16,-45308.88,-76802.76,-48485.79,-8175.0599999999995,-16288.47,8378.91,-61161.704999999994,7.208748571516307,10.180820541085247,26.880637429256197,20.16613695249712,11.016105010318691,0.6185838301089236,-20.47514293416021,9.57723663822861,0.37121487000000003,-0.88586199,0.32922279,5.1273599999999995,-0.73248,2.57894,67.0
1774823705.8913953,0.004408836364746094,2026-03-29T22:35:05.891,2026-03-29T18:35:05.891,-20951.37,-45308.97,-76794.48,-48465.314999999995,-8142.929999999999,-16246.125,8504.505,-61118.235,7.584828276939499,11.795963230630228,22.984807415060637,23.360983784921217,15.962176903424295,8.54215277252044,-4.014017271144399,10.805861024031609,0.37121487000000003,-0.88586199,0.32922279,5.1273599999999995,-0.73248,2.57894,67.0
1774823705.8914237,2.8371810913085938e-05,2026-03-29T22:35:05.891,2026-03-29T18:35:05.891,-20915.235,-45268.244999999995,-76780.125,-48474.314999999995,-8154.764999999999,-16250.175,8604.135,-61081.02,3.9090166173019436,7.985573681982458,8.100132017016639,15.548448665866864,13.339651425047354,12.470852824672056,13.793588006364514,6.276096718478853,0.37121487000000003,-0.88586199,0.32922279,5.1273599999999995,-0.73248,2.57894,67.0
1774823705.8960404,0.004616737365722656,2026-03-29T22:35:05.896,2026-03-29T18:35:05.896,-20889.495,-45255.915,-76809.735,-48481.83,-8145.315,-16230.285,8669.789999999999,-61074.225,-1.3176664748590277,0.7401318615641854,-11.25503005185659,-0.10402062036189182,4.286554556988265,10.636492799104369,25.48212838386843,-0.9572037254747265,0.37121487000000003,-0.88586199,0.32922279,5.1273599999999995,-0.73248,2.57894,67.0
1774823705.8960571,1.6689300537109375e-05,2026-03-29T22:35:05.896,2026-03-29T18:35:05.896,-20951.64,-45340.92,-76913.955,-48545.145,-8179.38,-16239.599999999999,8634.06,-61125.345,-4.984722045690309,-6.46103081071731,-26.117953229241813,-16.43594965033843,-6.911200355845668,3.9877825219901033,26.403827537380785,-6.659157619853961,0.37121487000000003,-0.88586199,0.32922279,5.1273599999999995,-0.73248,2.57894,67.0
1774823705.9054832,0.009426116943359375,2026-03-29T22:35:05.905,2026-03-29T18:35:05.905,-21000.69,-45384.884999999995,-76905.54,-48542.22,-8188.065,-16252.064999999999,8509.545,-61160.174999999996,-5.145635640030205,-10.344659162816807,-29.271417135436238,-25.59728075997356,-14.861430774461452,-4.295198520248131,16.542701322425323,-7.799163020998307,0.37121487000000003,-0.88586199,0.32922279,5.1273599999999995,-0.73248,2.57894,67.0
1774823705.9055161,3.2901763916015625e-05,2026-03-29T22:35:05.905,2026-03-29T18:35:05.905,-20983.094999999998,-45341.055,-76858.33499999999,-48553.83,-8216.595,-16292.115,8472.105,-61150.229999999996,-2.0442123921407496,-9.35367107048109,-18.784438850285316,-22.865793430797527,-15.690841999613278,-10.344766837848821,0.29385044947743266,-4.14929155667158,0.37121487000000003,-0.88586199,0.32922279,5.1273599999999995,-0.73248,2.57894,67.0
1774823705.905536,1.9788742065429688e-05,2026-03-29T22:35:05.905,2026-03-29T18:35:05.905,-20925.18,-45243.72,-76803.165,-48550.905,-8225.1,-16313.445,8454.824999999999,-61131.555,2.1452096293440883,-4.26511348592441,0.8489121354085295,-9.103245305143707,-8.963657271237668,-11.449048465845133,-15.565293710255622,1.7419142879841072,0.37121487000000003,-0.88586199,0.32922279,5.1273599999999995,-0.73248,2.57894,67.0
1774823705.9055407,4.76837158203125e-06,2026-03-29T22:35:05.905,2026-03-29T18:35:05.905,-20863.53,-45185.265,-76743.62999999999,-48527.865,-8217.765,-16326.765,8461.215,-61074.765,4.6749645218615585,2.325965182112714,20.627370356782773,9.43534953713638,2.069711910921148,-7.300286296227967,-24.742241371595195,6.129865597425943,0.37121487000000003,-0.88586199,0.32922279,5.1273599999999995,-0.73248,2.57894,67.0
1774823705.9081151,0.002574443817138672,2026-03-29T22:35:05.908,2026-03-29T18:35:05.908,-20851.02,-45178.064999999995,-76708.26,-48487.275,-8192.835,-16315.289999999999,8434.35,-61063.47,3.881776077017635,7.340328656937618,31.20406900669479,23.959442111604027,12.041670081546162,-0.058252841566321885,-23.901325480820972,6.287557140827973,0.36840726,-0.896298975,0.33434973,-2.07536,-0.77826,4.303319999999999,67.0
1774823705.9081328,1.7642974853515625e-05,2026-03-29T22:35:05.908,2026-03-29T18:35:05.908,-20887.425,-45210.465,-76709.565,-48451.365,-8152.065,-16265.744999999999,8409.33,-61082.369999999995,0.1908686465000219,8.676539429781004,27.352413351928693,27.35629884537535,16.097419125928084,6.7705759739493585,-13.78366084658666,2.097741158342469,0.36840726,-0.896298975,0.33434973,-2.07536,-0.77826,4.303319999999999,67.0
1774823705.9114487,0.0033159255981445312,2026-03-29T22:35:05.911,2026-03-29T18:35:05.911,-20937.735,-45257.174999999996,-76761.135,-48483.0,-8158.7699999999995,-16240.23,8465.085,-61115.759999999995,-4.111558567868155,6.096554681463985,10.5810787321683,17.72112434697694,12.289511571873627,10.058310557166822,1.3422913371445588,-3.872248561712045,0.36840726,-0.896298975,0.33434973,-2.07536,-0.77826,4.303319999999999,67.0
1774823705.9114764,2.765655517578125e-05,2026-03-29T22:35:05.911,2026-03-29T18:35:05.911,-20971.079999999998,-45312.255,-76850.37,-48569.04,-8241.255,-16314.75,8463.15,-61155.09,-6.216237714981054,1.1595357196409912,-11.42320277279124,-0.5673831801991162,2.543236977871705,8.525544746670674,15.528148364203894,-7.857705439687293,0.36840726,-0.896298975,0.33434973,-2.07536,-0.77826,4.303319999999999,67.0
1774823705.917909,0.006432533264160156,2026-03-29T22:35:05.917,2026-03-29T18:35:05.917,-21002.715,-45375.75,-76930.92,-48641.67,-8311.365,-16387.695,8379.585,-61186.14,-4.482853707013554,-3.6822785415379093,-28.33973325650047,-18.833142629298763,-8.29796649128099,3.2487885662237734,23.46793005354998,-7.113357438136102,0.36840726,-0.896298975,0.33434973,-2.07536,-0.77826,4.303319999999999,67.0
1774823705.9179416,3.266334533691406e-05,2026-03-29T22:35:05.917,2026-03-29T18:35:05.917,-20965.274999999998,-45335.115,-76878.045,-48579.975,-8243.279999999999,-16319.16,8398.305,-61159.14,0.4871987947138215,-6.315265291342523,-32.101327475037756,-28.252074830195376,-14.880750696588526,-3.0017793099310874,22.398832126924777,-1.605731078359893,0.36840726,-0.896298975,0.33434973,-2.07536,-0.77826,4.303319999999999,67.0
1774823705.9196112,0.0016696453094482422,2026-03-29T22:35:05.919,2026-03-29T18:35:05.919,-20934.0,-45305.145,-76843.34999999999,-48554.009999999995,-8221.005,-16302.105,8468.505,-61115.085,6.043683678717535,-5.8997416280105,-20.79004628806915,-24.165800042814162,-14.005488028352737,-7.21356082780713,12.950599318745123,5.803024242739286,0.36840726,-0.896298975,0.33434973,-2.07536,-0.77826,4.303319999999999,67.0
1774823705.919632,2.0742416381835938e-05,2026-03-29T22:35:05.919,2026-03-29T18:35:05.919,-20917.53,-45299.384999999995,-76828.995,-48557.7,-8236.619999999999,-16325.73,8452.125,-61083.045,8.893490269096354,-3.0895910034405416,0.360697801325804,-8.429510694932658,-6.2119132024828945,-7.61342971008425,-1.2434679309209042,10.841342986611842,0.36840726,-0.896298975,0.33434973,-2.07536,-0.77826,4.303319999999999,67.0
1774823705.925845,0.006212949752807617,2026-03-29T22:35:05.925,2026-03-29T18:35:05.925,-20943.045,-45301.68,-76793.08499999999,-48505.634999999995,-8178.03,-16265.789999999999,8485.92,-61104.689999999995,6.976606909209486,0.4882660204755893,21.3891066733726,11.406418344844404,4.510970346379149,-4.4395304135309095,-14.932443838964339,10.213170497996707,0.36840726,-0.896298975,0.33434973,-2.07536,-0.77826,4.303319999999999,67.0
1774823705.925862,1.71661376953125e-05,2026-03-29T22:35:05.925,2026-03-29T18:35:05.925,-20957.625,-45297.63,-76778.28,-48491.369999999995,-8153.46,-16221.779999999999,8680.23,-61102.619999999995,0.7701719410678337,3.1490418829754514,32.33004837147966,25.731626528738786,12.746933119721744,0.3453468968518322,-23.108855984934102,3.577618430542416,0.36840726,-0.896298975,0.33434973,-2.07536,-0.77826,4.303319999999999,67.0
1774823705.927244,0.0013818740844726562,2026-03-29T22:35:05.927,2026-03-29T18:35:05.927,-20976.795,-45342.854999999996,-76843.8,-48530.025,-8208.539999999999,-16281.224999999999,8628.435,-61110.09,-6.7511995726926095,3.955436321279688,27.98612622154448,27.571665020491448,14.388351801105042,4.1917998343138025,-22.73505201821183,-6.010368665751963,0.359801325,-0.910214955,0.31164471,4.89846,-5.9514,9.52224,67.0
1774823705.92726,1.5974044799804688e-05,2026-03-29T22:35:05.927,2026-03-29T18:35:05.927,-20975.13,-45355.59,-76883.44499999999,-48504.24,-8192.565,-16282.035,8537.805,-61106.085,-11.561411367722254,3.0238164825509566,10.439649134073894,16.033076863735353,8.703728023501906,5.318499683976532,-13.805122012957126,-13.531259526389414,0.359801325,-0.910214955,0.31164471,4.89846,-5.9514,9.52224,67.0
1774823705.9347267,0.007466793060302734,2026-03-29T22:35:05.934,2026-03-29T18:35:05.934,-20940.434999999998,-45278.865,-76794.39,-48452.174999999996,-8135.1449999999995,-16226.595,8513.19,-61115.265,-10.72299999459505,1.2466924173005316,-11.926015532304632,-3.2241090599675606,-1.310693457253864,3.5662864939297845,0.5877616913669094,-14.622208785317737,0.359801325,-0.910214955,0.31164471,4.89846,-5.9514,9.52224,67.0
1774823705.934751,2.4318695068359375e-05,2026-03-29T22:35:05.934,2026-03-29T18:35:05.934,-20957.579999999998,-45276.21,-76817.87999999999,-48490.965,-8143.29,-16229.115,8530.244999999999,-61149.465,-4.0893838490116865,-0.3356888275859934,-28.442976443744374,-20.749954644702374,-10.47497474115621,0.330224643731429,15.233484737156603,-8.021605230487516,0.359801325,-0.910214955,0.31164471,4.89846,-5.9514,9.52224,67.0
1774823705.9347796,2.86102294921875e-05,2026-03-29T22:35:05.934,2026-03-29T18:35:05.934,-20926.215,-45287.865,-76868.64,-48551.4,-8192.385,-16281.63,8535.42,-61115.579999999994,5.385785438715658,-1.1220303618209349,-31.283024632723755,-27.958872556640486,-14.08138570403126,-2.343487948244652,24.58182263287702,3.5026842395677957,0.359801325,-0.910214955,0.31164471,4.89846,-5.9514,9.52224,67.0
1774823705.9347866,6.9141387939453125e-06,2026-03-29T22:35:05.934,2026-03-29T18:35:05.934,-20916.045,-45274.455,-76819.545,-48535.83,-8189.1449999999995,-16292.385,8486.865,-61093.845,12.985719493579957,-1.1729787627904007,-19.212512186819357,-21.37426512467505,-10.308680261076736,-2.962540621240413,24.77585639213882,14.330497341935065,0.359801325,-0.910214955,0.31164471,4.89846,-5.9514,9.52224,67.0
1774823705.940228,0.005441427230834961,2026-03-29T22:35:05.940,2026-03-29T18:35:05.940,-20949.255,-45262.665,-76754.655,-48475.89,-8141.94,-16245.63,8462.789999999999,-61123.095,14.59772031764367,-0.9920603603806422,1.8416496372788511,-4.349071602400314,-1.1585238901939214,-1.415151258431592,15.238851585100834,18.762751884744915,0.359801325,-0.910214955,0.31164471,4.89846,-5.9514,9.52224,67.0
1774823705.9402485,2.0503997802734375e-05,2026-03-29T22:35:05.940,2026-03-29T18:35:05.940,-20921.895,-45269.505,-76765.36499999999,-48468.24,-8137.125,-16238.07,8480.52,-61113.825,8.913917726383477,-1.0540478059504579,21.687708643891202,14.606465889694416,8.572712295037656,1.0353920706243938,-0.8362260923756736,14.00806034256053,0.359801325,-0.910214955,0.31164471,4.89846,-5.9514,9.52224,67.0
1774823705.9433095,0.003061056137084961,2026-03-29T22:35:05.943,2026-03-29T18:35:05.943,-20938.905,-45344.07,-76825.935,-48468.33,-8139.195,-16251.93,8487.404999999999,-61098.615,-1.7026383994182297,-1.4086559604815312,30.815954762599198,26.06769208976424,13.769627726791736,2.568701961590079,-17.42710686327971,1.8218380038233757,0.359801325,-0.910214955,0.31164471,4.89846,-5.9514,9.52224,67.0
1774823705.9433317,2.2172927856445312e-05,2026-03-29T22:35:05.943,2026-03-29T18:35:05.943,-21043.485,-45432.18,-76861.44,-48478.14,-8164.44,-16287.57,8424.27,-61166.835,-12.209746780046508,-1.6230040820805995,24.988988537344845,24.396319772008066,11.656354131967927,1.9580968373514853,-27.86044817352924,-12.126383309987746,0.359801325,-0.910214955,0.31164471,4.89846,-5.9514,9.52224,67.0
1774823705.947758,0.004426240921020508,2026-03-29T22:35:05.947,2026-03-29T18:35:05.947,-21061.89,-45300.645,-76729.95,-48486.42,-8209.215,-16331.039999999999,8330.715,-61232.49,-17.31379105554559,-1.1035957071067786,7.245589004857052,10.547613943829333,3.2674501331943193,-0.6189343523222045,-27.48682623578336,-20.93715146570107,0.35949615,-0.9179664,0.30578535,13.82556,-10.28524,12.940479999999999,67.0
1774823705.9477851,2.7179718017578125e-05,2026-03-29T22:35:05.947,2026-03-29T18:35:05.947,-20954.25,-45182.79,-76693.86,-48448.35,-8164.575,-16291.664999999999,8395.11,-61162.335,-14.149271758885718,0.4080354957833912,-13.644556996561663,-8.426692865890566,-7.042912917130689,-3.6007261289468406,-15.785615503689053,-19.924668598569795,0.35949615,-0.9179664,0.30578535,13.82556,-10.28524,12.940479999999999,67.0
1774823705.951866,0.004080772399902344,2026-03-29T22:35:05.951,2026-03-29T18:35:05.951,-20914.155,-45274.365,-76853.61,-48484.034999999996,-8133.795,-16231.05,8615.744999999999,-61056.854999999996,-3.8483271968637407,2.4957319741203556,-27.50242080938058,-22.935686324856498,-13.826082656564383,-4.917164939040479,3.070411714409955,-9.087418276784728,0.35949615,-0.9179664,0.30578535,13.82556,-10.28524,12.940479999999999,67.0
1774823705.951887,2.09808349609375e-05,2026-03-29T22:35:05.951,2026-03-29T18:35:05.951,-20946.465,-45331.47,-76956.84,-48631.365,-8245.395,-16310.789999999999,8596.44,-61083.18,8.844647294123579,4.139905010272672,-27.711359418874373,-25.68288188907755,-13.372933542347726,-3.2514112612083284,21.60814044442498,6.689185937905113,0.35949615,-0.9179664,0.30578535,13.82556,-10.28524,12.940479999999999,67.0
1774823705.9631088,0.011221885681152344,2026-03-29T22:35:05.963,2026-03-29T18:35:05.963,-20933.505,-45303.975,-76882.815,-48584.655,-8227.664999999999,-16308.539999999999,8518.41,-61088.895,17.792161283809907,4.217975989221123,-14.40492641479957,-15.343949270489398,-5.698656941859282,1.0321052758640932,31.99871292759782,19.879709502587428,0.35949615,-0.9179664,0.30578535,13.82556,-10.28524,12.940479999999999,67.0
1774823705.9631245,1.5735626220703125e-05,2026-03-29T22:35:05.963,2026-03-29T18:35:05.963,-20917.62,-45270.765,-76758.435,-48501.945,-8195.625,-16297.83,8490.779999999999,-61083.0,18.462261018228936,2.1864480910069757,5.676847908081555,2.7687724516369054,5.36784805980293,5.8683600462933185,29.40357231270623,23.960615916541503,0.35949615,-0.9179664,0.30578535,13.82556,-10.28524,12.940479999999999,67.0
1774823705.9631388,1.430511474609375e-05,2026-03-29T22:35:05.963,2026-03-29T18:35:05.963,-20903.265,-45298.439999999995,-76744.08,-48492.945,-8197.875,-16312.545,8467.38,-61064.909999999996,10.227817554785167,-1.4452148504500328,22.567744534636482,19.39779075496103,14.078760432073967,8.477864563716068,14.27129361583019,16.66132078846209,0.35949615,-0.9179664,0.30578535,13.82556,-10.28524,12.940479999999999,67.0
1774823705.9631453,6.4373016357421875e-06,2026-03-29T22:35:05.963,2026-03-29T18:35:05.963,-20972.07,-45357.57,-76795.69499999999,-48466.395,-8170.155,-16301.789999999999,8420.4,-61076.655,-3.2014324353588774,-5.16619696345747,28.00817437667924,26.036449805006626,15.713416295692141,6.890662809525631,-7.52640688343228,1.1932762981473364,0.35949615,-0.9179664,0.30578535,13.82556,-10.28524,12.940479999999999,67.0
1774823705.9647694,0.0016241073608398438,2026-03-29T22:35:05.964,2026-03-29T18:35:05.964,-20962.395,-45290.924999999996,-76822.605,-48492.81,-8185.365,-16313.76,8307.135,-61133.625,-15.477403321137961,-7.096078076604926,19.492717935028725,19.25852845189871,9.079125246508573,1.196745958539844,-26.943834438564267,-15.196080835022812,0.35949615,-0.9179664,0.30578535,13.82556,-10.28524,12.940479999999999,67.0
1774823705.964793,2.3603439331054688e-05,2026-03-29T22:35:05.964,2026-03-29T18:35:05.964,-20947.454999999998,-45275.625,-76856.4,-48569.939999999995,-8217.449999999999,-16297.56,8419.005,-61129.439999999995,-20.65142409335318,-5.930281600344499,1.4447280663969968,2.4850312028509416,-2.737858468558046,-6.208713508989725,-35.55110429685781,-24.67707092158461,0.35949615,-0.9179664,0.30578535,13.82556,-10.28524,12.940479999999999,67.0
1774823705.9673896,0.002596616744995117,2026-03-29T22:35:05.967,2026-03-29T18:35:05.967,-20929.094999999998,-45218.34,-76778.055,-48555.585,-8195.49,-16250.625,8463.914999999999,-61111.845,-16.08076948759711,-1.725660927917608,-17.041447392993337,-15.721704866453727,-13.810543278460575,-11.628434515132499,-29.258476870905806,-22.62708656284979,0.37194729,-0.908383905,0.34204014,12.269039999999999,2.09062,17.89998,67.0
1774823705.96741,2.0503997802734375e-05,2026-03-29T22:35:05.967,2026-03-29T18:35:05.967,-20918.565,-45200.07,-76725.54,-48523.994999999995,-8182.755,-16236.359999999999,8457.119999999999,-61111.755,-3.7737398755836984,3.9179196109781707,-26.751812231379777,-25.992060574982688,-18.326590190795365,-11.897122920075777,-10.297739744172109,-9.899990511226159,0.37194729,-0.908383905,0.34204014,12.269039999999999,2.09062,17.89998,67.0
1774823705.9713237,0.0039136409759521484,2026-03-29T22:35:05.971,2026-03-29T18:35:05.971,-20910.285,-45221.715,-76735.98,-48495.96,-8171.82,-16246.845,8527.59,-61073.369999999995,10.50869380080718,8.453537585345492,-22.930318781647898,-22.9289725468557,-13.592652476180467,-6.140807510741339,13.51691253637607,7.545233683724471,0.37194729,-0.908383905,0.34204014,12.269039999999999,2.09062,17.89998,67.0
1774823705.9713433,1.9550323486328125e-05,2026-03-29T22:35:05.971,2026-03-29T18:35:05.971,-20911.005,-45271.53,-76789.62,-48497.534999999996,-8162.37,-16233.75,8677.485,-61015.32,19.98410298286888,9.545038821265788,-7.612963290074356,-7.909061970434826,-1.5510773359830163,3.4869365714665923,32.035866136933905,21.48632088334152,0.37194729,-0.908383905,0.34204014,12.269039999999999,2.09062,17.89998,67.0
1774823705.9772367,0.0058934688568115234,2026-03-29T22:35:05.977,2026-03-29T18:35:05.977,-20935.755,-45312.84,-76833.855,-48537.314999999995,-8199.675,-16262.64,8601.255,-61041.78,20.101895379204144,6.256913675446841,11.429576283271006,11.53616511290439,12.015812007703957,12.58189571315347,37.16638115702209,25.37134085245099,0.37194729,-0.908383905,0.34204014,12.269039999999999,2.09062,17.89998,67.0
1774823705.9772632,2.6464462280273438e-05,2026-03-29T22:35:05.977,2026-03-29T18:35:05.977,-20936.25,-45340.064999999995,-76877.055,-48551.534999999996,-8206.92,-16275.42,8544.555,-61057.799999999996,10.744137562973844,-0.32388392841712643,24.601097478950535,25.47999960466785,20.268483646037403,16.515900579002114,26.47640799907326,17.436298057404073,0.37194729,-0.908383905,0.34204014,12.269039999999999,2.09062,17.89998,67.0
1774823705.9793897,0.002126455307006836,2026-03-29T22:35:05.979,2026-03-29T18:35:05.979,-20948.805,-45342.945,-76899.915,-48586.005,-8228.744999999999,-16296.255,8524.485,-61070.399999999994,-3.696323742981744,-7.404675757752494,25.285600507889093,26.62844462910975,18.73726652702446,12.775584910892082,4.372623713506968,1.5065301565226796,0.37194729,-0.908383905,0.34204014,12.269039999999999,2.09062,17.89998,67.0
1774823705.9794028,1.3113021850585938e-05,2026-03-29T22:35:05.979,2026-03-29T18:35:05.979,-20949.12,-45282.015,-76833.675,-48562.155,-8215.74,-16285.904999999999,8514.09,-61079.31,-16.403839307953447,-11.67584546408879,13.15282928025205,14.082337531672232,7.68341165762807,2.43714122247772,-19.728816707517545,-14.881560311852608,0.37194729,-0.908383905,0.34204014,12.269039999999999,2.09062,17.89998,67.0
1774823705.984897,0.005494117736816406,2026-03-29T22:35:05.984,2026-03-29T18:35:05.984,-20930.445,-45264.645,-76811.715,-48555.585,-8214.57,-16285.14,8505.315,-61070.759999999995,-21.389427946798506,-10.864555617011623,-5.682520281932794,-6.0883285705313375,-7.832338187380203,-10.04803220497565,-35.47296870366698,-24.10110639224299,0.37194729,-0.908383905,0.34204014,12.269039999999999,2.09062,17.89998,67.0
1774823705.984924,2.7179718017578125e-05,2026-03-29T22:35:05.984,2026-03-29T18:35:05.984,-20923.965,-45276.39,-76813.83,-48562.74,-8229.33,-16304.445,8480.61,-61062.435,-16.3382118180679,-4.922201191788179,-21.72517522353748,-23.792278942710194,-20.286559013597262,-18.782764875106515,-36.0892033841155,-22.033964764090378,0.37194729,-0.908383905,0.34204014,12.269039999999999,2.09062,17.89998,67.0
1774823705.9879963,0.0030722618103027344,2026-03-29T22:35:05.987,2026-03-29T18:35:05.987,-20932.155,-45315.405,-76862.295,-48561.255,-8229.869999999999,-16311.465,8467.335,-61056.854999999996,-3.6909007079742966,3.765422369805833,-26.85760686163272,-29.949088837354882,-23.347219022728712,-19.227174943109993,-21.355207022874588,-9.928214973443403,0.377379405,-0.894712065,0.359435115,6.60758,12.62002,21.913359999999997,67.0
1774823705.9880247,2.8371810913085938e-05,2026-03-29T22:35:05.988,2026-03-29T18:35:05.988,-20903.76,-45309.645,-76860.855,-48544.29,-8216.73,-16301.699999999999,8464.545,-61026.479999999996,10.54767736120951,11.325883342267842,-18.41713984974663,-21.10010697736067,-15.066709798581675,-10.535439398894086,2.3204188729837467,6.331163055913833,0.377379405,-0.894712065,0.359435115,6.60758,12.62002,21.913359999999997,67.0
1774823705.9917467,0.003721952438354492,2026-03-29T22:35:05.991,2026-03-29T18:35:05.991,-20904.93,-45285.525,-76822.245,-48510.27,-8182.125,-16273.574999999999,8463.555,-61028.415,19.685292701918453,14.135406534321294,-0.5537623098156097,-1.272290335857428,0.9872922383277105,3.768392993801029,24.728636890996484,19.12108956752239,0.377379405,-0.894712065,0.359435115,6.60758,12.62002,21.913359999999997,67.0
1774823705.991762,1.52587890625e-05,2026-03-29T22:35:05.991,2026-03-29T18:35:05.991,-20925.315,-45262.17,-76796.055,-48500.685,-8164.17,-16251.48,8508.015,-61050.195,19.514790027627715,10.561365581880036,17.81644625155989,19.88308391524317,17.287223264428683,17.21708111307401,36.33230353465614,22.704372680650327,0.377379405,-0.894712065,0.359435115,6.60758,12.62002,21.913359999999997,67.0
1774823705.9953313,0.003569364547729492,2026-03-29T22:35:05.995,2026-03-29T18:35:05.995,-20945.52,-45304.11,-76850.50499999999,-48569.534999999996,-8223.795,-16301.115,8525.744999999999,-61055.189999999995,10.267196483704648,1.8730562011867773,27.450764679440404,31.8029194836451,25.900592755941314,23.354004874218937,32.387567612070626,15.83435003611334,0.377379405,-0.894712065,0.359435115,6.60758,12.62002,21.913359999999997,67.0
1774823705.9953587,2.7418136596679688e-05,2026-03-29T22:35:05.995,2026-03-29T18:35:05.995,-20933.46,-45288.9,-76820.355,-48562.515,-8226.99,-16314.345,8457.345,-61060.409999999996,-3.5671669255040723,-8.173139751666247,23.40470890625534,28.266832634709473,22.35420670808142,18.85220530340267,14.903991822652605,2.144558043894861,0.377379405,-0.894712065,0.359435115,6.60758,12.62002,21.913359999999997,67.0
1774823705.9994051,0.004046440124511719,2026-03-29T22:35:05.999,2026-03-29T18:35:05.999,-20902.094999999998,-45263.475,-76785.705,-48521.924999999996,-8190.2699999999995,-16278.84,8461.215,-61033.545,-15.431275768619571,-14.96082678481942,7.535881650984179,10.585119049665092,7.922594907164334,5.283582213607765,-8.375607519523225,-11.769033022511506,0.377379405,-0.894712065,0.359435115,6.60758,12.62002,21.913359999999997,67.0
1774823705.9994268,2.1696090698242188e-05,2026-03-29T22:35:05.999,2026-03-29T18:35:05.999,-20897.91,-45299.97,-76827.87,-48579.165,-8253.63,-16327.484999999999,8464.949999999999,-60998.445,-19.83141747231071,-15.148351326552953,-12.370464366708788,-12.893735278410663,-10.818017467421937,-11.39042130567019,-27.457237456757046,-19.56226402905389,0.377379405,-0.894712065,0.359435115,6.60758,12.62002,21.913359999999997,67.0
1774823706.0035436,0.00411677360534668,2026-03-29T22:35:06.003,2026-03-29T18:35:06.003,-20919.555,-45329.04,-76875.48,-48661.56,-8311.365,-16366.59,8458.425,-61007.354999999996,-14.90130536811439,-8.319590618875853,-26.433989741936614,-30.764983788973012,-25.01999500458806,-23.465766890641387,-34.448545299910776,-18.071811251762117,0.377379405,-0.894712065,0.359435115,6.60758,12.62002,21.913359999999997,67.0
1774823706.003574,3.0279159545898438e-05,2026-03-29T22:35:06.003,2026-03-29T18:35:06.003,-20995.155,-45360.09,-76905.58499999999,-48621.284999999996,-8260.289999999999,-16331.805,8444.385,-61084.215,-3.1957174444492034,2.6661352880329745,-27.577371998571458,-34.1212324672567,-27.767394638910837,-25.093067824990353,-26.857562461131803,-8.591443181008955,0.377379405,-0.894712065,0.359435115,6.60758,12.62002,21.913359999999997,67.0
1774823706.0073457,0.0037717819213867188,2026-03-29T22:35:06.007,2026-03-29T18:35:06.007,-21019.995,-45412.155,-76953.285,-48558.689999999995,-8237.43,-16337.789999999999,8372.88,-61107.165,9.623412210408437,12.862788630324573,-15.062136992404659,-20.96532977978473,-17.443357522340715,-15.129134362093563,-8.443549936678595,4.013056602010366,0.34435947,-0.8970313950000001,0.31909098,29.6044,3.02148,27.22384,67.0
1774823706.007373,2.7418136596679688e-05,2026-03-29T22:35:06.007,2026-03-29T18:35:06.007,-20973.375,-45314.955,-76826.655,-48463.604999999996,-8151.615,-16244.955,8449.56,-61085.655,17.535822352185992,17.476658138321053,5.096641549324803,2.6953646553337887,1.3786311711944716,2.1551578021020643,12.647475901227928,13.801773002151624,0.34435947,-0.8970313950000001,0.31909098,29.6044,3.02148,27.22384,67.0
1774823706.0122206,0.004847526550292969,2026-03-29T22:35:06.012,2026-03-29T18:35:06.012,-20944.485,-45267.975,-76770.495,-48471.84,-8129.79,-16202.34,8627.67,-61047.674999999996,17.00782070829299,14.138020739662258,23.05357159654502,25.644144064648064,19.991963220639768,18.921786667607265,27.534436096352977,16.588436905380988,0.34435947,-0.8970313950000001,0.31909098,29.6044,3.02148,27.22384,67.0
1774823706.012242,2.1457672119140625e-05,2026-03-29T22:35:06.012,2026-03-29T18:35:06.012,-20940.3,-45267.795,-76727.745,-48457.439999999995,-8132.58,-16215.345,8568.81,-61041.645,8.582107764285025,4.121984663540627,29.96010742497941,36.815075108250895,29.6228431665107,27.36153837554398,30.381036226421074,11.740223805679106,0.34435947,-0.8970313950000001,0.31909098,29.6044,3.02148,27.22384,67.0
1774823706.0152078,0.002965688705444336,2026-03-29T22:35:06.015,2026-03-29T18:35:06.015,-20933.415,-45274.545,-76731.39,-48432.689999999995,-8137.53,-16235.189999999999,8470.619999999999,-61042.634999999995,-3.506662566558483,-8.111339299379829,22.319760144877996,30.63666006634094,25.588887146688407,23.37092240418069,20.67779411109359,2.1735688225433596,0.34435947,-0.8970313950000001,0.31909098,29.6044,3.02148,27.22384,67.0
1774823706.0152233,1.5497207641601562e-05,2026-03-29T22:35:06.015,2026-03-29T18:35:06.015,-20971.62,-45353.34,-76846.23,-48502.485,-8198.235,-16293.555,8407.035,-61078.905,-13.451378686578536,-16.90846960285458,3.727464923641704,9.773200872250378,9.568719750791054,8.561471072996564,3.1401781117525567,-7.313610285907186,0.34435947,-0.8970313950000001,0.31909098,29.6044,3.02148,27.22384,67.0
1774823706.019581,0.004357814788818359,2026-03-29T22:35:06.019,2026-03-29T18:35:06.019,-20948.265,-45379.125,-76890.645,-48478.32,-8157.599999999999,-16265.115,8451.494999999999,-61049.34,-16.669122603593813,-18.055333823127743,-16.862130764751026,-16.07176224988958,-11.115476204458385,-10.388514660856188,-14.584145236570032,-12.44791988442601,0.34435947,-0.8970313950000001,0.31909098,29.6044,3.02148,27.22384,67.0
1774823706.0196085,2.7418136596679688e-05,2026-03-29T22:35:06.019,2026-03-29T18:35:06.019,-20943.855,-45435.689999999995,-76965.25499999999,-48546.81,-8212.86,-16323.795,8404.11,-61019.369999999995,-11.92551410802492,-10.816965780647406,-29.48657758994913,-34.729230400575936,-26.88608224448673,-24.780664791243986,-25.28176197432593,-11.418209710266064,0.34435947,-0.8970313950000001,0.31909098,29.6044,3.02148,27.22384,67.0
1774823706.0236886,0.004080057144165039,2026-03-29T22:35:06.023,2026-03-29T18:35:06.023,-20965.23,-45402.03,-76969.485,-48612.96,-8252.55,-16353.18,8400.375,-61004.79,-1.7978615425482987,1.6118110273877533,-28.015489748933113,-37.3321031698882,-30.382291419709627,-27.93602672889586,-25.118754955506503,-5.462535149691096,0.34435947,-0.8970313950000001,0.31909098,29.6044,3.02148,27.22384,67.0
1774823706.0237043,1.5735626220703125e-05,2026-03-29T22:35:06.023,2026-03-29T18:35:06.023,-20955.87,-45272.744999999995,-76890.19499999999,-48641.49,-8272.845,-16363.529999999999,8423.1,-61052.715,8.689576618162036,13.512428253583114,-13.117131844375994,-22.5246319314352,-19.911116706863755,-18.330672712328703,-14.96140577521701,2.0512701377790012,0.34435947,-0.8970313950000001,0.31909098,29.6044,3.02148,27.22384,67.0
1774823706.028839,0.0051348209381103516,2026-03-29T22:35:06.028,2026-03-29T18:35:06.028,-20837.79,-45192.465,-76814.145,-48580.83,-8243.19,-16341.974999999999,8484.21,-60965.369999999995,14.547453633561195,19.28945367498233,8.08135325068312,2.8839785924920944,-0.25189087887733536,-0.33951560423972227,0.3493269379315761,7.463741482905319,0.3076164,-0.8881202850000001,0.294249735,45.718959999999996,-3.7539599999999997,23.30202,67.0
1774823706.02886,2.09808349609375e-05,2026-03-29T22:35:06.028,2026-03-29T18:35:06.028,-20769.614999999998,-45180.945,-76740.93,-48492.045,-8194.32,-16294.769999999999,8572.86,-60861.104999999996,13.198309562005017,16.126639570326436,25.452854946026463,27.117323889653573,19.561946776520564,17.777787840546925,14.29654695136242,8.599687790191219,0.3076164,-0.8881202850000001,0.294249735,45.718959999999996,-3.7539599999999997,23.30202,67.0
1774823706.031571,0.0027108192443847656,2026-03-29T22:35:06.031,2026-03-29T18:35:06.031,-20792.07,-45223.83,-76738.77,-48509.955,-8191.349999999999,-16276.32,8610.21,-60852.96,5.615702566107701,5.380533665543876,30.74837744298764,38.94884965514427,30.43744891593264,27.71168537513149,21.47089576496116,5.623586050021916,0.3076164,-0.8881202850000001,0.294249735,45.718959999999996,-3.7539599999999997,23.30202,67.0
1774823706.0315793,8.344650268554688e-06,2026-03-29T22:35:06.031,2026-03-29T18:35:06.031,-21025.079999999998,-45347.715,-76783.86,-48500.64,-8141.94,-16219.574999999999,8538.885,-61077.509999999995,-4.278485273370997,-7.9863931909026205,21.52620940988492,32.92603026277855,27.425313473382424,24.95848666177173,19.649302748610264,0.6519187749755772,0.3076164,-0.8881202850000001,0.294249735,45.718959999999996,-3.7539599999999997,23.30202,67.0
1774823706.0356236,0.004044294357299805,2026-03-29T22:35:06.035,2026-03-29T18:35:06.035,-21067.739999999998,-45300.6,-76779.45,-48517.064999999995,-8132.58,-16199.955,8553.285,-61145.235,-11.61119801501924,-17.70452013846115,2.254102917159311,11.858970136403546,11.974629773539636,10.888001908726913,10.385277162262128,-3.552274690573969,0.3076164,-0.8881202850000001,0.294249735,45.718959999999996,-3.7539599999999997,23.30202,67.0
1774823706.035638,1.4543533325195312e-05,2026-03-29T22:35:06.035,2026-03-29T18:35:06.035,-20986.245,-45277.65,-76808.655,-48581.189999999995,-8208.855,-16284.465,8508.015,-61091.369999999995,-12.94372258954549,-19.15989578503778,-17.90238551213507,-14.551779380005579,-8.789104295485375,-7.937454732705466,-1.9825641829218628,-5.050803770580512,0.3076164,-0.8881202850000001,0.294249735,45.718959999999996,-3.7539599999999997,23.30202,67.0
1774823706.0397997,0.0041615962982177734,2026-03-29T22:35:06.039,2026-03-29T18:35:06.039,-20942.28,-45259.11,-76782.23999999999,-48556.845,-8226.045,-16324.425,8451.27,-61051.77,-7.883909229663813,-11.611297645831167,-29.4910579921223,-34.2519252021307,-25.392754447531463,-22.85350928465081,-12.339927905863414,-3.606163277583872,0.3076164,-0.8881202850000001,0.294249735,45.718959999999996,-3.7539599999999997,23.30202,67.0
1774823706.039834,3.4332275390625e-05,2026-03-29T22:35:06.039,2026-03-29T18:35:06.039,-20920.68,-45254.88,-76787.81999999999,-48548.564999999995,-8231.265,-16330.545,8417.385,-61031.835,0.8289670005730442,1.4151232638269509,-27.237512595088784,-38.38053785126478,-30.376303051859644,-27.124232523934005,-16.905172639492932,-0.5769609349829561,0.3076164,-0.8881202850000001,0.294249735,45.718959999999996,-3.7539599999999997,23.30202,67.0
1774823706.0433326,0.003498554229736328,2026-03-29T22:35:06.043,2026-03-29T18:35:06.043,-20924.864999999998,-45269.415,-76779.855,-48518.369999999995,-8185.094999999999,-16269.255,8483.67,-61011.854999999996,8.762011670785782,13.769442308148077,-12.439328400146524,-25.253182330430835,-21.659926650850622,-19.018281739701518,-14.576530752100473,2.012663209372634,0.3076164,-0.8881202850000001,0.294249735,45.718959999999996,-3.7539599999999997,23.30202,67.0
1774823706.0433507,1.811981201171875e-05,2026-03-29T22:35:06.043,2026-03-29T18:35:06.043,-20961.63,-45309.555,-76820.355,-48549.33,-8200.935,-16255.89,8546.085,-61023.329999999994,12.009129006220254,19.5952384838776,7.793750710345857,-0.9916078790307936,-3.3904726598349884,-2.5105932350964717,-7.060451662603824,2.661996663039234,0.3076164,-0.8881202850000001,0.294249735,45.718959999999996,-3.7539599999999997,23.30202,67.0
1774823706.0480628,0.004712104797363281,2026-03-29T22:35:06.048,2026-03-29T18:35:06.048,-21005.954999999998,-45374.22,-76862.87999999999,-48563.955,-8222.039999999999,-16288.65,8450.055,-61074.134999999995,9.094935663896178,16.130588477851735,24.008513007526027,23.401012573680184,16.06493021586828,14.6736535699311,2.1338683534703504,1.1875785508222476,0.30346602,-0.857358645,0.30438154500000003,24.76698,-7.6452599999999995,19.334419999999998,67.0
1774823706.0480833,2.0503997802734375e-05,2026-03-29T22:35:06.048,2026-03-29T18:35:06.048,-21009.329999999998,-45403.515,-76855.31999999999,-48504.42,-8177.8949999999995,-16263.63,8361.404999999999,-61080.165,1.6431678319341627,5.042414234457059,28.870735862306773,37.09060953502428,27.992377307630626,24.705900145836697,9.300562949549777,-1.2720569806529896,0.30346602,-0.857358645,0.30438154500000003,24.76698,-7.6452599999999995,19.334419999999998,67.0
1774823706.052142,0.0040585994720458984,2026-03-29T22:35:06.052,2026-03-29T18:35:06.052,-21001.454999999998,-45407.88,-76833.98999999999,-48448.71,-8136.63,-16244.01,8330.985,-61061.22,-6.489963603085991,-8.361003525612771,20.49407027305748,34.24156398040952,27.258855444968724,23.25523394397894,12.026857579248965,-2.9897885004492983,0.30346602,-0.857358645,0.30438154500000003,24.76698,-7.6452599999999995,19.334419999999998,67.0
1774823706.052163,2.09808349609375e-05,2026-03-29T22:35:06.052,2026-03-29T18:35:06.052,-20968.335,-45349.11,-76814.50499999999,-48399.075,-8079.4349999999995,-16214.535,8390.385,-61020.899999999994,-11.166042176506368,-17.673392803887666,3.119382012831525,16.463832163806757,14.511771717194325,11.371334556153514,9.975481668246305,-2.683165695543926,0.30346602,-0.857358645,0.30438154500000003,24.76698,-7.6452599999999995,19.334419999999998,67.0
1774823706.064514,0.012351036071777344,2026-03-29T22:35:06.064,2026-03-29T18:35:06.064,-20936.565,-45271.305,-76833.27,-48478.994999999995,-8132.219999999999,-16236.0,8596.035,-60975.945,-10.028055153130099,-18.47009151692205,-15.067474205337675,-8.126205405575147,-4.286697768692186,-5.17461894753946,4.721829362143686,-0.2745528779546831,0.30346602,-0.857358645,0.30438154500000003,24.76698,-7.6452599999999995,19.334419999999998,67.0
1774823706.0645356,2.1696090698242188e-05,2026-03-29T22:35:06.064,2026-03-29T18:35:06.064,-20917.17,-45233.865,-76829.84999999999,-48582.045,-8219.52,-16293.24,8642.34,-60968.07,-3.6652033208745696,-10.43591442098835,-25.843300504018195,-28.6786057588177,-20.686053785314638,-18.704075055120025,-1.1757770967707113,3.0247419378271774,0.30346602,-0.857358645,0.30438154500000003,24.76698,-7.6452599999999995,19.334419999999998,67.0
1774823706.0645556,2.002716064453125e-05,2026-03-29T22:35:06.064,2026-03-29T18:35:06.064,-20908.53,-45231.119999999995,-76807.75499999999,-48614.13,-8245.395,-16316.595,8555.535,-60974.595,4.685692816297454,2.4929148192016224,-24.692581854471484,-36.431101962850875,-27.57703491009486,-23.22129002485221,-5.3898443377438054,5.340687442860831,0.30346602,-0.857358645,0.30438154500000003,24.76698,-7.6452599999999995,19.334419999999998,67.0
1774823706.064563,7.3909759521484375e-06,2026-03-29T22:35:06.064,2026-03-29T18:35:06.064,-20893.23,-45233.729999999996,-76794.705,-48586.59,-8223.029999999999,-16300.035,8506.71,-60966.314999999995,10.751055987152654,14.04609208425075,-12.672167168920714,-28.419927746126366,-22.273704597791447,-17.088057095266617,-6.7631965761989585,5.138785200954623,0.30346602,-0.857358645,0.30438154500000003,24.76698,-7.6452599999999995,19.334419999999998,67.0
1774823706.0645714,8.344650268554688e-06,2026-03-29T22:35:06.064,2026-03-29T18:35:06.064,-20889.54,-45231.479999999996,-76760.415,-48517.244999999995,-8178.705,-16267.859999999999,8470.71,-60972.255,11.354355755353216,18.666527125827372,4.358468050546335,-8.522621067659642,-7.512232384702885,-3.5821258001477507,-5.587288515603738,2.0834331279670883,0.30346602,-0.857358645,0.30438154500000003,24.76698,-7.6452599999999995,19.334419999999998,67.0
1774823706.0645783,6.9141387939453125e-06,2026-03-29T22:35:06.064,2026-03-29T18:35:06.064,-20909.925,-45256.095,-76783.00499999999,-48519.405,-8177.58,-16269.164999999999,8458.83,-60987.42,6.027866969484854,14.204137947845703,18.63618415257242,14.477594233155193,9.976045532029621,10.828401299056571,-3.165175833096735,-2.684877867856015,0.30346602,-0.857358645,0.30438154500000003,24.76698,-7.6452599999999995,19.334419999999998,67.0
1774823706.0676284,0.003050088882446289,2026-03-29T22:35:06.067,2026-03-29T18:35:06.067,-20934.945,-45285.93,-76810.86,-48556.08,-8212.32,-16301.07,8491.185,-60987.645,-2.6947342066996076,2.94157976483166,24.070338073343695,30.8152407058856,22.56711490018922,19.594009130755637,-0.946405098569373,-7.003418972872793,0.305480175,-0.8488137450000001,0.29699631,-15.04636,-17.0149,28.27678,67.0
1774823706.0676496,2.1219253540039062e-05,2026-03-29T22:35:06.067,2026-03-29T18:35:06.067,-20920.995,-45270.09,-76775.58,-48512.25,-8164.889999999999,-16254.494999999999,8542.35,-60964.244999999995,-10.468811402853488,-9.548761477844664,18.8318075107175,33.8787544854045,25.076214817909598,19.07497557443799,0.28544258631610275,-8.669261121844341,0.305480175,-0.8488137450000001,0.29699631,-15.04636,-17.0149,28.27678,67.0
1774823706.0736349,0.005985260009765625,2026-03-29T22:35:06.073,2026-03-29T18:35:06.073,-20942.864999999998,-45307.439999999995,-76822.73999999999,-48531.104999999996,-8171.505,-16262.865,8534.744999999999,-60973.784999999996,-13.257904462613498,-17.154122246398565,5.860391778748938,22.8138053877902,16.859086093686876,10.041898526026914,0.7386548845467235,-6.499479447044889,0.305480175,-0.8488137450000001,0.29699631,-15.04636,-17.0149,28.27678,67.0
1774823706.073655,2.002716064453125e-05,2026-03-29T22:35:06.073,2026-03-29T18:35:06.073,-20948.85,-45330.119999999995,-76853.83499999999,-48546.99,-8177.085,-16261.56,8553.555,-60971.04,-9.3655970151844,-16.224143509149172,-8.775188392952296,2.6106038147394606,1.8501950858488152,-2.9258486280006504,1.2883316796081912,-0.9822096188456481,0.305480175,-0.8488137450000001,0.29699631,-15.04636,-17.0149,28.27678,67.0
1774823706.073697,4.220008850097656e-05,2026-03-29T22:35:06.073,2026-03-29T18:35:06.073,-20951.774999999998,-45336.284999999996,-76849.875,-48562.965,-8197.154999999999,-16276.365,8534.07,-60974.055,-0.3822747589355635,-7.347602330918996,-18.756217190300248,-18.199230681392073,-13.348022373848627,-13.749043769748338,2.700331241635853,5.791333526735813,0.305480175,-0.8488137450000001,0.29699631,-15.04636,-17.0149,28.27678,67.0
1774823706.0737047,7.62939453125e-06,2026-03-29T22:35:06.073,2026-03-29T18:35:06.073,-20955.555,-45332.64,-76842.62999999999,-48559.634999999995,-8195.985,-16280.595,8519.31,-60979.005,9.453377267381809,4.972462777969514,-20.248745662601234,-31.148664288528487,-22.38448711839921,-17.703472367608374,4.8778344757496575,10.91719559203503,0.305480175,-0.8488137450000001,0.29699631,-15.04636,-17.0149,28.27678,67.0
1774823706.0794559,0.005751132965087891,2026-03-29T22:35:06.079,2026-03-29T18:35:06.079,-20956.23,-45310.005,-76828.455,-48550.814999999995,-8187.075,-16277.13,8500.815,-60987.555,15.22697594881124,14.580946333849946,-13.308394300727949,-31.21934666131752,-21.789145080898187,-13.47667803855594,6.631403020119387,11.889063634775805,0.305480175,-0.8488137450000001,0.29699631,-15.04636,-17.0149,28.27678,67.0
1774823706.0794797,2.384185791015625e-05,2026-03-29T22:35:06.079,2026-03-29T18:35:06.079,-20952.405,-45294.93,-76810.455,-48526.83,-8164.62,-16260.164999999999,8494.47,-60983.865,13.749170429548496,16.743456971459953,-1.4813343456868115,-18.686466117233234,-12.237953900888341,-3.5347543205805505,6.213248318650804,7.740965994214591,0.305480175,-0.8488137450000001,0.29699631,-15.04636,-17.0149,28.27678,67.0
1774823706.0836215,0.004141807556152344,2026-03-29T22:35:06.083,2026-03-29T18:35:06.083,-20955.42,-45306.854999999996,-76811.94,-48511.215,-8146.44,-16245.045,8493.21,-60975.134999999995,5.234219778245298,10.497265029887858,10.026385787708374,1.193423393931674,1.9670327970680244,7.2560606293334,2.419608694890233,-0.3629219893233296,0.305480175,-0.8488137450000001,0.29699631,-15.04636,-17.0149,28.27678,67.0
1774823706.0836422,2.0742416381835938e-05,2026-03-29T22:35:06.083,2026-03-29T18:35:06.083,-20935.17,-45309.195,-76817.565,-48518.82,-8153.19,-16250.715,8491.949999999999,-60956.189999999995,-6.596957164234811,-0.8945876477791823,16.659763890234537,20.40157533318661,14.854461452592613,14.001796725785123,-4.324221533486664,-9.386205075885432,0.305480175,-0.8488137450000001,0.29699631,-15.04636,-17.0149,28.27678,67.0
1774823706.0894053,0.005763053894042969,2026-03-29T22:35:06.089,2026-03-29T18:35:06.089,-20926.26,-45303.84,-76826.655,-48532.14,-8168.8949999999995,-16268.265,8489.925,-60951.78,-16.12374075839896,-11.61339083782445,16.271725097201802,31.339692435111356,21.278075513150092,13.992671559578094,-11.592237830557227,-15.50469448987456,0.310729185,-0.87585225,0.30578535,-9.47646,-14.29862,27.88002,67.0
1774823706.0894206,1.52587890625e-05,2026-03-29T22:35:06.089,2026-03-29T18:35:06.089,-20948.04,-45314.415,-76856.625,-48568.545,-8206.92,-16302.195,8496.855,-60964.38,-18.459186089224005,-16.238989281007687,9.675299418795259,29.74320734473643,18.915911346656923,7.7584228287495005,-15.71615589350481,-15.65956228725733,0.310729185,-0.87585225,0.30578535,-9.47646,-14.29862,27.88002,67.0
1774823706.0919497,0.002529144287109375,2026-03-29T22:35:06.091,2026-03-29T18:35:06.091,-20936.114999999998,-45309.735,-76854.825,-48570.345,-8210.295,-16305.57,8483.085,-60948.045,-11.893145126613405,-12.496622566224396,-0.051129032919657806,16.262617278251494,9.030244075086769,-1.423928055711865,-13.512297534762583,-8.985796520265026,0.310729185,-0.87585225,0.30578535,-9.47646,-14.29862,27.88002,67.0
1774823706.091977,2.7179718017578125e-05,2026-03-29T22:35:06.091,2026-03-29T18:35:06.091,-20902.274999999998,-45290.34,-76826.11499999999,-48552.255,-8203.904999999999,-16299.135,8473.77,-60905.97,1.0509709980568696,-2.4023761345325236,-9.023781844175751,-3.8249851543371753,-4.209719864010505,-9.223370699426908,-4.213645138920623,2.508577765476359,0.310729185,-0.87585225,0.30578535,-9.47646,-14.29862,27.88002,67.0
1774823706.0985403,0.006563425064086914,2026-03-29T22:35:06.098,2026-03-29T18:35:06.098,-20913.39,-45296.415,-76822.11,-48549.375,-8200.755,-16297.289999999999,8476.56,-60907.994999999995,14.546537785875547,8.781460691044858,-14.076503854802317,-22.634986284012655,-15.478667372128108,-12.283856049689394,9.443841258045895,14.416204113530615,0.310729185,-0.87585225,0.30578535,-9.47646,-14.29862,27.88002,67.0
1774823706.098672,0.0001316070556640625,2026-03-29T22:35:06.098,2026-03-29T18:35:06.098,-20908.215,-45298.35,-76836.87,-48546.54,-8191.71,-16293.599999999999,8481.105,-60906.689999999995,22.061864761385465,15.257060893025841,-13.765802265904883,-32.68049622897429,-20.389227550344433,-9.643880723552222,21.784280818838777,21.530116224329895,0.310729185,-0.87585225,0.30578535,-9.47646,-14.29862,27.88002,67.0
1774823706.1037607,0.00508880615234375,2026-03-29T22:35:06.103,2026-03-29T18:35:06.103,-20941.875,-45323.729999999996,-76844.97,-48516.075,-8155.035,-16257.914999999999,8475.66,-60942.015,19.481647364008086,13.686200373797895,-8.610011014319266,-29.771375314340716,-17.133853208215807,-2.959898539031843,26.46424773601336,20.043277910325507,0.310729185,-0.87585225,0.30578535,-9.47646,-14.29862,27.88002,67.0
1774823706.1037772,1.6450881958007812e-05,2026-03-29T22:35:06.103,2026-03-29T18:35:06.103,-20967.93,-45343.799999999996,-76843.98,-48505.005,-8138.655,-16240.14,8480.16,-60947.549999999996,7.278047487673542,4.928118382796295,-0.6588632727852675,-14.731392705810865,-7.099302693484262,4.460428230047061,19.5943402084196,9.460758063957496,0.310729185,-0.87585225,0.30578535,-9.47646,-14.29862,27.88002,67.0
1774823706.1038077,3.0517578125e-05,2026-03-29T22:35:06.103,2026-03-29T18:35:06.103,-20951.235,-45315.314999999995,-76829.355,-48517.515,-8158.455,-16263.675,8483.22,-60943.32,-9.384466426509903,-6.391235705032275,7.311085744186124,6.75432216425705,5.724089428473015,9.27390968748664,2.225208192547499,-6.690158715445322,0.310729185,-0.87585225,0.30578535,-9.47646,-14.29862,27.88002,67.0
1774823706.1038163,8.58306884765625e-06,2026-03-29T22:35:06.103,2026-03-29T18:35:06.103,-20918.835,-45294.075,-76826.87999999999,-48548.88,-8199.585,-16301.654999999999,8474.13,-60913.575,-22.80636396335169,-14.27929738581833,12.665545935684104,26.194579270316726,16.287993515622432,9.58526431023224,-19.225967382819505,-21.875692319224555,0.310729185,-0.87585225,0.30578535,-9.47646,-14.29862,27.88002,67.0
1774823706.1077068,0.003890514373779297,2026-03-29T22:35:06.107,2026-03-29T18:35:06.107,-20929.094999999998,-45291.465,-76817.87999999999,-48544.244999999995,-8195.4,-16300.664999999999,8466.84,-60928.695,-26.289387591905147,-14.520340995537994,13.637589477153409,35.564371570855215,20.41279961651563,5.65168564805201,-35.203648741031415,-29.108904561067575,0.31567302,-0.90063246,0.30908124,16.37398,-10.92616,24.7975,67.0
1774823706.1077285,2.1696090698242188e-05,2026-03-29T22:35:06.107,2026-03-29T18:35:06.107,-20907.405,-45300.869999999995,-76799.295,-48512.205,-8177.13,-16294.14,8461.845,-60895.665,-17.44020972551634,-6.927013227328147,9.80659905286594,30.581721142698832,16.395872280167456,-0.427998708230201,-37.21105346500178,-24.096700095683477,0.31567302,-0.90063246,0.30908124,16.37398,-10.92616,24.7975,67.0
1774823706.1115055,0.003777027130126953,2026-03-29T22:35:06.111,2026-03-29T18:35:06.111,-20912.67,-45349.83,-76826.295,-48499.695,-8171.415,-16308.404999999999,8355.33,-60899.04,0.37184455543790246,4.500462606723555,2.2714535861365466,12.67024939568121,5.708071315257769,-5.803226887664983,-22.163067392117664,-7.596285493024627,0.31567302,-0.90063246,0.30908124,16.37398,-10.92616,24.7975,67.0
1774823706.111521,1.5497207641601562e-05,2026-03-29T22:35:06.111,2026-03-29T18:35:06.111,-21002.265,-45400.14,-76886.955,-48535.244999999995,-8197.47,-16344.045,8238.735,-61000.515,19.23707832169973,13.634617641340144,-6.549188363450571,-11.297560179601577,-7.504510004755939,-8.185902553292863,5.278606470952844,14.252059983965243,0.31567302,-0.90063246,0.30908124,16.37398,-10.92616,24.7975,67.0
1774823706.1167123,0.005191326141357422,2026-03-29T22:35:06.116,2026-03-29T18:35:06.116,-21001.995,-45378.27,-76889.11499999999,-48479.174999999996,-8151.795,-16284.195,8302.005,-61024.14,30.202942312191965,15.46043295767891,-13.540124357473331,-31.546310608717498,-17.971681878502764,-6.793714541128151,33.85683065479166,32.073622218591325,0.31567302,-0.90063246,0.30908124,16.37398,-10.92616,24.7975,67.0
1774823706.116734,2.1696090698242188e-05,2026-03-29T22:35:06.116,2026-03-29T18:35:06.116,-20963.79,-45329.4,-76825.845,-48436.244999999995,-8101.53,-16224.39,8452.71,-60986.97,27.511703297728506,8.802267642945194,-15.879976354793627,-39.34402138522575,-21.357454426686143,-2.55095347396332,50.272083407116504,37.22243115280349,0.31567302,-0.90063246,0.30908124,16.37398,-10.92616,24.7975,67.0
1774823706.120004,0.0032699108123779297,2026-03-29T22:35:06.120,2026-03-29T18:35:06.120,-20914.02,-45252.854999999996,-76788.855,-48539.655,-8189.1449999999995,-16286.085,8545.77,-60907.454999999994,11.578768511615545,-2.9317874757501654,-12.15211508520545,-30.777955480923673,-16.046221791080004,2.4652570759954013,45.33432110113213,25.91832002224048,0.31567302,-0.90063246,0.30908124,16.37398,-10.92616,24.7975,67.0
1774823706.1200192,1.52587890625e-05,2026-03-29T22:35:06.120,2026-03-29T18:35:06.120,-20885.13,-45236.61,-76807.305,-48582.63,-8229.42,-16315.199999999999,8597.34,-60841.619999999995,-10.812673251692203,-13.449712227084966,-3.1537756826455814,-8.719945253073528,-3.924802676410642,6.020917962431652,18.883575026034695,1.6018583593398867,0.31567302,-0.90063246,0.30908124,16.37398,-10.92616,24.7975,67.0
1774823706.1235485,0.0035293102264404297,2026-03-29T22:35:06.123,2026-03-29T18:35:06.123,-21010.5,-45328.59,-76825.305,-48585.78,-8274.69,-16383.105,8498.52,-60960.96,-29.375818248876662,-16.892493215031937,8.042418474034621,18.01084624321326,10.225727461152143,6.695713160258816,-19.082803266508552,-25.849707635055033,0.31567302,-0.90063246,0.30908124,16.37398,-10.92616,24.7975,67.0
1774823706.123576,2.7418136596679688e-05,2026-03-29T22:35:06.123,2026-03-29T18:35:06.123,-21060.405,-45379.35,-76836.825,-48491.505,-8191.799999999999,-16332.84,8381.744999999999,-61052.354999999996,-35.05124767610828,-11.044829016142474,17.003809898421736,38.12712891109808,20.573429735028892,4.419809940905619,-52.06043738185103,-44.0554262365099,0.31567302,-0.90063246,0.30908124,16.37398,-10.92616,24.7975,67.0
1774823706.1276479,0.004071950912475586,2026-03-29T22:35:06.127,2026-03-29T18:35:06.127,-20968.92,-45314.729999999996,-76815.94499999999,-48408.479999999996,-8093.07,-16241.715,8445.51,-60958.755,-24.430009256303297,1.2960566016205541,19.642414821121534,42.64832097784871,22.62771197222494,0.3917858385540644,-64.20914241850903,-43.69519476775822,0.30541914,-0.86852805,0.30578535,15.4126,-17.762639999999998,18.861359999999998,67.0
1774823706.1276753,2.7418136596679688e-05,2026-03-29T22:35:06.127,2026-03-29T18:35:06.127,-20864.16,-45247.185,-76802.265,-48418.29,-8038.08,-16163.324999999999,8583.66,-60830.865,-1.708646588136708,13.613889407137172,14.08108101311585,28.94504731694953,15.203752799873868,-3.531582663061963,-47.93364458650717,-23.216536459779714,0.30541914,-0.86852805,0.30578535,15.4126,-17.762639999999998,18.861359999999998,67.0
1774823706.1318307,0.004155397415161133,2026-03-29T22:35:06.131,2026-03-29T18:35:06.131,-20900.969999999998,-45297.27,-76880.47499999999,-48583.485,-8166.0599999999995,-16249.275,8583.435,-60853.994999999995,22.9142901876537,19.054012136964257,1.8285759823303573,2.2113507543937283,1.0892307484274055,-5.672928292360713,-8.254039494829915,9.671135034678251,0.30541914,-0.86852805,0.30578535,15.4126,-17.762639999999998,18.861359999999998,67.0
1774823706.13186,2.9325485229492188e-05,2026-03-29T22:35:06.131,2026-03-29T18:35:06.131,-20961.045,-45308.61,-76869.675,-48633.479999999996,-8230.365,-16308.314999999999,8502.705,-60927.795,37.823546146678105,14.163661837814013,-12.42359298310483,-26.442846580408897,-13.957989688454333,-5.23178206048837,38.43558526573774,40.76454861688623,0.30541914,-0.86852805,0.30578535,15.4126,-17.762639999999998,18.861359999999998,67.0
1774823706.141695,0.009835004806518555,2026-03-29T22:35:06.141,2026-03-29T18:35:06.141,-20933.684999999998,-45324.314999999995,-76849.92,-48604.59,-8233.515,-16328.115,8484.435,-60896.295,35.49396856637062,0.9828173202611447,-22.519153013329078,-44.613857733996994,-23.54766166608179,-2.5627392282629065,71.12058960716632,55.48674981669223,0.30541914,-0.86852805,0.30578535,15.4126,-17.762639999999998,18.861359999999998,67.0
1774823706.1417289,3.3855438232421875e-05,2026-03-29T22:35:06.141,2026-03-29T18:35:06.141,-20948.13,-45355.68,-76867.515,-48570.659999999996,-8209.215,-16330.23,8465.13,-60896.115,16.297655567178918,-13.739560391913695,-23.485012951260305,-44.01395996444389,-23.386072714554693,1.0512208674728656,73.66384497268108,45.73431937063477,0.30541914,-0.86852805,0.30578535,15.4126,-17.762639999999998,18.861359999999998,67.0
1774823706.1417549,2.5987625122070312e-05,2026-03-29T22:35:06.141,2026-03-29T18:35:06.141,-20966.04,-45292.14,-76785.03,-48479.13,-8108.28,-16257.555,8382.96,-60942.149999999994,-11.319272721290217,-21.94446018244224,-13.976144070895707,-24.286272489567228,-13.220387085040972,4.002184066315673,42.73787502324215,14.228876692730893,0.30541914,-0.86852805,0.30578535,15.4126,-17.762639999999998,18.861359999999998,67.0
1774823706.1417673,1.239776611328125e-05,2026-03-29T22:35:06.141,2026-03-29T18:35:06.141,-20986.155,-45246.78,-76744.395,-48506.58,-8155.485,-16303.005,8228.52,-61034.715,-34.54920103606476,-18.59017310861532,2.6819149149349384,6.550871979954003,2.895429427772046,5.061892310265224,-9.6983191290859,-25.927780227001616,0.30541914,-0.86852805,0.30578535,15.4126,-17.762639999999998,18.861359999999998,67.0
1774823706.141782,1.4781951904296875e-05,2026-03-29T22:35:06.141,2026-03-29T18:35:06.141,-21055.86,-45282.195,-76735.665,-48500.009999999995,-8193.33,-16335.09,8118.36,-61139.744999999995,-42.20040896388178,-4.619639003329761,19.53144419653486,35.36156761997072,18.20638083609897,3.8851120604720815,-60.940782245603565,-56.669126522150776,0.30541914,-0.86852805,0.30578535,15.4126,-17.762639999999998,18.861359999999998,67.0
1774823706.1417944,1.239776611328125e-05,2026-03-29T22:35:06.141,2026-03-29T18:35:06.141,-20945.295,-45159.165,-76570.425,-48354.075,-8090.594999999999,-16238.925,8132.264999999999,-61061.805,-30.13589968614482,13.127049835379301,28.854219699639607,49.52773654460762,26.10288132924691,1.1085347149458782,-87.4244170623374,-63.13536147681212,0.30541914,-0.86852805,0.30578535,15.4126,-17.762639999999998,18.861359999999998,67.0
1774823706.147555,0.005760669708251953,2026-03-29T22:35:06.147,2026-03-29T18:35:06.147,-20880.63,-45139.77,-76565.83499999999,-48310.244999999995,-8032.815,-16164.539999999999,8278.785,-60950.115,-3.510707091399619,25.2092325864823,25.709193318500652,42.521951022769485,22.99833461445427,-1.977950522030602,-75.6239090843283,-40.88728563309259,0.31884684,-0.84899685,0.33666906,-15.931439999999998,-19.258119999999998,17.2438,67.0
1774823706.1475773,2.2172927856445312e-05,2026-03-29T22:35:06.147,2026-03-29T18:35:06.147,-20939.715,-45271.395,-76711.635,-48406.59,-8072.009999999999,-16144.154999999999,8612.955,-60887.97,25.4026254651076,24.526674975220654,10.514438015444332,16.93098413072562,9.970274638230302,-4.026537979605297,-28.899574177835845,1.3553267439039696,0.31884684,-0.84899685,0.33666906,-15.931439999999998,-19.258119999999998,17.2438,67.0
1774823706.1521003,0.004523038864135742,2026-03-29T22:35:06.152,2026-03-29T18:35:06.152,-20954.34,-45338.445,-76853.11499999999,-48523.005,-8151.21,-16195.904999999999,8776.935,-60853.68,42.903201966772095,10.352365405959326,-10.65949167937809,-16.479450879990946,-7.593438018202216,-4.222081455939833,33.15731024818689,45.04968078789615,0.31884684,-0.84899685,0.33666906,-15.931439999999998,-19.258119999999998,17.2438,67.0
1774823706.1521132,1.2874603271484375e-05,2026-03-29T22:35:06.152,2026-03-29T18:35:06.152,-20909.385,-45315.54,-76863.69,-48570.884999999995,-8167.32,-16210.755,8682.255,-60844.274999999994,40.4176669479802,-10.778707101103803,-28.447965652176382,-43.32906031275183,-22.23779997083911,-2.607660780184717,82.97021495574636,70.0158466839613,0.31884684,-0.84899685,0.33666906,-15.931439999999998,-19.258119999999998,17.2438,67.0
1774823706.1559682,0.003854990005493164,2026-03-29T22:35:06.155,2026-03-29T18:35:06.155,-20872.17,-45259.244999999995,-76771.935,-48506.939999999995,-8095.7699999999995,-16153.064999999999,8590.095,-60832.215,18.759534097138854,-28.026254235341476,-34.32223800099866,-51.860510246701274,-27.629368530622266,-0.011581648033843909,97.3323864004265,63.8413933349267,0.31884684,-0.84899685,0.33666906,-15.931439999999998,-19.258119999999998,17.2438,67.0
1774823706.1559813,1.3113021850585938e-05,2026-03-29T22:35:06.155,2026-03-29T18:35:06.155,-20943.18,-45355.455,-76854.95999999999,-48468.104999999996,-8092.125,-16184.07,8555.22,-60885.09,-12.049635612600625,-31.73762457869582,-24.67610483145988,-38.1183533920055,-21.311885921162666,2.372752259847505,68.29105401200076,28.083642809646065,0.31884684,-0.84899685,0.33666906,-15.931439999999998,-19.258119999999998,17.2438,67.0
1774823706.1652925,0.009311199188232422,2026-03-29T22:35:06.165,2026-03-29T18:35:06.165,-21026.114999999998,-45474.165,-76936.77,-48394.755,-8068.815,-16201.394999999999,8588.789999999999,-60892.244999999995,-37.429450275792504,-18.72149938118577,-2.9138672801331422,-7.772531589864577,-5.82027302260811,3.5449492235328943,7.422349293838765,-21.84600914115711,0.31884684,-0.84899685,0.33666906,-15.931439999999998,-19.258119999999998,17.2438,67.0
1774823706.1653275,3.504753112792969e-05,2026-03-29T22:35:06.165,2026-03-29T18:35:06.165,-21061.62,-45466.244999999995,-76921.065,-48468.689999999995,-8161.065,-16308.855,8418.33,-60967.665,-45.201989941912814,5.528833124991157,21.622647500927933,26.24867279165263,12.349958749380061,3.1284444167708685,-58.75851925364277,-63.352378853712565,0.31884684,-0.84899685,0.33666906,-15.931439999999998,-19.258119999999998,17.2438,67.0
1774823706.1653566,2.9087066650390625e-05,2026-03-29T22:35:06.165,2026-03-29T18:35:06.165,-20997.855,-45394.38,-76874.895,-48527.82,-8163.855,-16309.529999999999,8317.215,-60958.755,-31.517007645909157,29.069511195743253,37.62851151399767,49.310335194597315,25.489364779225284,1.480689625519881,-100.44859496584394,-76.98662738865899,0.31884684,-0.84899685,0.33666906,-15.931439999999998,-19.258119999999998,17.2438,67.0
1774823706.165367,1.0251998901367188e-05,2026-03-29T22:35:06.165,2026-03-29T18:35:06.165,-20876.219999999998,-45219.24,-76736.11499999999,-48452.67,-8053.424999999999,-16190.189999999999,8485.244999999999,-60813.54,-2.823103534411252,39.33724220180632,37.03924666544372,51.39880288134447,27.961863683200924,-0.5468704284891395,-98.10599889224449,-55.66724541271887,0.31884684,-0.84899685,0.33666906,-15.931439999999998,-19.258119999999998,17.2438,67.0
1774823706.1677732,0.0024063587188720703,2026-03-29T22:35:06.167,2026-03-29T18:35:06.167,-20723.715,-44974.979999999996,-76586.31,-48400.875,-8038.44,-16164.269999999999,8515.89,-60776.549999999996,27.150973598151776,29.75218910809509,19.072407862691513,31.473432840481397,18.62179256047186,-2.055921851371152,-51.679355586775486,-8.370536317651705,0.34313877,-0.90795666,0.34252842,-3.57084,-15.04636,20.89094,67.0
1774823706.1677911,1.7881393432617188e-05,2026-03-29T22:35:06.167,2026-03-29T18:35:06.167,-20794.545,-45083.88,-76714.02,-48529.71,-8198.55,-16318.035,8355.015,-60857.189999999995,44.00380915948897,3.6616866848358365,-8.906569351102808,-2.0485646924686987,1.3252016234965476,-2.5187016803185265,18.873743056145827,43.640511172950994,0.34313877,-0.90795666,0.34252842,-3.57084,-15.04636,20.89094,67.0
1774823706.1721363,0.0043451786041259766,2026-03-29T22:35:06.172,2026-03-29T18:35:06.172,-20913.165,-45273.509999999995,-76856.895,-48602.295,-8253.765,-16362.99,8383.23,-60842.97,39.66279782557153,-26.644351076123264,-34.333446642720915,-34.88312135505827,-16.682105247104786,-1.9611586844800502,82.24069462547854,76.47505063216836,0.34313877,-0.90795666,0.34252842,-3.57084,-15.04636,20.89094,67.0
1774823706.1721692,3.2901763916015625e-05,2026-03-29T22:35:06.172,2026-03-29T18:35:06.172,-20852.325,-45245.61,-76765.995,-48507.795,-8146.71,-16236.945,8524.98,-60754.634999999995,16.34125504351612,-45.68296109255408,-45.06608338544217,-52.993212565529916,-27.81323168635368,-0.8453144322395973,109.79602774687181,74.73044853720826,0.34313877,-0.90795666,0.34252842,-3.57084,-15.04636,20.89094,67.0
1774823706.1763363,0.004167079925537109,2026-03-29T22:35:06.176,2026-03-29T18:35:06.176,-20713.68,-45148.545,-76591.485,-48336.255,-7948.259999999999,-16013.43,8737.289999999999,-60619.454999999994,-14.527784262378445,-42.620878192352514,-35.17425884153826,-48.594810476093194,-27.33531374390189,0.24949453732434573,88.66972090465623,38.82905612569939,0.34313877,-0.90795666,0.34252842,-3.57084,-15.04636,20.89094,67.0
1774823706.1763575,2.1219253540039062e-05,2026-03-29T22:35:06.176,2026-03-29T18:35:06.176,-20817.809999999998,-45204.57,-76587.165,-48300.435,-7927.5599999999995,-16000.83,8715.465,-60675.345,-37.89431494688597,-17.26322739588146,-8.143820889897697,-23.485671034960895,-15.367696760590674,0.9452692392006912,27.81297046835164,-14.971110080064417,0.34313877,-0.90795666,0.34252842,-3.57084,-15.04636,20.89094,67.0
1774823706.1813352,0.004977703094482422,2026-03-29T22:35:06.181,2026-03-29T18:35:06.181,-20960.774999999998,-45212.534999999996,-76644.94499999999,-48403.17,-8089.92,-16204.949999999999,8488.17,-60829.92,-42.4871559938591,19.05765559218642,24.204562003774978,11.713202204265691,3.1503612092891142,1.2017310741410459,-45.8243502479904,-62.01015816620464,0.34313877,-0.90795666,0.34252842,-3.57084,-15.04636,20.89094,67.0
1774823706.181374,3.886222839355469e-05,2026-03-29T22:35:06.181,2026-03-29T18:35:06.181,-20918.43,-45219.555,-76726.215,-48497.265,-8214.48,-16351.965,8527.68,-60841.215,-26.34446927459659,48.50292959792211,46.83922441603619,42.06653912196388,20.50525656041142,1.21395989958143,-99.36129994932166,-80.67634949243475,0.34313877,-0.90795666,0.34252842,-3.57084,-15.04636,20.89094,67.0
1774823706.183388,0.0020139217376708984,2026-03-29T22:35:06.183,2026-03-29T18:35:06.183,-20978.415,-45343.979999999996,-76779.045,-48431.744999999995,-8213.445,-16437.149999999998,8400.105,-60887.97,2.2746996371040256,55.456270482508465,48.48698374215754,54.66067378900786,29.416138739112977,1.16989815257555,-108.83602783510327,-62.49022724694192,0.34313877,-0.90795666,0.34252842,-3.57084,-15.04636,20.89094,67.0
1774823706.1833937,5.7220458984375e-06,2026-03-29T22:35:06.183,2026-03-29T18:35:06.183,-20889.855,-45248.13,-76718.925,-48314.43,-8107.065,-16389.45,8109.719999999999,-60844.185,29.0589482899488,34.70149270454998,27.226373360228408,44.08229162997003,26.075060357051704,1.0547567870100887,-70.05505616802712,-16.045912788620925,0.34313877,-0.90795666,0.34252842,-3.57084,-15.04636,20.89094,67.0
1774823706.188049,0.004655361175537109,2026-03-29T22:35:06.188,2026-03-29T18:35:06.188,-20727.18,-45167.265,-76803.345,-48441.915,-8167.005,-16380.045,8259.75,-60639.479999999996,40.811736808588684,-5.194936981583728,-8.058501690411235,14.72933354058288,11.761906454347015,0.6540253579238353,-0.4706685060012702,37.06637408777977,0.343077735,-0.970151325,0.33373938000000003,36.30354,-19.410719999999998,20.55522,67.0
1774823706.1880765,2.7418136596679688e-05,2026-03-29T22:35:06.188,2026-03-29T18:35:06.188,-20815.965,-45365.13,-77034.06,-48660.299999999996,-8311.365,-16418.88,8694.81,-60581.34,32.023416055697325,-45.336280094429306,-41.30941495458682,-21.018756433379927,-7.640951174593392,-0.23343209522313108,68.76686878835055,72.4174460909649,0.343077735,-0.970151325,0.33373938000000003,36.30354,-19.410719999999998,20.55522,67.0
1774823706.1924753,0.004398822784423828,2026-03-29T22:35:06.192,2026-03-29T18:35:06.192,-20953.53,-45563.445,-77131.665,-48735.314999999995,-8332.065,-16382.295,8761.86,-60661.53,7.545760433842611,-65.44006980851256,-56.57062245122941,-48.00689327782033,-24.051041958451286,-1.5186235150711944,106.9225438628659,74.14472418790729,0.343077735,-0.970151325,0.33373938000000003,36.30354,-19.410719999999998,20.55522,67.0
1774823706.1924956,2.0265579223632812e-05,2026-03-29T22:35:06.192,2026-03-29T18:35:06.192,-20832.975,-45520.47,-77045.355,-48664.619999999995,-8279.1,-16347.779999999999,8538.975,-60522.119999999995,-19.970046986081254,-54.04275049611979,-45.63075634964718,-54.70719573552784,-30.533741835067712,-2.6991412534381176,97.484749900965,42.20394622172137,0.343077735,-0.970151325,0.33373938000000003,36.30354,-19.410719999999998,20.55522,67.0
1774823706.1960359,0.0035402774810791016,2026-03-29T22:35:06.196,2026-03-29T18:35:06.196,-20940.344999999998,-45377.235,-76882.635,-48476.205,-8129.205,-16225.019999999999,8462.07,-60686.369999999995,-36.55997298256572,-14.84480346797809,-12.379053650944812,-38.131193411018714,-24.223118961247202,-3.032813457311407,45.387842092198355,-7.912512424823228,0.343077735,-0.970151325,0.33373938000000003,36.30354,-19.410719999999998,20.55522,67.0
1774823706.1960528,1.6927719116210938e-05,2026-03-29T22:35:06.196,2026-03-29T18:35:06.196,-21157.695,-45262.08,-76696.33499999999,-48326.805,-8004.465,-16136.055,8483.13,-61066.17,-34.05166274728685,34.246991815038996,28.407376534141505,-5.171411326192612,-7.595095246301474,-1.965320804416298,-25.548823862195167,-52.74192711214356,0.343077735,-0.970151325,0.33373938000000003,36.30354,-19.410719999999998,20.55522,67.0
1774823706.1999514,0.00389862060546875,2026-03-29T22:35:06.199,2026-03-29T18:35:06.199,-21134.204999999998,-45411.615,-76905.405,-48443.445,-8068.094999999999,-16201.71,8392.455,-61026.165,-14.164269896188204,69.30398956658055,57.576783180064254,30.229636686765495,12.473001029987387,0.4213638027543651,-83.64541692598294,-71.98498052151919,0.343077735,-0.970151325,0.33373938000000003,36.30354,-19.410719999999998,20.55522,67.0
1774823706.1999695,1.811981201171875e-05,2026-03-29T22:35:06.199,2026-03-29T18:35:06.199,-21076.469999999998,-45543.96,-77081.805,-48483.72,-8091.945,-16230.015,8385.795,-60918.75,12.484161478432872,72.04557814474234,60.574959482476984,52.939360578776345,27.517529956563234,3.2411693499246774,-103.68773776337076,-57.856937082516005,0.343077735,-0.970151325,0.33373938000000003,36.30354,-19.410719999999998,20.55522,67.0
1774823706.2036903,0.0037207603454589844,2026-03-29T22:35:06.203,2026-03-29T18:35:06.203,-20936.295,-45517.365,-76935.555,-48262.005,-7931.025,-16121.564999999999,8600.76,-60732.854999999996,31.93865542363762,39.29785858749365,34.68524417065331,53.086246777029125,31.045730968440587,5.100408689841478,-77.99401788727751,-18.273898587593777,0.343077735,-0.970151325,0.33373938000000003,36.30354,-19.410719999999998,20.55522,67.0
1774823706.2037156,2.5272369384765625e-05,2026-03-29T22:35:06.203,2026-03-29T18:35:06.203,-20982.059999999998,-45513.0,-76846.545,-48380.985,-8046.945,-16210.394999999999,8654.535,-60672.915,34.163519183998766,-14.626875513820542,-9.053817777438327,30.368830405469907,21.351880940099477,4.783495346563049,-19.305249634202266,27.452146208914904,0.343077735,-0.970151325,0.33373938000000003,36.30354,-19.410719999999998,20.55522,67.0
1774823706.208033,0.004317522048950195,2026-03-29T22:35:06.208,2026-03-29T18:35:06.208,-21128.445,-45424.17,-76813.605,-48542.174999999996,-8168.49,-16289.369999999999,8488.935,-60829.649999999994,18.237965649313374,-64.17294456200095,-50.46814677393741,-5.660984858878972,2.3681039155306784,1.9936556364216131,45.560688136790525,58.11475701469026,0.318297525,-0.96105711,0.315856125,74.75874,-30.52,30.19954,67.0
1774823706.20806,2.6941299438476562e-05,2026-03-29T22:35:06.208,2026-03-29T18:35:06.208,-21100.545,-45406.53,-76772.205,-48501.27,-8158.1849999999995,-16302.644999999999,8335.755,-60845.759999999995,-7.2066629168296155,-84.69320956943362,-69.52058426938203,-39.55237244485907,-17.88411541917031,-2.2842567280629886,88.1192182016448,60.60154764827257,0.318297525,-0.96105711,0.315856125,74.75874,-30.52,30.19954,67.0
1774823706.2118125,0.003752470016479492,2026-03-29T22:35:06.211,2026-03-29T18:35:06.211,-20933.505,-45247.455,-76538.655,-48303.134999999995,-8017.245,-16198.785,8355.105,-60728.805,-28.544501867262063,-64.71313682268904,-55.99270960350595,-56.54713617648684,-30.660902638829008,-6.0843154943305375,90.87998234439797,35.59525783650693,0.318297525,-0.96105711,0.315856125,74.75874,-30.52,30.19954,67.0
1774823706.211847,3.457069396972656e-05,2026-03-29T22:35:06.211,2026-03-29T18:35:06.211,-20861.82,-45077.58,-76546.845,-48323.655,-8026.785,-16211.564999999999,8528.805,-60665.085,-34.34343193901016,-12.200059431072342,-14.90500553887877,-49.021233911835665,-30.28545776602301,-7.36700311449561,54.5584853755725,-3.5384718391764087,0.318297525,-0.96105711,0.315856125,74.75874,-30.52,30.19954,67.0
1774823706.215952,0.0041048526763916016,2026-03-29T22:35:06.215,2026-03-29T18:35:06.215,-20841.84,-45027.27,-76655.06999999999,-48479.805,-8153.639999999999,-16295.4,8582.76,-60718.634999999995,-21.430314025463172,48.53507708122706,35.17401380092639,-19.96462753785133,-16.71579912744426,-5.115852816679666,-3.1474722429471345,-37.81138738995964,0.318297525,-0.96105711,0.315856125,74.75874,-30.52,30.19954,67.0
1774823706.2159736,2.1696090698242188e-05,2026-03-29T22:35:06.215,2026-03-29T18:35:06.215,-20884.545,-45104.04,-76712.44499999999,-48533.49,-8171.82,-16255.125,8527.005,-60711.119999999995,3.363442749377311,88.14680489209775,70.47069296297815,18.112928995263605,4.289813778828299,-0.034442899722103903,-56.245340886110924,-51.921584534779775,0.318297525,-0.96105711,0.315856125,74.75874,-30.52,30.19954,67.0
1774823706.2213652,0.005391597747802734,2026-03-29T22:35:06.221,2026-03-29T18:35:06.221,-20820.87,-45030.689999999995,-76584.015,-48430.305,-8089.29,-16189.605,8366.985,-60687.854999999996,26.73821162303912,86.49114575245301,73.28018618400988,48.5068752972936,23.57617259676804,5.601050543010351,-82.30654575003086,-41.20524403841036,0.318297525,-0.96105711,0.315856125,74.75874,-30.52,30.19954,67.0
1774823706.2214272,6.198883056640625e-05,2026-03-29T22:35:06.221,2026-03-29T18:35:06.221,-20703.645,-44934.615,-76419.27,-48261.195,-7971.255,-16126.019999999999,8343.585,-60591.78,35.941753238664866,42.855915427492036,40.83221833714946,57.64383062176647,32.585761810028096,8.962499162763386,-72.01563532802429,-13.016308613293203,0.318297525,-0.96105711,0.315856125,74.75874,-30.52,30.19954,67.0
1774823706.2241187,0.002691507339477539,2026-03-29T22:35:06.224,2026-03-29T18:35:06.224,-20914.065,-45215.009999999995,-76656.69,-48457.439999999995,-8175.465,-16320.15,8373.6,-60727.59,25.605152523132958,-23.007788997277174,-12.684742069871362,41.20371139653977,27.20490289882076,8.109192673947614,-32.30690158698348,17.77652765814102,0.318297525,-0.96105711,0.315856125,74.75874,-30.52,30.19954,67.0
1774823706.2241344,1.5735626220703125e-05,2026-03-29T22:35:06.224,2026-03-29T18:35:06.224,-20986.065,-45395.055,-76774.455,-48533.58,-8238.465,-16358.849999999999,8521.875,-60723.45,0.7773461696236915,-79.87008642962807,-62.25418062832973,6.252692787513976,9.712778820386164,3.1072519789944613,17.85504683542097,36.5776396749704,0.318297525,-0.96105711,0.315856125,74.75874,-30.52,30.19954,67.0
1774823706.231338,0.007203578948974609,2026-03-29T22:35:06.231,2026-03-29T18:35:06.231,-20924.145,-45346.545,-76656.59999999999,-48370.32,-8056.844999999999,-16177.904999999999,8568.494999999999,-60624.18,-25.522548857706777,-99.91852078280326,-83.71052451455513,-31.702277918488992,-12.121124213503974,-3.8131403773148125,56.62046001925655,36.07724825850613,0.33636388500000003,-0.949155285,0.36840726,64.44297999999999,-19.50228,34.823319999999995,67.0
1774823706.2313588,2.0742416381835938e-05,2026-03-29T22:35:06.231,2026-03-29T18:35:06.231,-21013.605,-45333.18,-76692.19499999999,-48404.384999999995,-8072.1449999999995,-16168.41,8625.285,-60623.549999999996,-39.05641321415261,-72.4217265372767,-65.5232178813376,-55.560918009019765,-28.471041895919356,-9.242570170488442,68.87506463006594,19.07731130070495,0.33636388500000003,-0.949155285,0.36840726,64.44297999999999,-19.50228,34.823319999999995,67.0
1774823706.2330327,0.0016739368438720703,2026-03-29T22:35:06.233,2026-03-29T18:35:06.233,-21000.6,-45264.689999999995,-76839.39,-48581.009999999995,-8216.279999999999,-16274.07,8626.5,-60659.685,-31.94772226117339,-9.419913705932226,-14.937171502278291,-54.376306806323655,-31.91487996713164,-10.292672919983424,52.049976252639766,-3.9544632842292367,0.33636388500000003,-0.949155285,0.36840726,64.44297999999999,-19.50228,34.823319999999995,67.0
1774823706.233047,1.430511474609375e-05,2026-03-29T22:35:06.233,2026-03-29T18:35:06.233,-20982.51,-45306.494999999995,-76940.19,-48723.795,-8335.215,-16360.335,8493.164999999999,-60708.735,-7.100463277600839,59.55652903692117,44.778920692386244,-28.475703413523355,-20.881105212195163,-6.157605355704633,15.932945081958518,-20.947426284131293,0.33636388500000003,-0.949155285,0.36840726,64.44297999999999,-19.50228,34.823319999999995,67.0
1774823706.2429602,0.009913206100463867,2026-03-29T22:35:06.242,2026-03-29T18:35:06.242,-21042.495,-45373.14,-76912.37999999999,-48617.64,-8281.755,-16378.289999999999,8103.69,-60809.354999999996,22.966257973335463,101.42336808817969,85.01430218894411,10.482368267861373,-0.4477673546780442,1.3142935387017665,-22.809652127649308,-24.520826987901483,0.33636388500000003,-0.949155285,0.36840726,64.44297999999999,-19.50228,34.823319999999995,67.0
1774823706.242987,2.6702880859375e-05,2026-03-29T22:35:06.242,2026-03-29T18:35:06.242,-20987.1,-45330.119999999995,-76778.595,-48407.67,-8143.695,-16318.439999999999,8180.46,-60784.29,42.41379116748674,95.51577354085425,85.53765892208786,44.68652091543611,19.946849409795607,8.421093005983938,-48.407229027842774,-15.23706841207819,0.33636388500000003,-0.949155285,0.36840726,64.44297999999999,-19.50228,34.823319999999995,67.0
1774823706.243012,2.5033950805664062e-05,2026-03-29T22:35:06.243,2026-03-29T18:35:06.243,-20874.555,-45208.665,-76606.56,-48254.939999999995,-7979.13,-16141.095,8372.97,-60640.38,40.34713458012547,43.839864872553036,44.67051214551398,58.32201461317624,30.873725148285455,11.448864484636411,-52.38919777933392,-0.3583505799227962,0.33636388500000003,-0.949155285,0.36840726,64.44297999999999,-19.50228,34.823319999999995,67.0
1774823706.243023,1.0967254638671875e-05,2026-03-29T22:35:06.243,2026-03-29T18:35:06.243,-20791.71,-45140.895,-76576.185,-48230.009999999995,-7877.5199999999995,-15968.564999999999,8734.725,-60453.36,16.762876605672428,-29.50722863244372,-19.206599209374712,44.96173420203882,27.337055668119653,8.636638630664267,-36.02714320275006,10.874079362057127,0.33636388500000003,-0.949155285,0.36840726,64.44297999999999,-19.50228,34.823319999999995,67.0
1774823706.2430353,1.239776611328125e-05,2026-03-29T22:35:06.243,2026-03-29T18:35:06.243,-20937.78,-45321.884999999995,-76870.26,-48492.27,-8107.11,-16165.619999999999,8985.779999999999,-60508.305,-17.011021903796724,-89.65152762630755,-75.88659750598319,10.710087832542639,11.14918219947827,1.2179759416910683,-8.342178124943288,12.618281950781817,0.33636388500000003,-0.949155285,0.36840726,64.44297999999999,-19.50228,34.823319999999995,67.0
1774823706.243044,8.58306884765625e-06,2026-03-29T22:35:06.243,2026-03-29T18:35:06.243,-21060.18,-45488.475,-77072.12999999999,-48668.4,-8325.135,-16395.75,8749.485,-60626.43,-43.79171593399427,-107.6453458914331,-97.64077920166186,-28.485767371081604,-9.912477141564484,-7.07709888925713,18.754759077437523,5.454084038399447,0.33636388500000003,-0.949155285,0.36840726,64.44297999999999,-19.50228,34.823319999999995,67.0
1774823706.2506247,0.007580757141113281,2026-03-29T22:35:06.250,2026-03-29T18:35:06.250,-20934.135,-45373.32,-76939.73999999999,-48566.34,-8238.42,-16329.914999999999,8499.24,-60579.405,-49.27107402675003,-74.50551542401612,-72.81210150855932,-54.221263442017204,-25.808662543514803,-11.883347013350928,35.609581686278446,-4.509092911218942,0.330870735,-0.891172035,0.367125525,24.263399999999997,-20.7536,38.34838,67.0
1774823706.2506535,2.8848648071289062e-05,2026-03-29T22:35:06.250,2026-03-29T18:35:06.250,-20912.535,-45336.33,-76903.33499999999,-48544.155,-8216.235,-16332.48,8398.17,-60577.829999999994,-29.56594110367699,-5.731439982783623,-12.01688385535714,-54.313034462069474,-29.05176455964371,-10.501877259441724,38.023746461545194,-9.740557894454463,0.330870735,-0.891172035,0.367125525,24.263399999999997,-20.7536,38.34838,67.0
1774823706.25068,2.6464462280273438e-05,2026-03-29T22:35:06.250,2026-03-29T18:35:06.250,-20939.85,-45326.34,-76888.08,-48574.53,-8242.335,-16345.215,8563.32,-60581.744999999995,6.361848590953018,65.98457193749407,56.32918860252138,-28.661042080752225,-18.308943684108254,-3.427895723367711,27.591380687904323,-6.113533676323613,0.330870735,-0.891172035,0.367125525,24.263399999999997,-20.7536,38.34838,67.0
1774823706.2506895,9.5367431640625e-06,2026-03-29T22:35:06.250,2026-03-29T18:35:06.250,-20941.38,-45296.369999999995,-76870.89,-48631.59,-8288.235,-16399.079999999998,8508.51,-60605.82,40.829196973333524,106.40927970858526,99.31461455490029,10.567330477750838,0.9716497907752772,5.760174981564946,9.748249256931915,4.412115525406264,0.330870735,-0.891172035,0.367125525,24.263399999999997,-20.7536,38.34838,67.0
1774823706.255955,0.005265474319458008,2026-03-29T22:35:06.255,2026-03-29T18:35:06.255,-20846.655,-45228.869999999995,-76774.455,-48526.65,-8209.08,-16353.765,8401.23,-60543.405,56.18027128870341,96.23985564318146,95.42662194500936,44.62985293800392,19.24389319401136,12.177833144841234,-9.01006176679865,14.847842740246465,0.330870735,-0.891172035,0.367125525,24.263399999999997,-20.7536,38.34838,67.0
1774823706.255982,2.6941299438476562e-05,2026-03-29T22:35:06.255,2026-03-29T18:35:06.255,-20792.07,-45227.159999999996,-76637.97,-48228.119999999995,-7975.755,-16157.654999999999,8331.21,-60501.104999999996,43.81103868343983,40.41118593199164,45.335841739698935,57.14700182738716,27.563246755444695,12.207158479949213,-23.332656101877284,17.4050337622703,0.330870735,-0.891172035,0.367125525,24.263399999999997,-20.7536,38.34838,67.0
1774823706.2605793,0.00459742546081543,2026-03-29T22:35:06.260,2026-03-29T18:35:06.260,-20805.344999999998,-45349.515,-76786.92,-48196.485,-7948.665,-16158.465,8197.83,-60502.454999999994,8.862437195625159,-34.289048789893776,-27.847943867337467,42.02575668134721,21.997164232537397,5.51817796556053,-29.990011592522954,8.46256084685045,0.330870735,-0.891172035,0.367125525,24.263399999999997,-20.7536,38.34838,67.0
1774823706.2606137,3.4332275390625e-05,2026-03-29T22:35:06.260,2026-03-29T18:35:06.260,-21049.2,-45641.43,-77185.215,-48358.485,-8017.065,-16245.359999999999,8088.03,-60683.354999999996,-31.932353433580325,-92.14905781422172,-89.25538767087683,6.513599422431464,5.557136568208265,-4.581400186786133,-27.857991601531523,-8.664477151094918,0.330870735,-0.891172035,0.367125525,24.263399999999997,-20.7536,38.34838,67.0
1774823706.27874,0.018126249313354492,2026-03-29T22:35:06.278,2026-03-29T18:35:06.278,-21118.725,-45657.54,-77261.22,-48614.85,-8230.86,-16407.675,8214.75,-60740.729999999996,-58.33717069611921,-105.7314428944207,-108.92960908774052,-32.182927063537875,-13.326845036657343,-12.745010662887593,-17.600762468883055,-24.934631167221703,0.330870735,-0.891172035,0.367125525,24.263399999999997,-20.7536,38.34838,67.0
1774823706.2787657,2.574920654296875e-05,2026-03-29T22:35:06.278,2026-03-29T18:35:06.278,-20960.954999999998,-45414.945,-76987.17,-48663.225,-8281.395,-16426.89,8433.72,-60605.1,-56.69350022074757,-69.00224603906612,-76.48943130438344,-55.17440734222866,-25.050573912980788,-14.374917667543704,-1.5646976359145388,-30.33558413310424,0.330870735,-0.891172035,0.367125525,24.263399999999997,-20.7536,38.34838,67.0
1774823706.2787998,3.409385681152344e-05,2026-03-29T22:35:06.278,2026-03-29T18:35:06.278,-20939.895,-45214.515,-76649.175,-48549.555,-8237.16,-16390.44,8700.57,-60584.265,-26.951190461021387,-0.05533114527615821,-6.579654131058117,-51.098430886154375,-23.687257457251626,-8.158526837799313,16.183856614806075,-19.690816816578987,0.308776065,-0.83276154,0.366637245,-35.021699999999996,-31.710279999999997,43.414699999999996,67.0
1774823706.27881,1.0251998901367188e-05,2026-03-29T22:35:06.278,2026-03-29T18:35:06.278,-20902.68,-45082.665,-76458.95999999999,-48413.25,-8174.07,-16313.22,8773.695,-60550.29,16.95772186224472,67.81814937052822,67.74466455911482,-21.77166527762272,-10.004895030689942,3.0270735308046772,30.22779918816914,3.732349302610079,0.308776065,-0.83276154,0.366637245,-35.021699999999996,-31.710279999999997,43.414699999999996,67.0
1774823706.2788222,1.2159347534179688e-05,2026-03-29T22:35:06.278,2026-03-29T18:35:06.278,-20900.34,-45117.0,-76481.955,-48350.07,-8102.745,-16215.119999999999,8676.135,-60560.055,53.72818053882697,102.29738797095436,110.71037882205346,18.544289975157945,8.89548918338353,13.418092008861029,35.09846885215608,29.0409941493278,0.308776065,-0.83276154,0.366637245,-35.021699999999996,-31.710279999999997,43.414699999999996,67.0
1774823706.278831,8.821487426757812e-06,2026-03-29T22:35:06.278,2026-03-29T18:35:06.278,-20841.885,-45154.485,-76604.715,-48454.515,-8167.094999999999,-16272.585,8638.02,-60501.375,65.10108917203904,87.5418092438652,101.11357006996971,50.00536539403993,23.174236082421093,17.29617350449855,27.43415871402154,42.874989401097075,0.308776065,-0.83276154,0.366637245,-35.021699999999996,-31.710279999999997,43.414699999999996,67.0
1774823706.278842,1.0967254638671875e-05,2026-03-29T22:35:06.278,2026-03-29T18:35:06.278,-20930.399999999998,-45289.485,-76827.42,-48603.284999999996,-8286.525,-16409.52,8453.385,-60584.265,44.96045990680552,31.546810458006806,42.811927372988116,56.89845897815312,25.29006385017286,12.068756657132546,8.12903453392125,36.42121386157832,0.308776065,-0.83276154,0.366637245,-35.021699999999996,-31.710279999999997,43.414699999999996,67.0
1774823706.278851,9.059906005859375e-06,2026-03-29T22:35:06.278,2026-03-29T18:35:06.278,-20949.03,-45346.409999999996,-76864.23,-48525.615,-8233.425,-16380.314999999999,8298.585,-60625.034999999996,2.562559734541686,-38.10482341168683,-36.78588138380761,35.46608595597197,13.928273384864507,-0.14029562167635345,-16.835380713557914,10.616104416445861,0.308776065,-0.83276154,0.366637245,-35.021699999999996,-31.710279999999997,43.414699999999996,67.0
1774823706.2817333,0.002882242202758789,2026-03-29T22:35:06.281,2026-03-29T18:35:06.281,-20954.925,-45408.78,-76847.48999999999,-48383.729999999996,-8108.325,-16258.005,8378.01,-60598.439999999995,-41.78529472017519,-87.86614438979187,-99.66577579147078,-4.050049586472954,-5.208416856639181,-13.320390379120436,-37.85343327219595,-23.4021961115374,0.308776065,-0.83276154,0.366637245,-35.021699999999996,-31.710279999999997,43.414699999999996,67.0
1774823706.281793,5.984306335449219e-05,2026-03-29T22:35:06.281,2026-03-29T18:35:06.281,-21071.655,-45483.705,-76911.39,-48395.115,-8090.099999999999,-16224.3,8487.72,-60679.979999999996,-66.5469981333214,-94.47529750459651,-115.44415407308504,-42.25457777478116,-22.209957702994508,-20.51865315069262,-45.362180345671646,-49.18795304706541,0.308776065,-0.83276154,0.366637245,-35.021699999999996,-31.710279999999997,43.414699999999996,67.0
1774823706.2836385,0.0018453598022460938,2026-03-29T22:35:06.283,2026-03-29T18:35:06.283,-21016.844999999998,-45469.35,-76921.245,-48322.755,-7992.585,-16144.244999999999,8504.82,-60605.549999999996,-59.487041056828154,-55.91725209774852,-76.10482343039493,-60.05814347341535,-28.00239330917872,-17.458984505689113,-34.32696517933536,-53.03487151928631,0.308776065,-0.83276154,0.366637245,-35.021699999999996,-31.710279999999997,43.414699999999996,67.0
1774823706.283651,1.2636184692382812e-05,2026-03-29T22:35:06.283,2026-03-29T18:35:06.283,-20981.88,-45442.71,-76837.5,-48334.455,-7993.98,-16161.255,8243.73,-60565.14,-23.727772849103815,8.106184332764233,-0.060342193266241954,-48.15507365338387,-19.08600235573065,-4.966121242169175,-7.38253847991876,-31.197517679348497,0.308776065,-0.83276154,0.366637245,-35.021699999999996,-31.710279999999997,43.414699999999996,67.0
1774823706.2881217,0.0044705867767333984,2026-03-29T22:35:06.288,2026-03-29T18:35:06.288,-20840.85,-45187.965,-76625.50499999999,-48385.755,-8041.545,-16176.42,8408.654999999999,-60486.03,23.668472224745173,66.20481369699748,76.51639353120743,-11.830476727260717,0.4722103382340325,11.142054151414783,25.243417460394564,7.492052436943555,0.28784106,-0.815366565,0.34472568,-44.29978,-34.9454,32.168079999999996,67.0
1774823706.2881484,2.6702880859375e-05,2026-03-29T22:35:06.288,2026-03-29T18:35:06.288,-20677.905,-45096.57,-76611.105,-48461.939999999995,-8123.4,-16211.205,8623.845,-60320.43,59.928631117250674,90.73182997101658,116.98396370360794,31.368566830232496,20.887633394823755,22.773193357507264,49.5241909731356,45.22467660396027,0.28784106,-0.815366565,0.34472568,-44.29978,-34.9454,32.168079999999996,67.0
1774823706.2922769,0.004128456115722656,2026-03-29T22:35:06.292,2026-03-29T18:35:06.292,-20706.39,-45166.229999999996,-76626.495,-48422.97,-8142.075,-16233.119999999999,8686.89,-60254.774999999994,67.60004836242675,71.00954870691257,101.83887180841084,60.08090448752479,31.510365477831797,23.613466413403522,53.78660615995109,63.54648382058832,0.28784106,-0.815366565,0.34472568,-44.29978,-34.9454,32.168079999999996,67.0
1774823706.2922916,1.4781951904296875e-05,2026-03-29T22:35:06.292,2026-03-29T18:35:06.292,-20958.975,-45222.525,-76671.495,-48392.729999999996,-8162.955,-16267.994999999999,8557.335,-60522.165,43.000451917660754,17.99005127544362,38.13941197096735,59.63839937202225,26.28725317225347,12.48556025165717,34.46427436826449,52.46397579499853,0.28784106,-0.815366565,0.34472568,-44.29978,-34.9454,32.168079999999996,67.0
1774823706.2958152,0.003523588180541992,2026-03-29T22:35:06.295,2026-03-29T18:35:06.295,-20980.934999999998,-45225.9,-76737.51,-48424.185,-8181.2699999999995,-16278.705,8516.61,-60637.32,-2.0251740927973105,-41.68543327415626,-43.81898801807015,29.479275104469846,7.062336245913483,-5.752457479849432,-1.441078765603664,15.796791176983616,0.28784106,-0.815366565,0.34472568,-44.29978,-34.9454,32.168079999999996,67.0
1774823706.2958415,2.6226043701171875e-05,2026-03-29T22:35:06.295,2026-03-29T18:35:06.295,-20987.55,-45333.09,-76888.035,-48577.77,-8276.4,-16340.355,8475.255,-60579.854999999996,-45.87196137216049,-79.05305185766882,-104.99303288626714,-16.25430142103364,-17.03674950400203,-22.346251112210744,-38.74071771888214,-30.050369483854187,0.28784106,-0.815366565,0.34472568,-44.29978,-34.9454,32.168079999999996,67.0
1774823706.302226,0.006384611129760742,2026-03-29T22:35:06.302,2026-03-29T18:35:06.302,-20886.48,-45232.29,-76838.175,-48596.985,-8229.285,-16297.605,8353.664999999999,-60521.04,-67.62830404956199,-76.91358949349173,-116.27541039429441,-55.36393226826102,-33.9449624394333,-28.871340555744958,-60.564428327942,-63.54945204687765,0.28784106,-0.815366565,0.34472568,-44.29978,-34.9454,32.168079999999996,67.0
1774823706.3022375,1.1444091796875e-05,2026-03-29T22:35:06.302,2026-03-29T18:35:06.302,-20841.93,-45163.619999999995,-76756.5,-48535.244999999995,-8131.455,-16236.99,8215.244999999999,-60534.585,-57.11801810298296,-37.771939536444904,-72.39020925076215,-68.3551296156025,-34.66252318991111,-21.492823395546026,-56.162888621834206,-68.2924635556441,0.28784106,-0.815366565,0.34472568,-44.29978,-34.9454,32.168079999999996,67.0
1774823706.3042746,0.00203704833984375,2026-03-29T22:35:06.304,2026-03-29T18:35:06.304,-20887.605,-45191.564999999995,-76702.995,-48489.615,-8102.429999999999,-16208.055,8286.3,-60569.954999999994,-19.679405826882434,18.04491367601464,5.656205077208891,-48.09508127564722,-17.938503008410752,-3.1076307949794084,-26.31961815441628,-41.08405123778017,0.28784106,-0.815366565,0.34472568,-44.29978,-34.9454,32.168079999999996,67.0
1774823706.30429,1.5497207641601562e-05,2026-03-29T22:35:06.304,2026-03-29T18:35:06.304,-20930.445,-45257.49,-76721.4,-48511.755,-8194.14,-16297.425,8525.43,-60527.88,26.569003961701533,62.86724686136322,80.69854938351004,-3.600467939111415,8.767364062083299,17.792525661719832,16.396524511300484,6.1294492317279925,0.28784106,-0.815366565,0.34472568,-44.29978,-34.9454,32.168079999999996,67.0
1774823706.3080328,0.003742694854736328,2026-03-29T22:35:06.308,2026-03-29T18:35:06.308,-20879.28,-45220.14,-76688.50499999999,-48447.854999999996,-8175.465,-16295.58,8621.64,-60456.645,59.56360377027545,75.37998104403599,117.19778462451214,44.01554820171792,32.65321976337208,31.09137878559893,52.95608000169516,51.58957049062906,0.3002922,-0.87267843,0.36675931500000003,0.74774,-21.608159999999998,21.5929,67.0
1774823706.3080504,1.7642974853515625e-05,2026-03-29T22:35:06.308,2026-03-29T18:35:06.308,-20890.395,-45256.814999999995,-76729.05,-48465.72,-8173.215,-16270.019999999999,8676.09,-60434.954999999994,63.89224701196722,50.75891099749996,98.13409693181784,71.5989339458824,41.73529256374923,29.97250181816937,66.4968145453997,73.89386749687063,0.3002922,-0.87267843,0.36675931500000003,0.74774,-21.608159999999998,21.5929,67.0
1774823706.3119953,0.003944873809814453,2026-03-29T22:35:06.311,2026-03-29T18:35:06.311,-20944.89,-45339.435,-76830.25499999999,-48533.13,-8212.095,-16276.904999999999,8641.574999999999,-60479.145,38.03160258475284,2.424260462614193,32.94754844262683,65.20613337021834,30.824254204725374,14.38608373256416,50.27026820657663,62.18737741279244,0.3002922,-0.87267843,0.36675931500000003,0.74774,-21.608159999999998,21.5929,67.0
1774823706.3120103,1.5020370483398438e-05,2026-03-29T22:35:06.312,2026-03-29T18:35:06.312,-20923.155,-45340.965,-76846.77,-48527.28,-8225.82,-16300.394999999999,8580.465,-60462.045,-5.188009880627915,-45.15772820239557,-47.17945725040442,27.08191457237289,4.347995285111497,-8.697741952036969,11.086979214941804,21.47555426998877,0.3002922,-0.87267843,0.36675931500000003,0.74774,-21.608159999999998,21.5929,67.0
1774823706.316584,0.004573822021484375,2026-03-29T22:35:06.316,2026-03-29T18:35:06.316,-20878.559999999998,-45289.034999999996,-76773.645,-48466.53,-8206.92,-16282.439999999999,8589.779999999999,-60426.854999999996,-44.98106976158044,-68.80331291439984,-104.32002824729028,-25.10643434448732,-25.470247322190296,-28.461159599151227,-33.52609755830843,-29.55150332321785,0.3002922,-0.87267843,0.36675931500000003,0.74774,-21.608159999999998,21.5929,67.0
1774823706.316605,2.09808349609375e-05,2026-03-29T22:35:06.316,2026-03-29T18:35:06.316,-20908.98,-45286.784999999996,-76745.06999999999,-48430.17,-8162.46,-16259.31,8502.885,-60457.994999999995,-62.66081019599515,-57.87298596496633,-111.82761347817939,-66.53019699736045,-44.31766993678698,-35.36707459874458,-63.27383330270393,-67.2167961434734,0.3002922,-0.87267843,0.36675931500000003,0.74774,-21.608159999999998,21.5929,67.0
1774823706.3199897,0.0033845901489257812,2026-03-29T22:35:06.319,2026-03-29T18:35:06.319,-20953.125,-45327.555,-76782.69,-48455.82,-8156.88,-16301.925,8396.279999999999,-60502.229999999996,-50.458941554116976,-19.006227243611196,-66.78632508955744,-77.06172008145836,-42.691664940155015,-25.785209979065808,-64.48713518093693,-73.97373055364912,0.3002922,-0.87267843,0.36675931500000003,0.74774,-21.608159999999998,21.5929,67.0
1774823706.320016,2.6226043701171875e-05,2026-03-29T22:35:06.320,2026-03-29T18:35:06.320,-20934.945,-45330.119999999995,-76790.25,-48465.45,-8192.34,-16353.18,8217.225,-60535.845,-14.929819089441022,27.749564495166098,8.941303418219373,-51.047464378025,-20.653810320478804,-3.8596041683312667,-36.53863454369103,-46.66505965175144,0.3002922,-0.87267843,0.36675931500000003,0.74774,-21.608159999999998,21.5929,67.0
1774823706.324282,0.004266023635864258,2026-03-29T22:35:06.324,2026-03-29T18:35:06.324,-20850.75,-45304.965,-76777.37999999999,-48379.455,-8124.66,-16286.76,8177.849999999999,-60490.799999999996,26.543840944052288,59.21634553837045,79.39099378336338,-0.24475093334619719,11.928668827854628,20.329910154221995,7.790176256932012,1.9989104185050623,0.3002922,-0.87267843,0.36675931500000003,0.74774,-21.608159999999998,21.5929,67.0
1774823706.3242953,1.33514404296875e-05,2026-03-29T22:35:06.324,2026-03-29T18:35:06.324,-20803.815,-45308.205,-76803.12,-48215.61,-7934.085,-16106.805,8266.455,-60427.125,54.288724003011765,60.51949505239186,111.6528004110258,51.57260230245191,39.87284015476338,35.474478124440125,48.2115376195965,49.43249061291903,0.3002922,-0.87267843,0.36675931500000003,0.74774,-21.608159999999998,21.5929,67.0
1774823706.3290117,0.004716396331787109,2026-03-29T22:35:06.329,2026-03-29T18:35:06.329,-20760.84,-45319.905,-76802.84999999999,-48162.78,-7900.469999999999,-16092.269999999999,8552.43,-60287.805,55.7118344539762,32.05563554898427,91.28618948903926,79.83134795195454,49.82782094129574,34.380447914952455,66.34477967357984,73.77501469156064,0.318053385,-0.898496235,0.37390041,19.258119999999998,-17.18276,13.6577,67.0
1774823706.3290696,5.793571472167969e-05,2026-03-29T22:35:06.329,2026-03-29T18:35:06.329,-20783.61,-45489.33,-77051.655,-48545.46,-8277.48,-16471.934999999998,8706.96,-60166.89,31.023504900195377,-11.242212918169336,28.75456365608899,70.86718000846946,36.684793511458444,17.39946962432695,54.20895124278292,64.07031760955515,0.318053385,-0.898496235,0.37390041,19.258119999999998,-17.18276,13.6577,67.0
1774823706.3319204,0.002850770950317383,2026-03-29T22:35:06.331,2026-03-29T18:35:06.331,-20708.64,-45463.77,-77049.62999999999,-48761.955,-8455.815,-16601.85,8523.27,-60109.02,-7.288734764372095,-47.70138418260111,-45.970845935831896,28.520618180590716,6.157701608004606,-7.697722911304583,17.808081463796537,25.239510530482708,0.318053385,-0.898496235,0.37390041,19.258119999999998,-17.18276,13.6577,67.0
1774823706.3319404,2.002716064453125e-05,2026-03-29T22:35:06.331,2026-03-29T18:35:06.331,-20924.01,-45512.549999999996,-77032.395,-48683.295,-8329.41,-16461.54,8476.154999999999,-60319.89,-40.77584003027039,-59.70970806188583,-97.84597810595214,-27.562180764419423,-27.755586814413938,-29.347141528523306,-25.832282766302676,-24.425492283234725,0.318053385,-0.898496235,0.37390041,19.258119999999998,-17.18276,13.6577,67.0
1774823706.3360033,0.0040628910064697266,2026-03-29T22:35:06.336,2026-03-29T18:35:06.336,-21128.985,-45427.095,-76959.045,-48549.06,-8216.73,-16334.369999999999,8541.36,-60603.57,-53.93547592597432,-42.15167856025496,-103.24254547686435,-71.14855492223344,-49.279792633445815,-37.593722591978114,-56.70912771986998,-61.96290380492941,0.318053385,-0.898496235,0.37390041,19.258119999999998,-17.18276,13.6577,67.0
1774823706.3360233,2.002716064453125e-05,2026-03-29T22:35:06.336,2026-03-29T18:35:06.336,-21002.399999999998,-45348.75,-76936.68,-48631.095,-8268.345,-16336.89,8429.895,-60589.439999999995,-41.399070832820996,-4.467904926430036,-60.707210047377416,-81.78890486297067,-48.275257620015054,-28.71317077487335,-61.12205960993933,-70.45756470609705,0.318053385,-0.898496235,0.37390041,19.258119999999998,-17.18276,13.6577,67.0
1774823706.3429377,0.006914377212524414,2026-03-29T22:35:06.342,2026-03-29T18:35:06.342,-20898.315,-45311.49,-76753.89,-48489.705,-8146.17,-16218.675,8408.97,-60449.04,-10.06222094416286,34.423199006112945,8.904238233363415,-54.46176415907358,-25.042570828776306,-6.888168066005404,-37.82891982351091,-46.72588579330612,0.318053385,-0.898496235,0.37390041,19.258119999999998,-17.18276,13.6577,67.0
1774823706.3429644,2.6702880859375e-05,2026-03-29T22:35:06.342,2026-03-29T18:35:06.342,-20833.335,-45172.259999999995,-76619.79,-48504.735,-8203.32,-16256.519999999999,8485.02,-60397.064999999995,24.649960346862635,55.61193719128389,72.70124748646343,-1.922434231836705,9.770072241704831,17.81190799558595,1.723696158423483,-2.451521090346526,0.318053385,-0.898496235,0.37390041,19.258119999999998,-17.18276,13.6577,67.0
1774823706.3429868,2.2411346435546875e-05,2026-03-29T22:35:06.342,2026-03-29T18:35:06.342,-20858.985,-45135.18,-76501.44,-48378.06,-8095.41,-16197.074999999999,8559.404999999999,-60422.04,46.38034321842294,49.33696406399911,101.35772116690809,51.336198708370546,40.12381629732685,34.15004951221102,39.04577592576548,41.595384630292514,0.318053385,-0.898496235,0.37390041,19.258119999999998,-17.18276,13.6577,67.0
1774823706.3429964,9.5367431640625e-06,2026-03-29T22:35:06.342,2026-03-29T18:35:06.342,-20868.524999999998,-45269.415,-76465.44,-48108.015,-7846.38,-16047.945,8561.565,-60375.555,45.55342604206209,19.38128614317114,82.61065180721751,80.6166695734492,52.07087788471282,34.89529201073468,57.32312854399968,65.3790023586553,0.318053385,-0.898496235,0.37390041,19.258119999999998,-17.18276,13.6577,67.0
1774823706.3489525,0.005956172943115234,2026-03-29T22:35:06.348,2026-03-29T18:35:06.348,-20967.12,-45395.055,-76464.855,-47954.7,-7756.0199999999995,-16035.57,8364.285,-60378.84,23.56462529733461,-19.206833263595815,26.437970716650458,72.56510199685448,40.232356293356865,20.042006636731436,49.058000306079784,58.77853384277591,0.295104225,-0.844053015,0.348692955,12.543719999999999,-31.29826,12.77262,67.0
1774823706.3489666,1.4066696166992188e-05,2026-03-29T22:35:06.348,2026-03-29T18:35:06.348,-20904.12,-45240.435,-76600.8,-48153.78,-7953.66,-16197.615,8281.44,-60430.725,-8.369666105022615,-47.71054587933799,-40.2308025560049,31.29399057609281,10.234670811094412,-3.3655013615191733,19.126889768634918,25.892425185369156,0.295104225,-0.844053015,0.348692955,12.543719999999999,-31.29826,12.77262,67.0
1774823706.3522282,0.003261566162109375,2026-03-29T22:35:06.352,2026-03-29T18:35:06.352,-20897.82,-45159.75,-76804.92,-48492.585,-8241.93,-16393.184999999998,8443.17,-60475.14,-34.91493281828105,-52.80919173856142,-86.4770109218552,-23.7420683706481,-24.005054440431632,-24.6278856211059,-17.977636409920798,-17.358654634035602,0.295104225,-0.844053015,0.348692955,12.543719999999999,-31.29826,12.77262,67.0
1774823706.3522482,2.002716064453125e-05,2026-03-29T22:35:06.352,2026-03-29T18:35:06.352,-20863.395,-45073.17,-76706.64,-48532.545,-8252.73,-16323.255,8598.96,-60429.329999999994,-43.98013195974056,-32.726116526247374,-91.76530040177045,-67.01362818525095,-46.818563895635315,-34.34546051950936,-45.19577631582722,-50.97465090139343,0.295104225,-0.844053015,0.348692955,12.543719999999999,-31.29826,12.77262,67.0
1774823706.3560724,0.0038242340087890625,2026-03-29T22:35:06.356,2026-03-29T18:35:06.356,-20799.765,-45043.064999999995,-76606.02,-48545.82,-8236.664999999999,-16285.41,8525.115,-60370.335,-32.20344877346564,2.3419619929391176,-55.030742538665656,-78.8721726514303,-48.043383635595504,-28.61014782888621,-50.789743755739124,-60.18015106171383,0.295104225,-0.844053015,0.348692955,12.543719999999999,-31.29826,12.77262,67.0
1774823706.3560977,2.5272369384765625e-05,2026-03-29T22:35:06.356,2026-03-29T18:35:06.356,-20911.454999999998,-45220.994999999995,-76733.19,-48637.034999999996,-8353.08,-16428.195,8645.67,-60389.145,-6.084911698564189,35.47317008704929,5.521962443176909,-54.54724043593467,-27.599167996198826,-10.550251969937435,-33.40011106501272,-41.935398190052375,0.295104225,-0.844053015,0.348692955,12.543719999999999,-31.29826,12.77262,67.0
1774823706.360628,0.004530191421508789,2026-03-29T22:35:06.360,2026-03-29T18:35:06.360,-20950.649999999998,-45302.49,-76808.385,-48662.595,-8373.105,-16445.34,8588.205,-60399.99,21.541969508479355,51.220813352667015,61.46493095423727,-6.032931071184713,4.698119567355698,11.36507173280083,-2.096170676170445,-5.780189685814858,0.295104225,-0.844053015,0.348692955,12.543719999999999,-31.29826,12.77262,67.0
1774823706.3606472,1.9311904907226562e-05,2026-03-29T22:35:06.360,2026-03-29T18:35:06.360,-20969.145,-45369.72,-76887.54,-48626.775,-8300.565,-16387.47,8450.279999999999,-60428.204999999994,37.80676430753064,42.77888259104374,87.53331004209198,43.86297969097523,33.89380525076774,27.346888156863432,28.32265747383462,31.11389938187358,0.295104225,-0.844053015,0.348692955,12.543719999999999,-31.29826,12.77262,67.0
1774823706.3645327,0.003885507583618164,2026-03-29T22:35:06.364,2026-03-29T18:35:06.364,-20928.555,-45300.42,-76767.795,-48487.994999999995,-8210.699999999999,-16342.65,8310.33,-60452.145,35.78014358604218,14.80739348593414,73.03044887749951,72.3401755736225,46.89932593802934,30.7022876183316,44.34577065622982,52.129000484171755,0.295104225,-0.844053015,0.348692955,12.543719999999999,-31.29826,12.77262,67.0
1774823706.3645604,2.765655517578125e-05,2026-03-29T22:35:06.364,2026-03-29T18:35:06.364,-20888.01,-45266.939999999995,-76689.18,-48349.935,-8073.495,-16224.795,8325.539999999999,-60437.835,17.365179168659235,-19.191595727319356,26.10835693290695,67.12137080484081,38.42909237872061,20.634628791171636,39.74648921945845,48.706659776402205,0.295104225,-0.844053015,0.348692955,12.543719999999999,-31.29826,12.77262,67.0
1774823706.3701816,0.005621194839477539,2026-03-29T22:35:06.370,2026-03-29T18:35:06.370,-20922.12,-45370.17,-76831.73999999999,-48371.67,-8058.509999999999,-16196.22,8454.105,-60405.795,-8.07027669324589,-43.46249186521164,-30.727057660532598,31.77124406216512,13.14707765817603,2.261293010069497,17.89584986489525,23.77536372290069,0.29479905,-0.82165317,0.3430167,-63.84784,-37.44804,12.2843,67.0
1774823706.3702087,2.7179718017578125e-05,2026-03-29T22:35:06.370,2026-03-29T18:35:06.370,-20977.605,-45462.78,-76966.73999999999,-48423.78,-8109.99,-16264.439999999999,8336.654999999999,-60449.31,-28.44103346293323,-47.3080785471811,-71.44359860330306,-16.49484431340658,-16.845446590721313,-15.992257801735404,-10.399607302874221,-10.237704281911558,0.29479905,-0.82165317,0.3430167,-63.84784,-37.44804,12.2843,67.0
1774823706.3784971,0.008288383483886719,2026-03-29T22:35:06.378,2026-03-29T18:35:06.378,-20968.92,-45462.78,-77008.23,-48503.655,-8180.865,-16343.189999999999,8098.65,-60508.17,-34.673059797887944,-29.73100670537029,-78.42009863580483,-55.23888437282105,-37.84701803925094,-26.292372450825482,-32.2371402360168,-37.58687402201198,0.29479905,-0.82165317,0.3430167,-63.84784,-37.44804,12.2843,67.0
1774823706.3785188,2.1696090698242188e-05,2026-03-29T22:35:06.378,2026-03-29T18:35:06.378,-20827.305,-45319.95,-76910.44499999999,-48503.159999999996,-8122.95,-16241.445,8410.455,-60344.954999999994,-24.703710521379218,0.5684740391088953,-50.01496913802342,-67.31975228316918,-40.88290547519625,-24.77029199397569,-38.493560497851746,-46.50957183396236,0.29479905,-0.82165317,0.3430167,-63.84784,-37.44804,12.2843,67.0
1774823706.3785403,2.1457672119140625e-05,2026-03-29T22:35:06.378,2026-03-29T18:35:06.378,-20830.364999999998,-45275.49,-76845.23999999999,-48591.585,-8183.7,-16258.095,8679.195,-60286.14,-4.012189509247689,29.57570431939045,-0.5475051893076343,-48.53447658966497,-25.57125708363407,-12.91340952260996,-27.564164988527637,-34.25745891577443,0.29479905,-0.82165317,0.3430167,-63.84784,-37.44804,12.2843,67.0
1774823706.3785477,7.3909759521484375e-06,2026-03-29T22:35:06.378,2026-03-29T18:35:06.378,-20904.03,-45301.994999999995,-76778.37,-48568.95,-8226.36,-16334.955,8579.07,-60365.79,17.347319185842597,44.49190686142777,46.91611266713121,-8.951277877472684,0.14913458008550665,3.4869784915827786,-5.474039538284324,-7.722212743539819,0.29479905,-0.82165317,0.3430167,-63.84784,-37.44804,12.2843,67.0
1774823706.3785572,9.5367431640625e-06,2026-03-29T22:35:06.378,2026-03-29T18:35:06.378,-20930.04,-45305.189999999995,-76701.23999999999,-48402.405,-8147.025,-16307.82,8467.199999999999,-60421.005,29.62250418420268,39.352809819851686,71.34055588294527,32.40640833814358,24.101379947416433,17.171430795769787,17.376996659618484,20.326561994318954,0.29479905,-0.82165317,0.3430167,-63.84784,-37.44804,12.2843,67.0
1774823706.378564,6.67572021484375e-06,2026-03-29T22:35:06.378,2026-03-29T18:35:06.378,-20837.024999999998,-45165.735,-76623.12,-48357.27,-8095.139999999999,-16230.375,8571.285,-60330.6,27.788478308722986,17.288982219192764,63.01816555133951,56.74614098863488,35.674608639643644,22.639305018904217,31.100572273890354,37.3777801217445,0.29479905,-0.82165317,0.3430167,-63.84784,-37.44804,12.2843,67.0
1774823706.3842285,0.0056645870208740234,2026-03-29T22:35:06.384,2026-03-29T18:35:06.384,-20778.255,-45131.67,-76655.205,-48414.555,-8126.639999999999,-16227.18,8659.935,-60253.02,13.52782188840772,-11.354201022311358,27.2915858328873,54.10729543921644,30.565658423549095,18.327740909650686,30.544805688924978,36.74330779924901,0.29479905,-0.82165317,0.3430167,-63.84784,-37.44804,12.2843,67.0
1774823706.3842502,2.1696090698242188e-05,2026-03-29T22:35:06.384,2026-03-29T18:35:06.384,-20890.125,-45290.52,-76819.68,-48575.07,-8284.005,-16358.085,8513.1,-60330.555,-5.97104234862297,-33.93132466777067,-18.6466033819495,27.414227654627044,12.32232789908925,6.899949431901001,17.08286566049216,20.085048920857513,0.29479905,-0.82165317,0.3430167,-63.84784,-37.44804,12.2843,67.0
