unix_time_s,dt_s,UTC,LOCAL,EMG1_Raw,EMG2_Raw,EMG3_Raw,EMG4_Raw,EMG5_Raw,EMG6_Raw,EMG7_Raw,EMG8_Raw,EMG1_Filtered,EMG2_Filtered,EMG3_Filtered,EMG4_Filtered,EMG5_Filtered,EMG6_Filtered,EMG7_Filtered,EMG8_Filtered,Accel1_Raw,Accel2_Raw,Accel3_Raw,Gyro1_Raw,Gyro2_Raw,Gyro3_Raw,Battery
1774822093.7187092,,2026-03-29T22:08:13.718,2026-03-29T18:08:13.718,-32348.969999999998,-49117.095,-85118.58,-50308.02,-14894.01,-19889.594999999998,5000.67,-61870.454999999994,-0.5470260004930187,-0.7242158511037959,-0.8141164820606116,-0.556440355672131,-0.7790044301347708,-1.274018255464758,1.5257422061215429,0.031016552299770718,-0.13769496,-0.88049091,0.45495489,-0.9003399999999999,0.6409199999999999,-11.216099999999999,72.0
1774822093.7187448,3.552436828613281e-05,2026-03-29T22:08:13.718,2026-03-29T18:08:13.718,-32352.885,-49119.525,-85121.86499999999,-50309.505,-14894.55,-19890.63,4996.9349999999995,-61874.729999999996,-2.8825320555043072,-1.523346903769901,-1.822548572278958,-0.6177728314560641,-0.2353521661615815,-1.1530648234416623,-6.936265230551782,-3.9578488969808516,-0.13769496,-0.88049091,0.45495489,-0.9003399999999999,0.6409199999999999,-11.216099999999999,72.0
1774822093.7225742,0.003829479217529297,2026-03-29T22:08:13.722,2026-03-29T18:08:13.722,-32348.16,-49114.17,-85115.385,-50300.415,-14884.56,-19883.16,4994.6849999999995,-61873.02,-3.8155622794054453,-1.542166400376451,-1.9318318844296627,-0.3330278369084402,0.47939326567786794,-0.43546386320933655,-12.68045721385209,-6.133231579099887,-0.13769496,-0.88049091,0.45495489,-0.9003399999999999,0.6409199999999999,-11.216099999999999,72.0
1774822093.7226784,0.00010418891906738281,2026-03-29T22:08:13.722,2026-03-29T18:08:13.722,-32343.614999999998,-49108.814999999995,-85109.12999999999,-50295.645,-14882.13,-19883.114999999998,4981.7699999999995,-61872.795,-2.9171946662761554,-0.7333491666817857,-1.0426191235536295,0.1967716656072004,1.0497544408455848,0.5638614479095673,-13.279030596743796,-5.5719242255609585,-0.13769496,-0.88049091,0.45495489,-0.9003399999999999,0.6409199999999999,-11.216099999999999,72.0
1774822093.7265568,0.003878355026245117,2026-03-29T22:08:13.726,2026-03-29T18:08:13.726,-32354.91,-49120.064999999995,-85120.83,-50311.665,-14899.5,-19898.774999999998,4961.429999999999,-61882.695,-0.6425559397083916,0.5166753259463642,0.43636019692493455,0.7198405122326498,1.1963026539219574,1.364389104033443,-8.377175329618975,-2.5856397204382824,-0.13769496,-0.88049091,0.45495489,-0.9003399999999999,0.6409199999999999,-11.216099999999999,72.0
1774822093.7265809,2.4080276489257812e-05,2026-03-29T22:08:13.726,2026-03-29T18:08:13.726,-32353.199999999997,-49118.939999999995,-85116.825,-50309.28,-14896.08,-19892.61,4964.67,-61880.22,1.8965384417571098,1.5700596569062861,1.7745446363757293,0.9508383525068802,0.8096633322349582,1.549184972495028,0.11009829752303821,1.4474133416224508,-0.13769496,-0.88049091,0.45495489,-0.9003399999999999,0.6409199999999999,-11.216099999999999,72.0
1774822093.730304,0.00372314453125,2026-03-29T22:08:13.730,2026-03-29T18:08:13.730,-32329.89,-49099.5,-85094.145,-50282.685,-14867.55,-19861.38,5022.2699999999995,-61857.314999999995,3.4755354943425534,1.8584442098921405,2.277339337997237,0.7196668593672471,0.016787850615365373,0.9778463204677542,8.731526713423783,4.725112485076235,-0.139953255,-0.88097919,0.457457325,-2.39582,1.05294,-10.92616,72.0
1774822093.730323,1.9073486328125e-05,2026-03-29T22:08:13.730,2026-03-29T18:08:13.730,-32327.954999999998,-49104.27,-85101.03,-50287.68,-14871.195,-19862.28,5048.595,-61851.42,3.351168708441724,1.18258092966107,1.6412869397333338,0.076542729223639,-0.8569946554972023,-0.12417848437154554,13.890676772496665,5.835580324726577,-0.139953255,-0.88097919,0.457457325,-2.39582,1.05294,-10.92616,72.0
1774822093.7344856,0.00416254997253418,2026-03-29T22:08:13.734,2026-03-29T18:08:13.734,-32334.84,-49110.884999999995,-85110.39,-50299.56,-14884.154999999999,-19875.285,5018.67,-61861.454999999994,1.6158048384413803,-0.16482762142284707,0.12687344491769173,-0.7063515710847413,-1.4208953211888542,-1.2522759429427488,13.341344789559443,4.371013914725317,-0.139953255,-0.88097919,0.457457325,-2.39582,1.05294,-10.92616,72.0
1774822093.7345085,2.288818359375e-05,2026-03-29T22:08:13.734,2026-03-29T18:08:13.734,-32338.62,-49108.994999999995,-85106.97,-50295.915,-14881.32,-19876.23,4981.95,-61870.005,-0.8587902133642089,-1.5243867183039657,-1.5460184189801256,-1.2484027538470421,-1.392531076522348,-1.8533619207285004,7.169308953013105,1.0717252297597144,-0.139953255,-0.88097919,0.457457325,-2.39582,1.05294,-10.92616,72.0
1774822093.738674,0.0041654109954833984,2026-03-29T22:08:13.738,2026-03-29T18:08:13.738,-32341.454999999998,-49103.009999999995,-85097.745,-50283.54,-14866.74,-19861.739999999998,4989.0599999999995,-61878.465,-2.8570236262512734,-2.1905610586303403,-2.5392270785643944,-1.2427694054559542,-0.7357522055744504,-1.5952083102526091,-2.1695080382365783,-2.5471352843053428,-0.139953255,-0.88097919,0.457457325,-2.39582,1.05294,-10.92616,72.0
1774822093.738692,1.811981201171875e-05,2026-03-29T22:08:13.738,2026-03-29T18:08:13.738,-32333.715,-49096.08,-85094.37,-50282.235,-14865.164999999999,-19859.489999999998,4990.05,-61872.39,-3.4174649586541412,-1.7724215360541005,-2.3126934957068235,-0.6210729284771621,0.3035861242510703,-0.543762279365899,-10.808159029200256,-4.898115985350012,-0.139953255,-0.88097919,0.457457325,-2.39582,1.05294,-10.92616,72.0
1774822093.7425559,0.003863811492919922,2026-03-29T22:08:13.742,2026-03-29T18:08:13.742,-32332.77,-49095.765,-85096.70999999999,-50286.96,-14870.564999999999,-19864.934999999998,4989.51,-61871.31,-2.2985033617699404,-0.4119967691419914,-0.9104651407689371,0.38489351117449766,1.2877895249604376,0.8441803022735204,-15.06099352009064,-5.0244091110071984,-0.139953255,-0.88097919,0.457457325,-2.39582,1.05294,-10.92616,72.0
1774822093.7425716,1.5735626220703125e-05,2026-03-29T22:08:13.742,2026-03-29T18:08:13.742,-32335.965,-49098.689999999995,-85099.545,-50290.02,-14873.894999999999,-19868.219999999998,4983.12,-61873.335,-0.08472924513198324,1.2580744673740551,1.0324857912575263,1.3258401488179534,1.7713124105366933,1.9198151098187517,-12.999429239288538,-2.988933606932343,-0.139953255,-0.88097919,0.457457325,-2.39582,1.05294,-10.92616,72.0
1774822093.7465916,0.004019975662231445,2026-03-29T22:08:13.746,2026-03-29T18:08:13.746,-32331.195,-49096.259999999995,-85096.845,-50287.095,-14870.025,-19860.165,5021.6849999999995,-61859.97,2.113839046012683,2.4087706440370757,2.5781173368100347,1.7346733052399572,1.501395561526298,2.1459550341179856,-5.33717061118171,0.20825489539161623,-0.139953255,-0.88097919,0.457457325,-2.39582,1.05294,-10.92616,72.0
1774822093.746619,2.7418136596679688e-05,2026-03-29T22:08:13.746,2026-03-29T18:08:13.746,-32333.085,-49099.68,-85099.95,-50290.424999999996,-14873.085,-19866.285,5023.3949999999995,-61858.665,3.2164693884519697,2.423890019799934,2.937184396638872,1.3548744220335691,0.5454056632653695,1.3630190119752434,4.785573062679427,3.1218911425637828,-0.139953255,-0.88097919,0.457457325,-2.39582,1.05294,-10.92616,72.0
1774822093.75454,0.007920980453491211,2026-03-29T22:08:13.754,2026-03-29T18:08:13.754,-32339.745,-49106.97,-85110.20999999999,-50302.17,-14885.82,-19881.18,5019.345,-61863.93,2.7036174595126177,1.2229907100771376,1.8677045728225394,0.2871519798577675,-0.7176758716627183,-0.11369529690716021,13.073914728946164,4.520270082534059,-0.144225705,-0.885556815,0.45886113,-0.12208,-0.36624,-11.61286,72.0
1774822093.7545612,2.1219253540039062e-05,2026-03-29T22:08:13.754,2026-03-29T18:08:13.754,-32354.91,-49121.369999999995,-85124.745,-50317.424999999996,-14901.615,-19898.82,5014.215,-61875.899999999994,0.8637520916712661,-0.6687537022861177,-0.17956636636009582,-1.0251981696593098,-1.7465964467649084,-1.6207149317539251,15.900123202263119,3.9080927708519217,-0.144225705,-0.885556815,0.45886113,-0.12208,-0.36624,-11.61286,72.0
1774822093.7642725,0.009711265563964844,2026-03-29T22:08:13.764,2026-03-29T18:08:13.764,-32361.84,-49128.21,-85133.34,-50326.875,-14910.48,-19906.829999999998,4987.44,-61885.439999999995,-1.3630540743532369,-2.3508519588012993,-2.2509869139778513,-1.9791728257618952,-2.0696014449189035,-2.446326317527133,11.90429855893523,1.6906502120092224,-0.144225705,-0.885556815,0.45886113,-0.12208,-0.36624,-11.61286,72.0
1774822093.7642934,2.09808349609375e-05,2026-03-29T22:08:13.764,2026-03-29T18:08:13.764,-32356.98,-49123.215,-85126.41,-50316.84,-14899.23,-19892.34,4972.095,-61885.665,-2.861855075641363,-2.976704559417711,-3.3353627260356946,-2.0883571524163824,-1.4994536050304215,-2.167209407389829,2.6625262387118056,-1.068201580177147,-0.144225705,-0.885556815,0.45886113,-0.12208,-0.36624,-11.61286,72.0
1774822093.7643137,2.0265579223632812e-05,2026-03-29T22:08:13.764,2026-03-29T18:08:13.764,-32348.699999999997,-49114.17,-85114.215,-50303.07,-14885.369999999999,-19877.67,4985.91,-61878.645,-2.8992279313967706,-2.17677797259942,-2.8562338438185217,-1.2263230098883868,-0.23416818688159932,-0.8620822493507186,-7.910971575479242,-3.157345336367157,-0.144225705,-0.885556815,0.45886113,-0.12208,-0.36624,-11.61286,72.0
1774822093.7643209,7.152557373046875e-06,2026-03-29T22:08:13.764,2026-03-29T18:08:13.764,-32352.39,-49117.68,-85115.25,-50303.655,-14887.349999999999,-19879.785,5005.98,-61877.204999999994,-1.4821234888557564,-0.2651711340601009,-0.9718396807878599,0.28302788284306296,1.208355493532417,0.9044231064700146,-15.214972081925799,-3.7526400968001754,-0.144225705,-0.885556815,0.45886113,-0.12208,-0.36624,-11.61286,72.0
1774822093.7643287,7.867813110351562e-06,2026-03-29T22:08:13.764,2026-03-29T18:08:13.764,-32367.105,-49133.07,-85135.77,-50325.795,-14912.73,-19909.395,4961.5199999999995,-61896.329999999994,0.656525666223651,1.88212886721493,1.471050001195374,1.7834475719419012,2.202031123624588,2.3284450171368904,-15.973803109237116,-2.7373859475696776,-0.144225705,-0.885556815,0.45886113,-0.12208,-0.36624,-11.61286,72.0
1774822093.7643352,6.4373016357421875e-06,2026-03-29T22:08:13.764,2026-03-29T18:08:13.764,-32364.719999999998,-49129.02,-85131.58499999999,-50323.905,-14913.18,-19912.77,4924.44,-61903.799999999996,2.4334853285636897,3.2310084047277625,3.3197267339933982,2.5717147862957397,2.2842174969221727,2.735176671131695,-9.727213602797589,-0.6872492181732194,-0.144225705,-0.885556815,0.45886113,-0.12208,-0.36624,-11.61286,72.0
1774822093.7665448,0.0022096633911132812,2026-03-29T22:08:13.766,2026-03-29T18:08:13.766,-32351.805,-49114.08,-85115.97,-50307.165,-14895.99,-19895.895,4922.91,-61896.735,2.9606836075082827,3.0878119543373606,3.6607448846131176,2.2263050426249436,1.3694647661010233,1.898749775951218,0.8890687272897723,1.4426399799376524,-0.144225705,-0.885556815,0.45886113,-0.12208,-0.36624,-11.61286,72.0
1774822093.7665591,1.430511474609375e-05,2026-03-29T22:08:13.766,2026-03-29T18:08:13.766,-32323.77,-49088.205,-85085.19,-50278.59,-14867.505,-19863.135,5001.12,-61859.115,1.9867255014310998,1.4519532227758674,2.2692192771693156,0.8260594845687063,-0.19277171886386762,0.16179932976670278,11.240961310151972,2.7626805256393028,-0.144225705,-0.885556815,0.45886113,-0.12208,-0.36624,-11.61286,72.0
1774822093.7720156,0.005456447601318359,2026-03-29T22:08:13.772,2026-03-29T18:08:13.772,-32333.489999999998,-49100.67,-85099.095,-50288.85,-14872.365,-19863.585,5059.9349999999995,-61858.17,0.015642765695532516,-0.9552948366144945,-0.258090956303082,-1.0522528206101038,-1.7500768934886575,-1.7067469242456168,16.723074086508714,2.8184787317448317,-0.145934685,-0.889585125,0.45861699,2.9451799999999997,-1.0834599999999999,-12.08592,72.0
1774822093.7720366,2.09808349609375e-05,2026-03-29T22:08:13.772,2026-03-29T18:08:13.772,-32345.1,-49113.09,-85114.485,-50302.71,-14884.83,-19878.84,5027.3099999999995,-61872.39,-1.9527394686465809,-3.0114869215899693,-2.7602055508911945,-2.570764201939068,-2.619610072624221,-2.855647701826143,14.827405147275298,1.7328768928062477,-0.145934685,-0.889585125,0.45861699,2.9451799999999997,-1.0834599999999999,-12.08592,72.0
1774822093.7760367,0.004000186920166016,2026-03-29T22:08:13.776,2026-03-29T18:08:13.776,-32343.84,-49111.155,-85113.98999999999,-50303.07,-14886.045,-19880.954999999998,5008.1849999999995,-61873.38,-2.927396444116024,-3.719342459841457,-4.048112830663015,-3.004894899932824,-2.3873440625661617,-2.7414568086979774,6.315782689550404,0.0850191928363135,-0.145934685,-0.889585125,0.45861699,2.9451799999999997,-1.0834599999999999,-12.08592,72.0
1774822093.7760532,1.6450881958007812e-05,2026-03-29T22:08:13.776,2026-03-29T18:08:13.776,-32341.995,-49107.78,-85106.655,-50298.255,-14883.255,-19877.265,5002.0199999999995,-61873.649999999994,-2.421702725100507,-2.690511516244063,-3.4707842968881124,-2.0877144207668534,-1.102924459322241,-1.3847759878246328,-5.0629684356083295,-1.3893540113961491,-0.145934685,-0.889585125,0.45861699,2.9451799999999997,-1.0834599999999999,-12.08592,72.0
1774822093.7796116,0.0035583972930908203,2026-03-29T22:08:13.779,2026-03-29T18:08:13.779,-32339.25,-49104.54,-85102.73999999999,-50294.025,-14876.595,-19869.614999999998,4994.82,-61873.064999999995,-0.6932253792734516,-0.35189412000171744,-1.24105609981744,-0.16110185007028835,0.7207173901855093,0.6280092969296649,-14.22003962671642,-2.124368403134627,-0.145934685,-0.889585125,0.45861699,2.9451799999999997,-1.0834599999999999,-12.08592,72.0
1774822093.7796247,1.3113021850585938e-05,2026-03-29T22:08:13.779,2026-03-29T18:08:13.779,-32329.664999999997,-49092.975,-85089.735,-50280.119999999995,-14862.15,-19855.934999999998,4981.545,-61869.915,1.389316063210567,2.2328019415103024,1.6405714657287818,1.947901475982686,2.311581274199315,2.4020199336711943,-17.016751465311323,-1.9334543251433611,-0.145934685,-0.889585125,0.45861699,2.9451799999999997,-1.0834599999999999,-12.08592,72.0
1774822093.7832432,0.003618478775024414,2026-03-29T22:08:13.783,2026-03-29T18:08:13.783,-32320.485,-49081.725,-85078.935,-50270.04,-14852.385,-19845.045,4989.87,-61866.18,2.782461164520578,3.8509952220884016,3.8381027404943184,3.2828592506238863,2.9656018982549917,3.1353850338035953,-12.160871296843283,-1.0289536657371505,-0.145934685,-0.889585125,0.45861699,2.9451799999999997,-1.0834599999999999,-12.08592,72.0
1774822093.7832577,1.4543533325195312e-05,2026-03-29T22:08:13.783,2026-03-29T18:08:13.783,-32322.015,-49081.634999999995,-85077.72,-50271.255,-14857.109999999999,-19850.76,4999.005,-61867.215,2.7884012543854233,3.71290966572919,4.302345952560315,3.192465040040338,2.357832299006365,2.4830114743702882,-1.8286604561442141,0.12757631216496979,-0.145934685,-0.889585125,0.45861699,2.9451799999999997,-1.0834599999999999,-12.08592,72.0
1774822093.7864983,0.0032405853271484375,2026-03-29T22:08:13.786,2026-03-29T18:08:13.786,-32339.204999999998,-49099.59,-85097.43,-50290.875,-14877.855,-19874.07,5002.065,-61876.755,1.4005027765722096,1.836130306889785,2.7721770425090755,1.6460482981162239,0.7004488082908444,0.7169045634967691,9.29738829124703,1.0534203392779116,-0.145934685,-0.889585125,0.45861699,2.9451799999999997,-1.0834599999999999,-12.08592,72.0
1774822093.7865841,8.58306884765625e-05,2026-03-29T22:08:13.786,2026-03-29T18:08:13.786,-32349.059999999998,-49114.08,-85112.595,-50302.935,-14886.99,-19883.925,5032.3949999999995,-61877.204999999994,-0.6957269216279156,-0.9439563464053206,-0.08489387115426122,-0.7219316302300316,-1.327968882774225,-1.3905801744717419,16.15594438008978,1.4411454576672948,-0.145934685,-0.889585125,0.45861699,2.9451799999999997,-1.0834599999999999,-12.08592,72.0
1774822093.7904704,0.0038862228393554688,2026-03-29T22:08:13.790,2026-03-29T18:08:13.790,-32346.0,-49112.909999999996,-85108.815,-50296.77,-14879.789999999999,-19876.995,5026.905,-61874.055,-2.4639090936506016,-3.350074304914077,-2.9663307641186596,-2.8717073049766384,-2.8599912690382148,-2.9086431344476025,15.630353609268981,1.2463984058960653,-0.14416467,-0.893491365,0.46154667,4.07442,-1.4497,-10.01056,72.0
1774822093.7904885,1.811981201171875e-05,2026-03-29T22:08:13.790,2026-03-29T18:08:13.790,-32333.039999999997,-49098.689999999995,-85097.205,-50286.825,-14872.095,-19872.36,5022.315,-61867.034999999996,-3.029176376429025,-4.254223372916919,-4.532045795025048,-3.816194435202597,-3.210312803023823,-3.1616822649398033,7.991941639209893,0.6514437846633185,-0.14416467,-0.893491365,0.46154667,4.07442,-1.4497,-10.01056,72.0
1774822093.7982473,0.0077588558197021484,2026-03-29T22:08:13.798,2026-03-29T18:08:13.798,-32330.204999999998,-49097.475,-85098.465,-50289.075,-14870.654999999999,-19868.219999999998,5030.415,-61865.055,-2.1081224003708674,-3.2084764444682845,-4.030051067725186,-3.0747999360102227,-2.18153065569807,-2.02962849892361,-3.217502814497972,-0.05426198071198255,-0.14416467,-0.893491365,0.46154667,4.07442,-1.4497,-10.01056,72.0
1774822093.7982616,1.430511474609375e-05,2026-03-29T22:08:13.798,2026-03-29T18:08:13.798,-32344.469999999998,-49114.395,-85118.67,-50312.61,-14889.24,-19876.59,5016.105,-61876.439999999995,-0.1460174473285132,-0.6647137579618032,-1.6571670907946485,-0.9141671931153244,-0.16870076232018916,-0.001702738814398182,-12.822538000755465,-0.6080157894750698,-0.14416467,-0.893491365,0.46154667,4.07442,-1.4497,-10.01056,72.0
1774822093.7982752,1.3589859008789062e-05,2026-03-29T22:08:13.798,2026-03-29T18:08:13.798,-32346.945,-49117.365,-85125.33,-50321.115,-14897.699999999999,-19882.8,4994.55,-61881.84,1.9032309927631328,2.223639580603337,1.518001946767436,1.7433048963192093,1.9904728890794408,2.038919183686664,-16.41568478625522,-0.8632520655107826,-0.14416467,-0.893491365,0.46154667,4.07442,-1.4497,-10.01056,72.0
1774822093.7982807,5.4836273193359375e-06,2026-03-29T22:08:13.798,2026-03-29T18:08:13.798,-32339.969999999998,-49108.95,-85114.89,-50310.585,-14888.16,-19877.085,4991.085,-61878.78,3.043604194738237,4.129358988305773,4.039637714159363,3.7141936875812114,3.3638855361442217,3.2027225436879356,-12.403460887193372,-0.8093111699957333,-0.14416467,-0.893491365,0.46154667,4.07442,-1.4497,-10.01056,72.0
1774822093.8068068,0.008526086807250977,2026-03-29T22:08:13.806,2026-03-29T18:08:13.806,-32343.164999999997,-49110.84,-85111.155,-50308.92,-14889.42,-19878.93,4990.7699999999995,-61882.604999999996,2.7205412325798832,4.164979267875761,4.735585654520741,4.082733168692152,3.327203808644189,2.982190574640912,-2.7361248188079035,-0.5338334638335621,-0.14416467,-0.893491365,0.46154667,4.07442,-1.4497,-10.01056,72.0
1774822093.806821,1.430511474609375e-05,2026-03-29T22:08:13.806,2026-03-29T18:08:13.806,-32339.699999999997,-49106.384999999995,-85108.05,-50303.205,-14882.49,-19871.73,4997.88,-61885.305,1.0868786184551114,2.2968785112188437,3.263952913438737,2.626585024398189,1.8466936819350472,1.4712053131253657,8.023770478687057,-0.16196719016272318,-0.14416467,-0.893491365,0.46154667,4.07442,-1.4497,-10.01056,72.0
1774822093.8068335,1.239776611328125e-05,2026-03-29T22:08:13.806,2026-03-29T18:08:13.806,-32341.635,-49106.07,-85107.78,-50301.72,-14882.445,-19875.465,4993.605,-61886.25,-1.074844625894018,-0.6336272057780663,0.27988170140269586,-0.05832965302738621,-0.48486290598022336,-0.6781302585279304,14.855306565064959,0.19387671434996823,-0.14416467,-0.893491365,0.46154667,4.07442,-1.4497,-10.01056,72.0
1774822093.806838,4.5299530029296875e-06,2026-03-29T22:08:13.806,2026-03-29T18:08:13.806,-32346.945,-49113.405,-85114.75499999999,-50307.93,-14889.375,-19884.105,4992.12,-61883.954999999994,-2.732015104291847,-3.293375959148646,-2.858295729621021,-2.8010283482621907,-2.6838082641078316,-2.5396513977276847,14.637527636177838,0.4569813975591785,-0.14416467,-0.893491365,0.46154667,4.07442,-1.4497,-10.01056,72.0
1774822093.812134,0.005295991897583008,2026-03-29T22:08:13.812,2026-03-29T18:08:13.812,-32344.02,-49114.125,-85117.185,-50308.74,-14889.51,-19881.495,4996.755,-61877.07,-3.0972707490588576,-4.468223080488614,-4.710697266152234,-4.367837435479391,-3.7900323875448896,-3.313070804806096,7.596878237135297,0.5855947692402916,-0.139098765,-0.892270665,0.46777224,3.70818,1.0224199999999999,-9.217039999999999,72.0
1774822093.812154,2.002716064453125e-05,2026-03-29T22:08:13.812,2026-03-29T18:08:13.812,-32337.225,-49109.13,-85111.69499999999,-50303.115,-14884.154999999999,-19875.6,4993.785,-61869.195,-2.001017854133899,-3.619821636158498,-4.419416309871343,-4.019102570291603,-3.2860584430049533,-2.6667741937600087,-2.8376008029839688,0.5637798001437686,-0.139098765,-0.892270665,0.46777224,3.70818,1.0224199999999999,-9.217039999999999,72.0
1774822093.8149056,0.002751588821411133,2026-03-29T22:08:13.814,2026-03-29T18:08:13.814,-32328.405,-49100.04,-85101.885,-50294.52,-14874.525,-19866.78,4979.205,-61863.03,0.03438822060635577,-1.1319535383320865,-2.107037769219034,-1.8583309928530038,-1.338158790910776,-0.877628970018676,-11.693367878220103,0.39756527486892085,-0.139098765,-0.892270665,0.46777224,3.70818,1.0224199999999999,-9.217039999999999,72.0
1774822093.8149219,1.621246337890625e-05,2026-03-29T22:08:13.814,2026-03-29T18:08:13.814,-32328.36,-49096.305,-85093.69499999999,-50288.759999999995,-14872.32,-19865.25,4963.455,-61865.505,2.0489872027801144,1.8660083978954527,1.17535677716364,1.1909846263796535,1.2523127591407037,1.2895826076078092,-14.828417695813382,0.11946997637398846,-0.139098765,-0.892270665,0.46777224,3.70818,1.0224199999999999,-9.217039999999999,72.0
1774822093.8187752,0.003853321075439453,2026-03-29T22:08:13.818,2026-03-29T18:08:13.818,-32338.079999999998,-49098.15,-85093.69499999999,-50285.475,-14870.25,-19867.68,4970.97,-61879.095,3.101928553616787,4.015885010242229,3.9283622365117274,3.7807679772029728,3.376825189062894,2.909490052200926,-10.883705473794514,-0.20643416320962016,-0.139098765,-0.892270665,0.46777224,3.70818,1.0224199999999999,-9.217039999999999,72.0
1774822093.8187985,2.3365020751953125e-05,2026-03-29T22:08:13.818,2026-03-29T18:08:13.818,-32343.39,-49105.89,-85103.415,-50293.485,-14875.154999999999,-19872.63,4996.62,-61881.57,2.7116009407238577,4.349409823852541,4.892212677541477,4.736501141416433,4.093721167047088,3.2900773754837807,-1.8862142119138046,-0.49031771425623466,-0.139098765,-0.892270665,0.46777224,3.70818,1.0224199999999999,-9.217039999999999,72.0
1774822093.8259895,0.0071909427642822266,2026-03-29T22:08:13.825,2026-03-29T18:08:13.825,-32343.12,-49109.805,-85112.055,-50305.049999999996,-14886.09,-19879.875,5002.785,-61879.454999999994,1.0730963387730879,2.7256070086690367,3.6256842760418833,3.591906158985612,3.046170761228339,2.2665423861107907,7.771817349375497,-0.6388787971929731,-0.139098765,-0.892270665,0.46777224,3.70818,1.0224199999999999,-9.217039999999999,72.0
1774822093.8260038,1.430511474609375e-05,2026-03-29T22:08:13.826,2026-03-29T18:08:13.826,-32339.295,-49105.08,-85104.18,-50302.305,-14888.97,-19882.62,4984.38,-61875.27,-1.0436909758180395,-0.11113572708684394,0.7090150613542819,0.8159997833938203,0.6385254602898146,0.2716504411316306,13.470504337699909,-0.5887902805548197,-0.139098765,-0.892270665,0.46777224,3.70818,1.0224199999999999,-9.217039999999999,72.0
1774822093.8260167,1.2874603271484375e-05,2026-03-29T22:08:13.826,2026-03-29T18:08:13.826,-32344.829999999998,-49110.479999999996,-85106.295,-50308.29,-14899.32,-19894.364999999998,4972.139999999999,-61877.07,-2.6604776272341844,-2.875272409300095,-2.5227785274145056,-2.3778461363696715,-2.115503157039127,-1.846664700227818,12.577709932193882,-0.3369707641290238,-0.139098765,-0.892270665,0.46777224,3.70818,1.0224199999999999,-9.217039999999999,72.0
1774822093.826021,4.291534423828125e-06,2026-03-29T22:08:13.826,2026-03-29T18:08:13.826,-32343.704999999998,-49111.155,-85117.095,-50310.72,-14891.67,-19886.895,4982.535,-61882.244999999995,-3.045186629971833,-4.326086351268249,-4.593247071224601,-4.563864061463565,-4.018279407092964,-3.1839337057821697,5.67628183160822,0.04808521417343722,-0.139098765,-0.892270665,0.46777224,3.70818,1.0224199999999999,-9.217039999999999,72.0
1774822093.8307323,0.0047113895416259766,2026-03-29T22:08:13.830,2026-03-29T18:08:13.830,-32335.649999999998,-49102.965,-85107.33,-50297.354999999996,-14877.269999999999,-19871.505,4994.46,-61876.034999999996,-2.0425853998987655,-3.8269390696451677,-4.561853215991065,-4.743144903532794,-4.209785979050373,-3.1636393398829523,-3.7747341385776325,0.4425048194267157,-0.13500942,-0.888486495,0.47167848,1.19028,2.18218,-7.59948,72.0
1774822093.8307517,1.9311904907226562e-05,2026-03-29T22:08:13.830,2026-03-29T18:08:13.830,-32343.03,-49109.49,-85110.75,-50299.695,-14879.519999999999,-19871.774999999998,4987.9349999999995,-61883.729999999996,-0.1323151209841147,-1.6248562556019006,-2.4535156391727195,-2.8025275083811323,-2.5581905978605537,-1.7855169388261019,-11.1598491960325,0.7073242382107292,-0.13500942,-0.888486495,0.47167848,1.19028,2.18218,-7.59948,72.0
1774822093.8346817,0.003930091857910156,2026-03-29T22:08:13.834,2026-03-29T18:08:13.834,-32335.965,-49099.185,-85098.555,-50288.265,-14870.97,-19866.915,4968.179999999999,-61881.75,1.8044895071086893,1.2722202672744893,0.7566917928467356,0.4186638992686836,0.2585600486672526,0.368736125242514,-12.957193763153889,0.7385935666087899,-0.13500942,-0.888486495,0.47167848,1.19028,2.18218,-7.59948,72.0
1774822093.8347003,1.8596649169921875e-05,2026-03-29T22:08:13.834,2026-03-29T18:08:13.834,-32321.655,-49084.695,-85084.965,-50274.99,-14858.82,-19858.545,4980.96,-61867.395,2.894836677288089,3.559279415540842,3.5952774707296227,3.4918331725165057,3.027745245724525,2.37799623785608,-8.42217126203834,0.5083385104920957,-0.13500942,-0.888486495,0.47167848,1.19028,2.18218,-7.59948,72.0
1774822093.8385808,0.0038805007934570312,2026-03-29T22:08:13.838,2026-03-29T18:08:13.838,-32320.305,-49088.34,-85093.515,-50283.405,-14862.779999999999,-19854.225,5059.62,-61856.325,2.668125255649356,4.224716311884384,4.768986468626072,5.035243469537299,4.523946625121805,3.3732397416666964,0.10295005130620097,0.08048247791613566,-0.13500942,-0.888486495,0.47167848,1.19028,2.18218,-7.59948,72.0
1774822093.8385968,1.5974044799804688e-05,2026-03-29T22:08:13.838,2026-03-29T18:08:13.838,-32329.035,-49094.64,-85097.655,-50288.715,-14866.965,-19856.07,5053.005,-61867.079999999994,1.25696418453196,2.999298957087651,3.7569626826294393,4.338905404911604,4.053907362408007,2.9133676419002326,8.38304283734359,-0.40523327604209586,-0.13500942,-0.888486495,0.47167848,1.19028,2.18218,-7.59948,72.0
1774822093.8474529,0.008856058120727539,2026-03-29T22:08:13.847,2026-03-29T18:08:13.847,-32346.809999999998,-49111.604999999996,-85113.98999999999,-50306.04,-14884.109999999999,-19875.015,5004.8099999999995,-61884.36,-0.6796465049055174,0.4639058505696057,1.0441220361008645,1.6941437660087895,1.7810294378647993,1.1833104081316372,12.384443723958967,-0.7772860222874328,-0.13500942,-0.888486495,0.47167848,1.19028,2.18218,-7.59948,72.0
1774822093.8474708,1.7881393432617188e-05,2026-03-29T22:08:13.847,2026-03-29T18:08:13.847,-32344.515,-49109.04,-85110.795,-50301.765,-14878.439999999999,-19868.805,5011.245,-61881.615,-2.2667788232574115,-2.226338505261026,-2.109812216862295,-1.72643850236802,-1.323744123135634,-1.075594227704267,10.236535507992336,-0.8909475721705807,-0.13500942,-0.888486495,0.47167848,1.19028,2.18218,-7.59948,72.0
1774822093.8474877,1.6927719116210938e-05,2026-03-29T22:08:13.847,2026-03-29T18:08:13.847,-32333.355,-49096.305,-85098.23999999999,-50289.84,-14868.449999999999,-19862.864999999998,4997.655,-61876.979999999996,-2.810403798646461,-3.8703488142411415,-4.256249900409321,-4.3902980101093245,-3.895094354896804,-2.8796655804577993,3.10684207966518,-0.6826714250728491,-0.13500942,-0.888486495,0.47167848,1.19028,2.18218,-7.59948,72.0
1774822093.8474944,6.67572021484375e-06,2026-03-29T22:08:13.847,2026-03-29T18:08:13.847,-32328.27,-49092.39,-85096.17,-50288.22,-14869.26,-19865.88,4995.135,-61872.524999999994,-2.1002515791171823,-3.7594769329819315,-4.42584106971431,-5.095423515330733,-4.775957472273498,-3.4306477979685233,-5.420608944533292,-0.20139762529557068,-0.13500942,-0.888486495,0.47167848,1.19028,2.18218,-7.59948,72.0
1774822093.8504615,0.0029671192169189453,2026-03-29T22:08:13.850,2026-03-29T18:08:13.850,-32332.905,-49101.21,-85107.645,-50298.84,-14877.09,-19870.02,4999.139999999999,-61873.74,-0.4872559213061808,-1.983934705502841,-2.5695317838009575,-3.5173257367554234,-3.542950730086512,-2.471951139819903,-11.13746372176595,0.3968746014575871,-0.13415493,-0.886289235,0.47106813000000003,-1.03768,0.9308599999999999,-5.5393799999999995,72.0
1774822093.8504734,1.1920928955078125e-05,2026-03-29T22:08:13.850,2026-03-29T18:08:13.850,-32335.02,-49102.875,-85110.525,-50301.945,-14881.185,-19876.23,4995.495,-61878.329999999994,1.290486071219611,0.6255625283499394,0.429556054051348,-0.36159576521482034,-0.7139630900542981,-0.4132017377359323,-11.280540929471636,0.8946411471367305,-0.13415493,-0.886289235,0.47106813000000003,-1.03768,0.9308599999999999,-5.5393799999999995,72.0
1774822093.8566468,0.006173372268676758,2026-03-29T22:08:13.856,2026-03-29T18:08:13.856,-32331.645,-49098.24,-85105.44,-50298.659999999996,-14880.33,-19877.985,5003.73,-61875.18,2.4467672146845274,2.886829897612423,3.1751986197699305,2.951228910208153,2.4656236348797638,1.8395529067792205,-5.862800218199648,1.0883256835736694,-0.13415493,-0.886289235,0.47106813000000003,-1.03768,0.9308599999999999,-5.5393799999999995,72.0
1774822093.8566644,1.7642974853515625e-05,2026-03-29T22:08:13.856,2026-03-29T18:08:13.856,-32331.69,-49096.979999999996,-85101.48,-50295.645,-14881.41,-19886.489999999998,4985.639999999999,-61875.09,2.4953088935001535,3.803722689534907,4.409812171540279,4.928164300237887,4.572145181447502,3.280699252494442,2.37429839907459,0.86992692218062,-0.13415493,-0.886289235,0.47106813000000003,-1.03768,0.9308599999999999,-5.5393799999999995,72.0
1774822093.8710823,0.014417886734008789,2026-03-29T22:08:13.871,2026-03-29T18:08:13.871,-32332.86,-49097.295,-85098.19499999999,-50289.03,-14873.849999999999,-19877.265,4991.085,-61876.439999999995,1.4529760114836499,3.00707022496601,3.5939944034112226,4.68187332015003,4.645994424994999,3.2564917730222565,9.343593855091958,0.283479715111961,-0.13415493,-0.886289235,0.47106813000000003,-1.03768,0.9308599999999999,-5.5393799999999995,72.0
1774822093.8711128,3.0517578125e-05,2026-03-29T22:08:13.871,2026-03-29T18:08:13.871,-32328.315,-49090.455,-85087.17,-50275.71,-14855.13,-19847.745,5028.84,-61873.38,-0.18578415816194677,0.9030281164857454,1.145225802781152,2.3340480119208045,2.6351801202313165,1.7674521778971282,11.63418834805863,-0.4717149781985857,-0.13415493,-0.886289235,0.47106813000000003,-1.03768,0.9308599999999999,-5.5393799999999995,72.0
1774822093.8711357,2.288818359375e-05,2026-03-29T22:08:13.871,2026-03-29T18:08:13.871,-32320.754999999997,-49083.345,-85081.5,-50269.68,-14848.109999999999,-19836.54,5046.974999999999,-61865.82,-1.6833469649320458,-1.530673723975858,-1.7714697322415556,-1.041735824885901,-0.5678675778504378,-0.520835245704168,8.173920398593468,-1.1024874070393846,-0.13415493,-0.886289235,0.47106813000000003,-1.03768,0.9308599999999999,-5.5393799999999995,72.0
1774822093.8711429,7.152557373046875e-06,2026-03-29T22:08:13.871,2026-03-29T18:08:13.871,-32329.71,-49094.82,-85095.45,-50285.924999999996,-14866.154999999999,-19857.51,5007.6449999999995,-61870.365,-2.3912936346663143,-3.1997534441420306,-3.7977125918090313,-3.9122536140460475,-3.521408929802606,-2.5716016609479073,0.7239923030052966,-1.333073671250052,-0.13415493,-0.886289235,0.47106813000000003,-1.03768,0.9308599999999999,-5.5393799999999995,72.0
1774822093.8711512,8.344650268554688e-06,2026-03-29T22:08:13.871,2026-03-29T18:08:13.871,-32331.239999999998,-49095.72,-85094.775,-50287.095,-14870.025,-19866.87,4965.66,-61874.954999999994,-2.03118807171501,-3.387766494261431,-4.017290849380192,-4.985831093652319,-4.887216135554016,-3.447721463437119,-7.019664630414376,-1.0259042179142848,-0.13415493,-0.886289235,0.47106813000000003,-1.03768,0.9308599999999999,-5.5393799999999995,72.0
1774822093.8711565,5.245208740234375e-06,2026-03-29T22:08:13.871,2026-03-29T18:08:13.871,-32323.77,-49090.455,-85088.43,-50284.935,-14869.439999999999,-19866.015,5011.11,-61860.555,-0.8024874000588808,-2.065538515912884,-2.3743750702670967,-3.7996700325680317,-4.043829824031132,-2.7452931529950724,-11.25916725322286,-0.25925891420503444,-0.13415493,-0.886289235,0.47106813000000003,-1.03768,0.9308599999999999,-5.5393799999999995,72.0
1774822093.88538,0.014223575592041016,2026-03-29T22:08:13.885,2026-03-29T18:08:13.885,-32352.3,-49120.2,-85118.175,-50317.11,-14903.099999999999,-19898.594999999998,5003.054999999999,-61880.939999999995,0.72329653680738,0.11893991805003201,0.31842695711879,-0.9233447821663294,-1.3760005224859961,-0.7868602492702085,-9.952683314766299,0.6804917957872467,-0.13269009,-0.890561685,0.472227795,1.7396399999999999,-0.85456,-6.516019999999999,72.0
1774822093.8854077,2.765655517578125e-05,2026-03-29T22:08:13.885,2026-03-29T18:08:13.885,-32349.285,-49114.08,-85112.64,-50305.005,-14887.035,-19884.42,4981.7699999999995,-61886.744999999995,1.8677382966088725,2.1559886128549133,2.77932940816473,2.313131902265817,1.8976403175738108,1.5214112656942942,-3.789943745382479,1.4015192926075508,-0.13269009,-0.890561685,0.472227795,1.7396399999999999,-0.85456,-6.516019999999999,72.0
1774822093.8854315,2.384185791015625e-05,2026-03-29T22:08:13.885,2026-03-29T18:08:13.885,-32323.454999999998,-49084.155,-85076.86499999999,-50267.025,-14847.48,-19845.495,4999.95,-61866.405,2.1474788494805885,3.142428290991368,3.8689137337178576,4.43756278077987,4.2831009465322945,3.1080005218335858,4.177997877715295,1.5701397876789693,-0.13269009,-0.890561685,0.472227795,1.7396399999999999,-0.85456,-6.516019999999999,72.0
1774822093.8854415,1.0013580322265625e-05,2026-03-29T22:08:13.885,2026-03-29T18:08:13.885,-32322.329999999998,-49084.965,-85072.86,-50263.02,-14843.07,-19839.42,5031.99,-61856.82,1.4787508965831633,2.684762351779695,3.1214914609156303,4.511251740375311,4.698896083576916,3.237102133817257,10.054571197819461,1.0673711022029144,-0.13269009,-0.890561685,0.472227795,1.7396399999999999,-0.85456,-6.516019999999999,72.0
1774822093.8854547,1.3113021850585938e-05,2026-03-29T22:08:13.885,2026-03-29T18:08:13.885,-32326.92,-49092.165,-85086.54,-50278.725,-14859.224999999999,-19857.555,5037.66,-61859.88,0.197857390956985,1.0560532857691949,0.9465791777233403,2.5491292701716106,2.973664031288565,1.8563506648859263,11.003846282674584,0.06424506628930768,-0.13269009,-0.890561685,0.472227795,1.7396399999999999,-0.85456,-6.516019999999999,72.0
1774822093.885464,9.298324584960938e-06,2026-03-29T22:08:13.885,2026-03-29T18:08:13.885,-32328.495,-49095.494999999995,-85095.315,-50291.549999999996,-14871.465,-19866.105,5038.47,-61859.97,-1.1046453800206706,-0.9562062197072947,-1.588152870098821,-0.5063987526118419,-0.07891839408341834,-0.37621897423005124,6.613994625322179,-1.0290850643745042,-0.13269009,-0.890561685,0.472227795,1.7396399999999999,-0.85456,-6.516019999999999,72.0
1774822093.885475,1.0967254638671875e-05,2026-03-29T22:08:13.885,2026-03-29T18:08:13.885,-32342.67,-49109.265,-85108.68,-50310.494999999995,-14894.73,-19884.329999999998,4999.05,-61868.88,-1.8556976633071356,-2.430056092969531,-3.280161217036705,-3.2383805119993117,-3.0429594247121186,-2.4025656034570235,-0.9356825892496174,-1.7302529699091869,-0.13269009,-0.890561685,0.472227795,1.7396399999999999,-0.85456,-6.516019999999999,72.0
1774822093.8854835,8.58306884765625e-06,2026-03-29T22:08:13.885,2026-03-29T18:08:13.885,-32348.114999999998,-49112.46,-85107.69,-50308.83,-14894.595,-19884.149999999998,4968.63,-61873.829999999994,-1.7527543713325422,-2.73382690112693,-3.3653105096449365,-4.417063901848286,-4.5610247385020966,-3.2671831937105402,-7.9657453446829,-1.7004647970761815,-0.13269009,-0.890561685,0.472227795,1.7396399999999999,-0.85456,-6.516019999999999,72.0
1774822093.8854945,1.0967254638671875e-05,2026-03-29T22:08:13.885,2026-03-29T18:08:13.885,-32343.254999999997,-49108.545,-85102.69499999999,-50303.97,-14893.38,-19885.545,4975.514999999999,-61868.295,-0.8860465076497915,-1.7988516407721318,-1.8664055345874886,-3.559115196918864,-3.962356292967017,-2.5722509305899717,-11.09603927583412,-0.9114875604282251,-0.13269009,-0.890561685,0.472227795,1.7396399999999999,-0.85456,-6.516019999999999,72.0
1774822093.8855033,8.821487426757812e-06,2026-03-29T22:08:13.885,2026-03-29T18:08:13.885,-32334.21,-49102.2,-85096.44,-50294.384999999995,-14883.39,-19875.555,5004.315,-61856.46,0.31958175376806275,-0.12128564431983162,0.4438621778065456,-1.1272190421535635,-1.564724246750246,-0.6662602773546916,-8.870958058992525,0.31972654111625615,-0.13269009,-0.890561685,0.472227795,1.7396399999999999,-0.85456,-6.516019999999999,72.0
1774822093.890816,0.005312681198120117,2026-03-29T22:08:13.890,2026-03-29T18:08:13.890,-32324.805,-49090.229999999996,-85085.685,-50280.884999999995,-14868.765,-19861.29,5028.57,-61849.215,1.3101968116076903,1.4953924154874203,2.437247821940949,1.7131893002004854,1.4885376714443388,1.5259072380047198,-2.428975981214124,1.4559339117546366,-0.12829557,-0.89184342,0.46728396,5.5393799999999995,-1.78542,-6.14978,72.0
1774822093.8908412,2.5272369384765625e-05,2026-03-29T22:08:13.890,2026-03-29T18:08:13.890,-32328.27,-49090.455,-85088.79,-50278.409999999996,-14866.515,-19863.135,5015.474999999999,-61857.81,1.6573434646393534,2.3256485125162403,3.181828581332071,3.6542578487180317,3.774548887387449,2.9502952221686445,5.088149185046601,1.9763957754967867,-0.12829557,-0.89184342,0.46728396,5.5393799999999995,-1.78542,-6.14978,72.0
1774822093.8945029,0.003661632537841797,2026-03-29T22:08:13.894,2026-03-29T18:08:13.894,-32341.05,-49104.09,-85106.61,-50295.96,-14883.57,-19884.96,4991.445,-61868.79,1.2446483901821892,2.0498400253712026,2.3808539722036794,3.8526201065105163,4.258427837203989,2.932388375228354,10.077191437737623,1.6203158359585828,-0.12829557,-0.89184342,0.46728396,5.5393799999999995,-1.78542,-6.14978,72.0
1774822093.894513,1.0013580322265625e-05,2026-03-29T22:08:13.894,2026-03-29T18:08:13.894,-32349.285,-49115.88,-85117.31999999999,-50307.659999999996,-14894.279999999999,-19893.645,5009.3099999999995,-61869.735,0.30456168008450774,0.8753756617841368,0.49021417212896906,2.298890424441904,2.7668953085598633,1.5002667412363089,10.205849735788265,0.521128340362931,-0.12829557,-0.89184342,0.46728396,5.5393799999999995,-1.78542,-6.14978,72.0
1774822093.900692,0.006179094314575195,2026-03-29T22:08:13.900,2026-03-29T18:08:13.900,-32347.305,-49113.405,-85112.145,-50301.09,-14886.63,-19886.265,5005.035,-61871.13,-0.7052728124105909,-0.5939713032986821,-1.5317969939529958,-0.21363925884710475,0.04879880342082756,-0.6342263336799175,5.500743035962361,-0.8387839616872488,-0.12829557,-0.89184342,0.46728396,5.5393799999999995,-1.78542,-6.14978,72.0
1774822093.90071,1.811981201171875e-05,2026-03-29T22:08:13.900,2026-03-29T18:08:13.900,-32344.559999999998,-49109.265,-85106.34,-50294.79,-14880.599999999999,-19880.55,4997.205,-61871.534999999996,-1.3226486957049757,-1.6648659353675255,-2.708405295679206,-2.49090542227008,-2.5977119724342628,-2.426197818493899,-1.7152441460038879,-1.840639078879997,-0.12829557,-0.89184342,0.46728396,5.5393799999999995,-1.78542,-6.14978,72.0
1774822093.9058776,0.005167484283447266,2026-03-29T22:08:13.905,2026-03-29T18:08:13.905,-32340.914999999997,-49108.95,-85108.545,-50301.18,-14886.314999999999,-19882.98,4997.835,-61867.215,-1.2928290838095695,-1.8826346802781688,-2.518143193024422,-3.507848431216975,-3.9465025380463112,-3.00827481462486,-7.978952340162306,-2.015187496107324,-0.12829557,-0.89184342,0.46728396,5.5393799999999995,-1.78542,-6.14978,72.0
1774822093.9058948,1.71661376953125e-05,2026-03-29T22:08:13.905,2026-03-29T18:08:13.905,-32338.62,-49110.479999999996,-85114.17,-50312.655,-14894.055,-19882.44,5000.3099999999995,-61862.354999999996,-0.6744349087874348,-1.224875216965144,-1.1275977764266616,-2.8728811629112205,-3.4148813341907287,-2.1113986437791588,-10.357500708712973,-1.2680648539627646,-0.12829557,-0.89184342,0.46728396,5.5393799999999995,-1.78542,-6.14978,72.0
1774822093.9059076,1.2874603271484375e-05,2026-03-29T22:08:13.905,2026-03-29T18:08:13.905,-32343.975,-49111.155,-85110.345,-50301.225,-14879.16,-19869.975,5000.175,-61869.509999999995,0.20524703700805927,-0.07765047273107016,0.7217328862300684,-0.9751256377508175,-1.3171889274796047,-0.19099463278820825,-7.82427127858518,0.06594001348564943,-0.12829557,-0.89184342,0.46728396,5.5393799999999995,-1.78542,-6.14978,72.0
1774822093.905912,4.291534423828125e-06,2026-03-29T22:08:13.905,2026-03-29T18:08:13.905,-32344.065,-49109.805,-85105.44,-50295.915,-14876.189999999999,-19867.5,5005.98,-61869.329999999994,0.9179731762789817,0.9796648952763333,2.103491208889649,1.2388507180457817,1.3105108886845394,1.801373600104549,-1.69400805037129,1.3716489597224455,-0.12829557,-0.89184342,0.46728396,5.5393799999999995,-1.78542,-6.14978,72.0
1774822093.9106157,0.0047037601470947266,2026-03-29T22:08:13.910,2026-03-29T18:08:13.910,-32335.065,-49103.055,-85104.0,-50298.525,-14879.88,-19871.594999999998,5005.71,-61860.555,1.1411531298683193,1.4647172093637928,2.3702398722068683,2.7354101271160123,3.219943890346057,2.887096876477535,5.062758362631355,2.0398434948716515,-0.12231414,-0.888242355,0.47143434,9.55276,1.2055399999999998,-5.5699,72.0
1774822093.9106338,1.811981201171875e-05,2026-03-29T22:08:13.910,2026-03-29T18:08:13.910,-32332.14,-49102.875,-85107.465,-50303.07,-14885.595,-19878.48,5004.36,-61857.27,0.8042789674955497,1.2128836990825207,1.4587032792986303,2.877965196931432,3.5441686016781375,2.5395476925150957,9.267644682154717,1.7568011666065375,-0.12231414,-0.888242355,0.47143434,9.55276,1.2055399999999998,-5.5699,72.0
1774822093.9168303,0.006196498870849609,2026-03-29T22:08:13.916,2026-03-29T18:08:13.916,-32332.454999999998,-49104.494999999995,-85109.265,-50301.72,-14884.695,-19880.145,5000.13,-61856.28,0.10848312861890046,0.42698164512007875,-0.10843124434445461,1.6973046398196863,2.192429399044551,0.9388530159952033,9.035693719421685,0.657219549887451,-0.12231414,-0.888242355,0.47143434,9.55276,1.2055399999999998,-5.5699,72.0
1774822093.9168487,1.8358230590820312e-05,2026-03-29T22:08:13.916,2026-03-29T18:08:13.916,-32332.68,-49105.08,-85109.625,-50301.18,-14884.515,-19879.649999999998,4996.845,-61855.38,-0.5845674820225981,-0.4551846478740452,-1.5123897798693209,-0.16623782363678635,-0.1339401784763676,-1.1205974121585003,4.618685454702801,-0.7362712164307205,-0.12231414,-0.888242355,0.47143434,9.55276,1.2055399999999998,-5.5699,72.0
1774822093.920118,0.0032694339752197266,2026-03-29T22:08:13.920,2026-03-29T18:08:13.920,-32340.914999999997,-49105.305,-85106.06999999999,-50296.994999999995,-14880.465,-19876.905,4995.045,-61867.439999999995,-0.9357173356109968,-0.9965870898179756,-2.062696145549283,-1.8019089526409613,-2.299962649611673,-2.6224512716394774,-1.785381411553012,-1.7613868872957723,-0.12231414,-0.888242355,0.47143434,9.55276,1.2055399999999998,-5.5699,72.0
1774822093.9201517,3.361701965332031e-05,2026-03-29T22:08:13.920,2026-03-29T18:08:13.920,-32342.129999999997,-49102.29,-85099.14,-50293.259999999995,-14880.15,-19876.14,4995.54,-61868.34,-0.792283685109805,-0.9758165574836013,-1.5373821455117243,-2.472078589726106,-3.2882215462777884,-2.827082040585246,-7.13052264136802,-1.9343179455801018,-0.12231414,-0.888242355,0.47143434,9.55276,1.2055399999999998,-5.5699,72.0
1774822093.922765,0.0026133060455322266,2026-03-29T22:08:13.922,2026-03-29T18:08:13.922,-32339.835,-49102.02,-85097.97,-50292.36,-14877.314999999999,-19873.62,4993.29,-61864.695,-0.2543628426514718,-0.47594385532142025,-0.27105817562523515,-1.9446835702404297,-2.675857855309478,-1.6327689117761421,-8.97846000247273,-1.1834981860941627,-0.12231414,-0.888242355,0.47143434,9.55276,1.2055399999999998,-5.5699,72.0
1774822093.9228125,4.744529724121094e-05,2026-03-29T22:08:13.922,2026-03-29T18:08:13.922,-32334.48,-49097.7,-85092.20999999999,-50287.905,-14872.095,-19867.59,4993.514999999999,-61858.665,0.38520717702455426,0.18728075286035661,1.0432950322470669,-0.5650076078114998,-0.8141615680096321,0.37585768308893497,-6.613550497154588,0.11612986325965481,-0.12231414,-0.888242355,0.47143434,9.55276,1.2055399999999998,-5.5699,72.0
1774822093.9268024,0.0039899349212646484,2026-03-29T22:08:13.926,2026-03-29T18:08:13.926,-32331.555,-49095.63,-85090.68,-50284.845,-14869.439999999999,-19864.71,4989.465,-61858.17,0.7937044122059272,0.6492425855516688,1.7263605419982857,0.9497582571147851,1.3644640862953852,2.214098399451182,-1.3065474543284166,1.3268577627690987,-0.12231414,-0.888242355,0.47143434,9.55276,1.2055399999999998,-5.5699,72.0
1774822093.926819,1.6689300537109375e-05,2026-03-29T22:08:13.926,2026-03-29T18:08:13.926,-32331.914999999997,-49096.08,-85092.165,-50285.52,-14868.269999999999,-19862.055,4994.6849999999995,-61858.395,0.7664801233067958,0.6901099191421259,1.461367252748796,1.8770867813409347,2.808671696987883,2.9776026372577316,4.3617647783500795,1.8611384482401712,-0.12231414,-0.888242355,0.47143434,9.55276,1.2055399999999998,-5.5699,72.0
1774822093.931,0.004180908203125,2026-03-29T22:08:13.930,2026-03-29T18:08:13.930,-32343.57,-49108.32,-85108.05,-50302.08,-14885.324999999999,-19880.505,4974.885,-61870.59,0.32697141105159605,0.3378196896170113,0.4415736828024326,1.831718000309506,2.852006324765414,2.283166229962887,7.759868979329797,1.4700570455586437,-0.113219925,-0.87426534,0.47668335,10.63622,5.35626,-8.8508,72.0
1774822093.9310288,2.8848648071289062e-05,2026-03-29T22:08:13.931,2026-03-29T18:08:13.931,-32339.52,-49102.47,-85100.535,-50292.674999999996,-14876.234999999999,-19873.53,4977.9,-61871.13,-0.2891273106289212,-0.16707448074357154,-0.7524678030143941,0.9228357039844673,1.5184173369525118,0.4566346743866666,7.431787383846181,0.3644006777966339,-0.113219925,-0.87426534,0.47668335,10.63622,5.35626,-8.8508,72.0
1774822093.935035,0.004006147384643555,2026-03-29T22:08:13.935,2026-03-29T18:08:13.935,-32333.535,-49096.845,-85095.09,-50285.295,-14868.539999999999,-19864.755,5003.6849999999995,-61863.704999999994,-0.7557503818565512,-0.5176514669933999,-1.4731384881144127,-0.336425366406031,-0.5094000781021538,-1.622318301174916,3.7173485070811343,-0.8925772441897096,-0.113219925,-0.87426534,0.47668335,10.63622,5.35626,-8.8508,72.0
1774822093.935056,2.09808349609375e-05,2026-03-29T22:08:13.935,2026-03-29T18:08:13.935,-32331.555,-49096.755,-85098.285,-50289.299999999996,-14875.38,-19874.385,5025.96,-61859.34,-0.8227696784900397,-0.5142752770628939,-1.3506067272631133,-1.3067634975548288,-2.2341737512476803,-2.9433036745810086,-1.495374370932106,-1.6681955934465775,-0.113219925,-0.87426534,0.47668335,10.63622,5.35626,-8.8508,72.0
1774822093.9388375,0.003781557083129883,2026-03-29T22:08:13.938,2026-03-29T18:08:13.938,-32344.11,-49111.02,-85115.16,-50307.57,-14893.695,-19891.71,5017.1849999999995,-61870.634999999995,-0.44400362770121443,-0.17153958482828974,-0.48123579146194023,-1.541516196051165,-2.8290661430695314,-2.8527181937932298,-5.727109586154838,-1.578278561891887,-0.113219925,-0.87426534,0.47668335,10.63622,5.35626,-8.8508,72.0
1774822093.9388566,1.9073486328125e-05,2026-03-29T22:08:13.938,2026-03-29T18:08:13.938,-32343.84,-49108.365,-85110.61499999999,-50304.915,-14888.88,-19885.68,4973.445,-61879.454999999994,0.1964522918822595,0.29642190559776066,0.6356709229008407,-0.9898957785591069,-2.029877428579061,-1.3718688757085868,-7.090046427426675,-0.6803843100958601,-0.113219925,-0.87426534,0.47668335,10.63622,5.35626,-8.8508,72.0
1774822093.9442863,0.005429744720458984,2026-03-29T22:08:13.944,2026-03-29T18:08:13.944,-32333.175,-49095.405,-85095.0,-50286.555,-14868.404999999999,-19863.405,4983.57,-61872.435,0.7730350232098095,0.6006928321931465,1.3744287920696427,0.006385505597809085,-0.2504151227687213,0.8068168023122296,-5.130737645025638,0.5558896577968793,-0.113219925,-0.87426534,0.47668335,10.63622,5.35626,-8.8508,72.0
1774822093.9443123,2.5987625122070312e-05,2026-03-29T22:08:13.944,2026-03-29T18:08:13.944,-32337.045,-49098.78,-85097.385,-50287.68,-14867.955,-19862.684999999998,4992.525,-61871.399999999994,0.9799158204785108,0.5425354653623627,1.3232334450981669,0.9086936228059173,1.62806359913001,2.6447496046009373,-0.9570444032238498,1.4881012728262764,-0.113219925,-0.87426534,0.47668335,10.63622,5.35626,-8.8508,72.0
1774822093.94687,0.0025577545166015625,2026-03-29T22:08:13.946,2026-03-29T18:08:13.946,-32345.19,-49111.02,-85112.81999999999,-50304.195,-14886.09,-19881.36,5011.74,-61869.555,0.686284184885129,0.12861533951245785,0.5069458641212451,1.2624129026186566,2.687474283033106,3.2501437266389943,3.3702850911750484,1.6299599864168806,-0.113219925,-0.87426534,0.47668335,10.63622,5.35626,-8.8508,72.0
1774822093.946892,2.193450927734375e-05,2026-03-29T22:08:13.946,2026-03-29T18:08:13.946,-32344.469999999998,-49110.57,-85108.95,-50304.195,-14889.24,-19885.545,5017.905,-61867.665,0.009358631229705667,-0.425914447051151,-0.6253495051402786,0.9206254318950681,2.4156009779200724,2.3059946794372665,5.853909243164395,0.9033336243769372,-0.113219925,-0.87426534,0.47668335,10.63622,5.35626,-8.8508,72.0
1774822093.971902,0.025009870529174805,2026-03-29T22:08:13.971,2026-03-29T18:08:13.971,-32343.614999999998,-49108.365,-85105.485,-50299.784999999996,-14883.93,-19880.46,5010.885,-61871.354999999996,-0.7326897461522005,-0.8090532535044861,-1.4412566773702904,0.10296145691925787,0.9501562311319339,0.2299052417276818,5.4833741720220095,-0.3166426148076078,-0.11108370000000001,-0.8666359650000001,0.481627185,12.04014,7.56896,-9.33912,72.0
1774822093.9719193,1.7404556274414062e-05,2026-03-29T22:08:13.971,2026-03-29T18:08:13.971,-32345.82,-49108.905,-85108.77,-50301.54,-14885.82,-19882.844999999998,5009.22,-61875.674999999996,-1.1686577161535296,-0.7802641666083519,-1.4672275976339362,-0.7323961641676692,-0.9902749557115423,-2.012238975852635,2.6383389050637946,-1.389699571868865,-0.11108370000000001,-0.8666359650000001,0.481627185,12.04014,7.56896,-9.33912,72.0
1774822093.971939,1.9788742065429688e-05,2026-03-29T22:08:13.971,2026-03-29T18:08:13.971,-32337.315,-49101.84,-85100.94,-50293.17,-14878.755,-19875.87,5008.275,-61870.409999999996,-1.0549414149180145,-0.30712100490634425,-0.6508429228945486,-1.1329149526258395,-2.453947580187085,-3.3547233837399206,-1.184684690357937,-1.7393087680749022,-0.11108370000000001,-0.8666359650000001,0.481627185,12.04014,7.56896,-9.33912,72.0
1774822093.971949,1.0013580322265625e-05,2026-03-29T22:08:13.971,2026-03-29T18:08:13.971,-32330.699999999997,-49099.994999999995,-85098.51,-50292.18,-14877.18,-19874.655,4999.41,-61864.92,-0.4030098147802129,0.40280336405732226,0.5973961605672609,-0.8865418590399318,-2.7161480959950604,-3.134958872474339,-4.149304642554915,-1.1558093203775524,-0.11108370000000001,-0.8666359650000001,0.481627185,12.04014,7.56896,-9.33912,72.0
1774822093.9881155,0.01616644859313965,2026-03-29T22:08:13.988,2026-03-29T18:08:13.988,-32310.945,-49080.689999999995,-85077.45,-50277.645,-14867.73,-19864.44,5006.925,-61844.625,0.5099243635999218,0.9951571539336107,1.6092747816720754,-0.1294371008644513,-1.6324417960070878,-1.4154982003049132,-4.960314953569887,0.08323972129328974,-0.11108370000000001,-0.8666359650000001,0.481627185,12.04014,7.56896,-9.33912,72.0
1774822093.9881437,2.8133392333984375e-05,2026-03-29T22:08:13.988,2026-03-29T18:08:13.988,-32318.864999999998,-49084.83,-85082.175,-50282.865,-14873.13,-19869.255,5006.07,-61848.72,1.2579007602754504,1.1438979928746071,1.8085245781766595,0.7260335707506158,0.28458420659552436,1.0289730056160487,-3.426503551958669,1.3425523615969914,-0.11108370000000001,-0.8666359650000001,0.481627185,12.04014,7.56896,-9.33912,72.0
1774822093.988164,2.0265579223632812e-05,2026-03-29T22:08:13.988,2026-03-29T18:08:13.988,-32347.62,-49107.33,-85104.855,-50301.54,-14889.42,-19886.355,4980.599999999999,-61879.59,1.4619336321053327,0.722299488954994,1.0247866509108892,1.2059525243340217,2.1047082929669534,3.0599108901443417,-0.4624806492982982,1.9489823570135874,-0.11108370000000001,-0.8666359650000001,0.481627185,12.04014,7.56896,-9.33912,72.0
1774822093.9881716,7.62939453125e-06,2026-03-29T22:08:13.988,2026-03-29T18:08:13.988,-32349.239999999998,-49111.02,-85106.385,-50301.854999999996,-14888.654999999999,-19884.87,5001.705,-61875.045,0.9759968492293714,-0.1167223402440307,-0.39403316945313915,1.0241617863860746,2.9253574474276793,3.7024543522429645,2.4299106058886673,1.5427063081336134,-0.11108370000000001,-0.8666359650000001,0.481627185,12.04014,7.56896,-9.33912,72.0
1774822093.98818,8.344650268554688e-06,2026-03-29T22:08:13.988,2026-03-29T18:08:13.988,-32350.77,-49114.485,-85112.50499999999,-50305.86,-14889.42,-19885.725,5006.5199999999995,-61878.78,-0.025463975094729238,-0.9955571274898205,-1.7369540090768127,0.24017446614175933,2.312653349642726,2.609510103486008,3.9155331166246357,0.27949585957395673,-0.11108370000000001,-0.8666359650000001,0.481627185,12.04014,7.56896,-9.33912,72.0
1774822093.9881864,6.4373016357421875e-06,2026-03-29T22:08:13.988,2026-03-29T18:08:13.988,-32346.225,-49110.975,-85108.59,-50304.33,-14889.555,-19887.21,4994.415,-61878.375,-1.1063196042598828,-1.481986432939649,-2.2825450244265117,-0.7568448391765253,0.5258099471899108,0.24359001343501313,3.439198768578548,-1.2258780760892398,-0.11108370000000001,-0.8666359650000001,0.481627185,12.04014,7.56896,-9.33912,72.0
1774822093.988194,7.62939453125e-06,2026-03-29T22:08:13.988,2026-03-29T18:08:13.988,-32342.715,-49103.64,-85096.89,-50293.619999999995,-14882.265,-19882.035,4992.255,-61877.07,-1.756192511841921,-1.297524807320555,-1.675182419904309,-1.4357828561371153,-1.5890612030270777,-2.3165120482363064,1.4179515377747391,-2.19634840071894,-0.11291475000000001,-0.87255636,0.485289285,22.783179999999998,11.55182,-10.26998,72.0
1774822093.9882002,6.198883056640625e-06,2026-03-29T22:08:13.988,2026-03-29T18:08:13.988,-32344.559999999998,-49102.965,-85094.415,-50290.875,-14881.859999999999,-19882.755,4987.17,-61881.615,-1.6274426759633613,-0.4653849394530402,-0.13284226214539924,-1.3947929969789534,-2.994310183165291,-3.8648115350003738,-1.0446186961293722,-2.087007021935898,-0.11291475000000001,-0.87255636,0.485289285,22.783179999999998,11.55182,-10.26998,72.0
1774822093.9882078,7.62939453125e-06,2026-03-29T22:08:13.988,2026-03-29T18:08:13.988,-32348.565,-49108.185,-85100.535,-50295.689999999995,-14886.72,-19887.84,4961.655,-61888.049999999996,-0.7136993697779113,0.6764120645802038,1.6274537804357008,-0.5822633216589149,-2.963371013531728,-3.6330863752586406,-2.7453335682553006,-0.8793868447430818,-0.11291475000000001,-0.87255636,0.485289285,22.783179999999998,11.55182,-10.26998,72.0
1774822093.988214,6.198883056640625e-06,2026-03-29T22:08:13.988,2026-03-29T18:08:13.988,-32346.629999999997,-49105.215,-85096.215,-50289.75,-14880.105,-19882.98,4951.665,-61891.47,0.6188309520580878,1.611303791755273,2.7224694757548877,0.6479229622209558,-1.4504151070927767,-1.6690163678436378,-2.962697146056184,0.8794175118205975,-0.11291475000000001,-0.87255636,0.485289285,22.783179999999998,11.55182,-10.26998,72.0
1774822093.9882216,7.62939453125e-06,2026-03-29T22:08:13.988,2026-03-29T18:08:13.988,-32340.555,-49103.82,-85096.485,-50286.869999999995,-14874.074999999999,-19874.969999999998,4991.445,-61881.93,1.7739267492577766,1.8751310510041783,2.539163428071095,1.6860747865489896,0.8583637720237146,1.1570006810249545,-1.7540526874056088,2.324594879634973,-0.11291475000000001,-0.87255636,0.485289285,22.783179999999998,11.55182,-10.26998,72.0
1774822093.988228,6.4373016357421875e-06,2026-03-29T22:08:13.988,2026-03-29T18:08:13.988,-32336.954999999998,-49104.945,-85100.31,-50289.03,-14874.074999999999,-19875.69,5018.085,-61871.895,2.1888064140648127,1.2798439609352226,1.0615386627376053,1.960394459149422,2.8506431970839197,3.533539609478134,0.14872784454436305,2.6961162395571376,-0.11291475000000001,-0.87255636,0.485289285,22.783179999999998,11.55182,-10.26998,72.0
1774822093.9882357,7.62939453125e-06,2026-03-29T22:08:13.988,2026-03-29T18:08:13.988,-32339.114999999998,-49108.049999999996,-85104.54,-50293.89,-14878.845,-19880.37,5011.5599999999995,-61872.93,1.604026081873334,0.025140908787824642,-1.0804997059246302,1.237043167744013,3.517734942791273,4.3134299993588705,1.757854980373571,1.7303783991722363,-0.11291475000000001,-0.87255636,0.485289285,22.783179999999998,11.55182,-10.26998,72.0
1774822093.9882417,5.9604644775390625e-06,2026-03-29T22:08:13.988,2026-03-29T18:08:13.988,-32343.524999999998,-49107.06,-85102.515,-50296.229999999996,-14881.904999999999,-19879.02,4989.554999999999,-61885.665,0.21245277502534832,-1.362008472315372,-2.879442639769188,-0.22515049904025825,2.459104990990781,3.065383464011278,2.330857064315847,-0.1780360959484357,-0.11291475000000001,-0.87255636,0.485289285,22.783179999999998,11.55182,-10.26998,72.0
1774822093.9882493,7.62939453125e-06,2026-03-29T22:08:13.988,2026-03-29T18:08:13.988,-32338.53,-49096.619999999995,-85091.58,-50285.97,-14871.24,-19868.625,5008.995,-61883.28,-1.3939112540169298,-2.2451028609894736,-3.421086080029478,-1.7568311497991036,0.11217466203643564,0.30808134470846654,1.7039204755032114,-2.136859083608081,-0.11291475000000001,-0.87255636,0.485289285,22.783179999999998,11.55182,-10.26998,72.0
1774822093.9882553,5.9604644775390625e-06,2026-03-29T22:08:13.988,2026-03-29T18:08:13.988,-32335.605,-49097.61,-85097.205,-50293.215,-14878.529999999999,-19876.68,5029.875,-61875.63,-2.4716001439795954,-2.165014655682124,-2.3390121042814327,-2.577696996952738,-2.420439711043897,-2.6983856342174675,0.3119755863456295,-3.1740302311211073,-0.11291475000000001,-0.87255636,0.485289285,22.783179999999998,11.55182,-10.26998,72.0
1774822093.990867,0.0026116371154785156,2026-03-29T22:08:13.990,2026-03-29T18:08:13.990,-32341.004999999997,-49102.29,-85102.56,-50297.354999999996,-14884.47,-19883.34,4997.835,-61883.909999999996,-2.466797243345946,-1.0693518272826705,-0.03059276757369896,-2.1829951308776985,-3.8828933445429006,-4.524047914004585,-1.0833832952242999,-2.716846421732137,-0.11669892,-0.8834205900000001,0.488218965,39.30976,14.527519999999999,-13.21516,72.0
1774822093.9908853,1.8358230590820312e-05,2026-03-29T22:08:13.990,2026-03-29T18:08:13.990,-32340.285,-49099.095,-85097.43,-50293.53,-14882.175,-19883.204999999998,4957.29,-61888.365,-1.295092503009063,0.626488873880758,2.4836481754659734,-0.6301911614475644,-3.482834029240543,-4.246941510983851,-1.7968049981521081,-0.8972385152660641,-0.11669892,-0.8834205900000001,0.488218965,39.30976,14.527519999999999,-13.21516,72.0
1774822093.9946256,0.0037403106689453125,2026-03-29T22:08:13.994,2026-03-29T18:08:13.994,-32334.254999999997,-49090.32,-85084.69499999999,-50281.2,-14868.449999999999,-19869.975,4976.505,-61882.064999999995,0.5793925080641666,2.189611741739504,4.010046409439114,1.4290676394712833,-1.3128929881120144,-1.9174588517928706,-1.5440538552839151,1.475885630126021,-0.11669892,-0.8834205900000001,0.488218965,39.30976,14.527519999999999,-13.21516,72.0
1774822093.9946444,1.8835067749023438e-05,2026-03-29T22:08:13.994,2026-03-29T18:08:13.994,-32340.87,-49098.689999999995,-85095.27,-50288.49,-14873.67,-19875.329999999998,5002.155,-61883.82,2.320821756406526,2.8809208171583727,3.743170431658843,3.0139464491614953,1.644054162969951,1.4239281408707483,-0.5394579329218732,3.278602643246787,-0.11669892,-0.8834205900000001,0.488218965,39.30976,14.527519999999999,-13.21516,72.0
1774822093.9988236,0.004179239273071289,2026-03-29T22:08:13.998,2026-03-29T18:08:13.998,-32337.135,-49099.59,-85098.375,-50284.89,-14867.64,-19870.2,4996.44,-61879.409999999996,3.09134570110634,2.298185506392897,1.676746269153157,3.2735062052368913,3.953320486466518,4.205288604714484,0.6572116700271339,3.605187334687893,-0.11669892,-0.8834205900000001,0.488218965,39.30976,14.527519999999999,-13.21516,72.0
1774822093.9988403,1.6689300537109375e-05,2026-03-29T22:08:13.998,2026-03-29T18:08:13.998,-32325.344999999998,-49088.25,-85087.17,-50276.34,-14861.07,-19865.88,4990.455,-61875.045,2.4520132925671043,0.5946725444730873,-1.3403639798432132,1.9288493432933589,4.4187061659724085,5.059524669557874,1.44378250588485,2.2190468399963454,-0.11669892,-0.8834205900000001,0.488218965,39.30976,14.527519999999999,-13.21516,72.0
1774822094.00259,0.0037496089935302734,2026-03-29T22:08:14.002,2026-03-29T18:08:14.002,-32315.85,-49075.784999999996,-85074.66,-50265.54,-14849.55,-19852.2,5023.665,-61868.79,0.6041825981053371,-1.5402400985892477,-3.950569424815422,-0.5258154087358194,2.695326460530541,3.495311039932035,1.4671788054456179,-0.3017697497886557,-0.11669892,-0.8834205900000001,0.488218965,39.30976,14.527519999999999,-13.21516,72.0
1774822094.0026047,1.4781951904296875e-05,2026-03-29T22:08:14.002,2026-03-29T18:08:14.002,-32327.1,-49084.604999999996,-85083.48,-50273.729999999996,-14855.939999999999,-19855.844999999998,5021.37,-61878.015,-1.658182458293488,-3.1523900349332923,-4.896144178529233,-2.9890674275575706,-0.4861433097024537,0.17405370231174333,0.7664472272737398,-2.8072455854298313,-0.11669892,-0.8834205900000001,0.488218965,39.30976,14.527519999999999,-13.21516,72.0
1774822094.0068362,0.004231452941894531,2026-03-29T22:08:14.006,2026-03-29T18:08:14.006,-32344.245,-49103.009999999995,-85102.605,-50290.83,-14873.175,-19873.755,4993.11,-61889.31,-3.2854347976208698,-3.443696985733176,-3.618289323572394,-4.239412320979316,-3.6199423497673564,-3.360767229611024,-0.2823597202292348,-4.103604496581734,-0.11669892,-0.8834205900000001,0.488218965,39.30976,14.527519999999999,-13.21516,72.0
1774822094.006868,3.170967102050781e-05,2026-03-29T22:08:14.006,2026-03-29T18:08:14.006,-32351.265,-49113.45,-85112.28,-50302.979999999996,-14889.195,-19889.055,5004.45,-61888.814999999995,-3.4579669038491483,-2.1598679899463216,-0.5641291257500632,-3.5319915746433685,-5.132286796720609,-5.396352955068226,-1.1698614010626793,-3.522778427238239,-0.11669892,-0.8834205900000001,0.488218965,39.30976,14.527519999999999,-13.21516,72.0
1774822094.0110312,0.004163265228271484,2026-03-29T22:08:14.011,2026-03-29T18:08:14.011,-32352.12,-49112.955,-85109.265,-50306.354999999996,-14895.72,-19894.725,5004.224999999999,-61892.055,-1.996759598208782,0.24037397806742067,2.959676432871848,-1.01707851685112,-4.1657429242941735,-4.8787056720155935,-1.494346966621213,-1.260980859324754,-0.125426925,-0.886899585,0.489683805,50.464819999999996,13.642439999999999,-15.244739999999998,72.0
1774822094.01105,1.8835067749023438e-05,2026-03-29T22:08:14.011,2026-03-29T18:08:14.011,-32351.67,-49109.13,-85105.485,-50309.865,-14901.345,-19898.19,5002.83,-61897.86,0.505972356629498,2.7352138442199445,5.34456783281307,2.246364683204679,-1.05242902907942,-1.9566263702104119,-1.1283890118394644,1.6832647851840818,-0.125426925,-0.886899585,0.489683805,50.464819999999996,13.642439999999999,-15.244739999999998,72.0
1774822094.0146203,0.0035703182220458984,2026-03-29T22:08:14.014,2026-03-29T18:08:14.014,-32335.829999999998,-49087.305,-85082.76,-50293.619999999995,-14886.404999999999,-19883.969999999998,5016.69,-61894.079999999994,2.919794086528093,4.1685037586557385,5.411931069643565,4.727861367047683,2.780245864834035,2.0383800383483157,-0.2498315628893196,3.9544258409885082,-0.125426925,-0.886899585,0.489683805,50.464819999999996,13.642439999999999,-15.244739999999998,72.0
1774822094.0146408,2.0503997802734375e-05,2026-03-29T22:08:14.014,2026-03-29T18:08:14.014,-32333.489999999998,-49078.89,-85067.01,-50277.465,-14870.34,-19872.675,5000.8949999999995,-61896.915,4.08525810438427,3.7809700418794376,2.9873314146698613,5.137915910749301,5.458432140065157,5.192992101946352,0.7558869565973568,4.467910642146544,-0.125426925,-0.886899585,0.489683805,50.464819999999996,13.642439999999999,-15.244739999999998,72.0
1774822094.0197084,0.005067586898803711,2026-03-29T22:08:14.019,2026-03-29T18:08:14.019,-32337.629999999997,-49087.845,-85081.36499999999,-50283.314999999995,-14870.43,-19872.135,4972.23,-61898.085,3.3708356403252266,1.6019220411315886,-0.9596316521731175,3.0865449349001053,5.573202475596706,5.925627606857805,1.4640989774912512,2.9279440587326158,-0.125426925,-0.886899585,0.489683805,50.464819999999996,13.642439999999999,-15.244739999999998,72.0
1774822094.0197425,3.409385681152344e-05,2026-03-29T22:08:14.019,2026-03-29T18:08:14.019,-32339.565,-49105.305,-85102.605,-50292.134999999995,-14873.355,-19874.43,4987.3949999999995,-61890.165,1.0100394809290654,-1.496896143837622,-4.699320748847875,-0.644327922022883,2.913075788605026,3.7776975709564966,1.5765911712686853,-0.01207177410132537,-0.125426925,-0.886899585,0.489683805,50.464819999999996,13.642439999999999,-15.244739999999998,72.0
1774822094.0262134,0.006470918655395508,2026-03-29T22:08:14.026,2026-03-29T18:08:14.026,-32344.875,-49113.63,-85109.44499999999,-50301.09,-14885.279999999999,-19888.245,4974.21,-61892.28,-1.9593306213303625,-4.140994710939882,-6.500151676032944,-4.383625296566344,-1.3599624346207377,-0.3127224226907993,1.0278387295956757,-3.030478322091527,-0.125426925,-0.886899585,0.489683805,50.464819999999996,13.642439999999999,-15.244739999999998,72.0
1774822094.0262277,1.430511474609375e-05,2026-03-29T22:08:14.026,2026-03-29T18:08:14.026,-32348.295,-49105.799999999996,-85095.045,-50303.25,-14894.91,-19898.73,4954.545,-61898.49,-4.14906965620587,-5.059336097183432,-5.428763299359425,-6.316211929273361,-5.211355523234228,-4.413097536242948,0.005959971851909428,-4.736969018264945,-0.125426925,-0.886899585,0.489683805,50.464819999999996,13.642439999999999,-15.244739999999998,72.0
1774822094.02624,1.239776611328125e-05,2026-03-29T22:08:14.026,2026-03-29T18:08:14.026,-32344.289999999997,-49087.665,-85069.53,-50288.265,-14883.48,-19884.825,4973.715,-61899.21,-4.470510715022419,-3.6915671400573613,-1.823083276001942,-5.360005954008838,-6.699591690608557,-6.506209281654832,-1.1095932865412483,-4.316326855327845,-0.125426925,-0.886899585,0.489683805,50.464819999999996,13.642439999999999,-15.244739999999998,72.0
1774822094.0262444,4.291534423828125e-06,2026-03-29T22:08:14.026,2026-03-29T18:08:14.026,-32327.864999999998,-49081.455,-85073.22,-50276.115,-14867.324999999999,-19866.69,5005.755,-61882.604999999996,-2.675832364446893,-0.5075644228681162,2.7979831415409078,-1.7525831193214,-4.949469845548564,-5.480631574717192,-1.873719696590495,-1.916671510254157,-0.125426925,-0.886899585,0.489683805,50.464819999999996,13.642439999999999,-15.244739999999998,72.0
1774822094.0307844,0.004539966583251953,2026-03-29T22:08:14.030,2026-03-29T18:08:14.030,-32331.059999999998,-49086.72,-85075.245,-50280.884999999995,-14873.265,-19873.215,5013.315,-61876.125,0.4785983704341395,3.135927085936729,6.374755948162565,2.9643462360473687,-0.6469043133214913,-1.7160914459363705,-1.9331785517939335,1.4022741561860748,-0.12915006,-0.88464129,0.49047726,54.615539999999996,13.82556,-15.26,72.0
1774822094.0308053,2.09808349609375e-05,2026-03-29T22:08:14.030,2026-03-29T18:08:14.030,-32324.579999999998,-49073.085,-85059.855,-50279.49,-14874.615,-19872.36,4993.785,-61880.67,3.5466572194547514,5.569534185467914,7.227414536859138,6.599907285407511,4.21762306137437,3.042859045228974,-1.1731252450194152,4.142732061333129,-0.12915006,-0.88464129,0.49047726,54.615539999999996,13.82556,-15.26,72.0
1774822094.0352488,0.00444340705871582,2026-03-29T22:08:14.035,2026-03-29T18:08:14.035,-32320.98,-49085.955,-85083.39,-50282.369999999995,-14868.314999999999,-19865.969999999998,4994.6849999999995,-61875.09,5.056572398263898,5.575705458247704,4.844559273302876,7.332762186265263,7.2685517530143136,6.492221643733147,0.19939803618398858,5.050026803872176,-0.12915006,-0.88464129,0.49047726,54.615539999999996,13.82556,-15.26,72.0
1774822094.0352669,1.811981201171875e-05,2026-03-29T22:08:14.035,2026-03-29T18:08:14.035,-32315.895,-49077.945,-85075.515,-50278.229999999996,-14869.215,-19870.02,4997.925,-61872.119999999995,4.21931102094619,2.9934759487516343,0.1692990798578091,4.6192269374106045,6.90354600111307,6.88266049544766,1.6834263174181443,3.6892334781309954,-0.12915006,-0.88464129,0.49047726,54.615539999999996,13.82556,-15.26,72.0
1774822094.0389864,0.0037195682525634766,2026-03-29T22:08:14.038,2026-03-29T18:08:14.038,-32316.12,-49055.445,-85041.495,-50265.63,-14868.63,-19871.954999999998,4979.7,-61891.2,1.3391019853102533,-1.1355346062518001,-4.771231503186594,-0.46096693108165177,3.12605630460292,3.90383339829978,2.6432017334146805,0.6513661326055641,-0.12915006,-0.88464129,0.49047726,54.615539999999996,13.82556,-15.26,72.0
1774822094.0390084,2.193450927734375e-05,2026-03-29T22:08:14.039,2026-03-29T18:08:14.039,-32315.039999999997,-49033.53,-85002.48,-50247.63,-14861.88,-19869.3,4975.2,-61913.88,-2.286963866151603,-4.980607219207042,-7.749513979481512,-5.625855782275979,-2.3775672862802404,-1.107427925674666,2.564262326301551,-2.7076360170819145,-0.12915006,-0.88464129,0.49047726,54.615539999999996,13.82556,-15.26,72.0
1774822094.042988,0.003979682922363281,2026-03-29T22:08:14.042,2026-03-29T18:08:14.042,-32328.989999999998,-49053.465,-85020.12,-50271.525,-14881.949999999999,-19889.37,4975.605,-61926.165,-4.953796848988393,-6.734897844394048,-7.3475644842255745,-8.420430839826064,-6.99034916230601,-5.76408398748427,1.3127408928131397,-4.8777536750362325,-0.12915006,-0.88464129,0.49047726,54.615539999999996,13.82556,-15.26,72.0
1774822094.0430503,6.222724914550781e-05,2026-03-29T22:08:14.043,2026-03-29T18:08:14.043,-32331.555,-49084.38,-85068.22499999999,-50284.619999999995,-14877.135,-19881.405,4987.665,-61915.005,-5.353817177738837,-5.46653244935064,-3.632678506254967,-7.387917767944196,-8.411321945493563,-7.7661729488471085,-0.7271263180032006,-4.877893889227215,-0.12915006,-0.88464129,0.49047726,54.615539999999996,13.82556,-15.26,72.0
1774822094.047868,0.0048177242279052734,2026-03-29T22:08:14.047,2026-03-29T18:08:14.047,-32326.289999999997,-49075.92,-85051.215,-50263.47,-14866.515,-19875.51,5000.715,-61896.689999999995,-3.2208501752650336,-1.6057162988434608,1.8239546421635435,-2.8218471192073085,-5.801264054767635,-6.0361893715239345,-2.73551707230469,-2.7004305811925207,-0.12915006,-0.88464129,0.49047726,54.615539999999996,13.82556,-15.26,72.0
1774822094.0478892,2.1219253540039062e-05,2026-03-29T22:08:14.047,2026-03-29T18:08:14.047,-32335.02,-49089.24,-85074.12,-50278.229999999996,-14871.24,-19874.79,5012.639999999999,-61878.104999999996,0.5061117697413643,3.184372328198923,6.616224107900477,3.2874759843836214,-0.2570458172099563,-1.2916886309671076,-3.7692144314388756,0.6843598627591176,-0.12915006,-0.88464129,0.49047726,54.615539999999996,13.82556,-15.26,72.0
1774822094.0509057,0.0030164718627929688,2026-03-29T22:08:14.050,2026-03-29T18:08:14.050,-32340.914999999997,-49093.244999999995,-85093.73999999999,-50299.02,-14886.314999999999,-19888.92,4994.1449999999995,-61881.299999999996,4.0957833636568015,6.725332900749361,8.573442647032541,8.125386712336786,5.64673339729197,4.246902020437634,-3.195482032282972,3.765201095879945,-0.125793135,-0.88293231,0.50402703,54.7071,13.55088,-9.079699999999999,72.0
1774822094.0509243,1.8596649169921875e-05,2026-03-29T22:08:14.050,2026-03-29T18:08:14.050,-32340.6,-49089.42,-85078.845,-50295.869999999995,-14888.34,-19892.655,4971.42,-61896.24,5.833198235323896,7.320089456971434,6.751905971184379,9.359960643370508,9.059205210463043,7.8977895345375035,-1.0520569082727573,5.169340090596488,-0.125793135,-0.88293231,0.50402703,54.7071,13.55088,-9.079699999999999,72.0
1774822094.055856,0.00493168830871582,2026-03-29T22:08:14.055,2026-03-29T18:08:14.055,-32346.495,-49111.604999999996,-85107.69,-50293.845,-14874.074999999999,-19878.344999999998,4970.655,-61905.24,4.84450154992692,4.569642166936237,1.8906375275227216,6.271871189661722,8.234345677060189,7.819043912195089,1.8636858964786585,4.277303492878177,-0.125793135,-0.88293231,0.50402703,54.7071,13.55088,-9.079699999999999,72.0
1774822094.0558877,3.170967102050781e-05,2026-03-29T22:08:14.055,2026-03-29T18:08:14.055,-32346.495,-49140.54,-85154.715,-50295.915,-14860.305,-19858.86,5006.61,-61893.899999999994,1.538659456084182,-0.38505984432221924,-3.8899617669440985,0.15612532156826367,3.419961317084644,3.936426576922322,4.269340441909163,1.4965783039027052,-0.125793135,-0.88293231,0.50402703,54.7071,13.55088,-9.079699999999999,72.0
1774822094.0602243,0.00433659553527832,2026-03-29T22:08:14.060,2026-03-29T18:08:14.060,-32330.024999999998,-49117.005,-85130.145,-50278.994999999995,-14850.045,-19851.885,5032.17,-61879.005,-2.5584166986432924,-5.335504381052991,-8.023770685182612,-6.223682802255966,-3.1973289255729798,-1.969790177524148,4.955912624313779,-1.9265871353712707,-0.125793135,-0.88293231,0.50402703,54.7071,13.55088,-9.079699999999999,72.0
1774822094.0602405,1.621246337890625e-05,2026-03-29T22:08:14.060,2026-03-29T18:08:14.060,-32328.719999999998,-49100.715,-85099.635,-50271.345,-14851.215,-19858.094999999998,5018.535,-61879.049999999996,-5.512342422486069,-7.997850589295401,-8.651595398816468,-9.898054695262474,-8.493255840790411,-7.084979172141094,3.3900962221865583,-4.469475358547769,-0.125793135,-0.88293231,0.50402703,54.7071,13.55088,-9.079699999999999,72.0
1774822094.0632222,0.0029816627502441406,2026-03-29T22:08:14.063,2026-03-29T18:08:14.063,-32339.655,-49111.604999999996,-85110.03,-50288.445,-14868.0,-19875.149999999998,5010.885,-61881.165,-5.900786232435499,-7.075866092152895,-5.466861165637157,-9.08800970131222,-9.891337984097758,-8.907989535590776,0.06158014577869011,-5.014258187969423,-0.125793135,-0.88293231,0.50402703,54.7071,13.55088,-9.079699999999999,72.0
1774822094.0633042,8.20159912109375e-05,2026-03-29T22:08:14.063,2026-03-29T18:08:14.063,-32342.175,-49111.695,-85111.245,-50289.119999999995,-14870.115,-19877.579999999998,5003.595,-61887.24,-3.5047572894051373,-2.895409677906502,0.13524430123570622,-4.071559871549481,-6.621249420252907,-6.477987836321935,-3.634081707392173,-3.342254001385605,-0.125793135,-0.88293231,0.50402703,54.7071,13.55088,-9.079699999999999,72.0
1774822094.0753727,0.012068510055541992,2026-03-29T22:08:14.075,2026-03-29T18:08:14.075,-32323.949999999997,-49087.619999999995,-85083.12,-50262.884999999995,-14848.875,-19859.895,5003.01,-61886.159999999996,0.5684148874363661,2.702210610612554,5.6784501363689115,2.9051050548243924,-0.1323988205146254,-0.8760180289939777,-5.9757409718718995,-0.22165070724919966,-0.125793135,-0.88293231,0.50402703,54.7071,13.55088,-9.079699999999999,72.0
1774822094.0753999,2.7179718017578125e-05,2026-03-29T22:08:14.075,2026-03-29T18:08:14.075,-32316.57,-49077.63,-85074.165,-50258.61,-14845.769999999999,-19856.024999999998,5019.255,-61880.13,4.399506770942069,7.17893802160908,8.716142932410195,8.648009489177982,6.55634541788374,5.259537462738645,-5.7221511563135925,2.9464268241124496,-0.125793135,-0.88293231,0.50402703,54.7071,13.55088,-9.079699999999999,72.0
1774822094.075424,2.4080276489257812e-05,2026-03-29T22:08:14.075,2026-03-29T18:08:14.075,-32340.015,-49099.814999999995,-85096.34999999999,-50277.915,-14864.175,-19876.815,4984.5599999999995,-61894.979999999996,6.169480479225739,8.463616388400222,7.926779248755795,10.497431328225016,10.275844525559194,8.985308086348242,-2.7634749739871256,4.76034719534456,-0.11657685,-0.874204305,0.528624135,52.89116,17.060679999999998,-10.16316,72.0
1774822094.075434,1.0013580322265625e-05,2026-03-29T22:08:14.075,2026-03-29T18:08:14.075,-32352.434999999998,-49117.095,-85112.955,-50284.485,-14868.0,-19883.7,4975.11,-61896.869999999995,5.03249541502049,5.921247239338307,3.6960404186187774,7.5746004413183945,9.220851272716835,8.474254311847465,1.7219614525624607,4.442561269762242,-0.11657685,-0.874204305,0.528624135,52.89116,17.060679999999998,-10.16316,72.0
1774822094.075447,1.3113021850585938e-05,2026-03-29T22:08:14.075,2026-03-29T18:08:14.075,-32342.579999999998,-49108.005,-85103.73,-50271.03,-14853.779999999999,-19868.985,5003.865,-61883.189999999995,1.5266266494165341,0.6688833330021199,-2.0748265495620464,1.2011329143272047,3.829331281821619,3.914864979999856,5.729646257195967,2.176544828823304,-0.11657685,-0.874204305,0.528624135,52.89116,17.060679999999998,-10.16316,72.0
1774822094.0754564,9.298324584960938e-06,2026-03-29T22:08:14.075,2026-03-29T18:08:14.075,-32338.305,-49103.369999999995,-85105.89,-50284.575,-14865.119999999999,-19870.11,5011.695,-61880.085,-2.6803699014679854,-4.920527633396064,-6.838777660019146,-5.710833099434191,-3.4038073106013207,-2.5567010330876805,7.3334937033847725,-0.9914671506527544,-0.11657685,-0.874204305,0.528624135,52.89116,17.060679999999998,-10.16316,72.0
1774822094.079598,0.004141569137573242,2026-03-29T22:08:14.079,2026-03-29T18:08:14.079,-32350.995,-49118.625,-85127.67,-50317.965,-14894.279999999999,-19895.805,4981.7699999999995,-61893.81,-5.590810342128885,-8.304109808860503,-8.5464882116887,-10.011345744933697,-9.097703293934948,-7.86867658808252,5.620683231913801,-3.6360426308520855,-0.11657685,-0.874204305,0.528624135,52.89116,17.060679999999998,-10.16316,72.0
1774822094.0796375,3.9577484130859375e-05,2026-03-29T22:08:14.079,2026-03-29T18:08:14.079,-32352.704999999998,-49113.81,-85106.87999999999,-50305.455,-14891.085,-19898.415,4972.32,-61898.49,-5.836397487938889,-7.941784212235839,-6.54125526328864,-9.76978152115324,-10.584357671736724,-9.485691662457272,1.1979923989504406,-4.598309264149132,-0.11657685,-0.874204305,0.528624135,52.89116,17.060679999999998,-10.16316,72.0
1774822094.082996,0.0033583641052246094,2026-03-29T22:08:14.082,2026-03-29T18:08:14.082,-32341.274999999998,-49098.509999999995,-85081.59,-50272.92,-14866.92,-19877.67,4998.285,-61887.869999999995,-3.3317874920943042,-4.007534789466721,-1.8076658780286592,-5.151897977615506,-7.170389906175159,-6.62875706579522,-4.007685043297988,-3.500057392467716,-0.11657685,-0.874204305,0.528624135,52.89116,17.060679999999998,-10.16316,72.0
1774822094.083016,2.002716064453125e-05,2026-03-29T22:08:14.083,2026-03-29T18:08:14.083,-32327.414999999997,-49079.835,-85058.415,-50242.59,-14841.09,-19855.44,5014.889999999999,-61880.354999999996,0.6945825021122863,1.6944868706671155,3.518704363198692,1.6872378959804468,-0.45893958360055714,-0.6509864344284478,-7.599441470991775,-0.8955386495590473,-0.11657685,-0.874204305,0.528624135,52.89116,17.060679999999998,-10.16316,72.0
1774822094.088348,0.005331993103027344,2026-03-29T22:08:14.088,2026-03-29T18:08:14.088,-32326.379999999997,-49080.24,-85059.36,-50239.799999999996,-14837.265,-19850.265,5010.525,-61880.625,4.305129958302789,6.569052649342412,7.134226406477418,7.6288678922242354,6.417870152883986,5.613270084521328,-7.831209411096575,2.0020155798682486,-0.11657685,-0.874204305,0.528624135,52.89116,17.060679999999998,-10.16316,72.0
1774822094.0883653,1.7404556274414062e-05,2026-03-29T22:08:14.088,2026-03-29T18:08:14.088,-32331.329999999998,-49092.93,-85081.59,-50263.064999999995,-14860.035,-19866.42,5000.58,-61881.345,5.795165397536518,8.429052068741395,7.581753561997723,10.037976322531819,10.282316033273155,9.208899868105167,-4.4667559812119615,3.887117340763823,-0.11657685,-0.874204305,0.528624135,52.89116,17.060679999999998,-10.16316,72.0
1774822094.0908868,0.002521514892578125,2026-03-29T22:08:14.090,2026-03-29T18:08:14.090,-32342.309999999998,-49108.68,-85105.215,-50292.494999999995,-14881.859999999999,-19881.989999999998,4997.61,-61887.645,4.5104302538989325,6.49256185522238,4.841039454169243,7.948926721087454,9.397858160506422,8.469658365547486,1.051305008320212,3.957258615312886,-0.110046105,-0.87145773,0.5453477250000001,60.10914,23.5767,-16.908079999999998,72.0
1774822094.090907,2.0265579223632812e-05,2026-03-29T22:08:14.090,2026-03-29T18:08:14.090,-32338.215,-49103.28,-85100.805,-50291.28,-14869.755,-19867.32,5008.905,-61885.845,1.1424235250602697,1.7156452750971272,0.2536599471151119,2.4472063276890736,4.254707932405206,3.7969702580676508,6.229829047089645,2.2625487238050193,-0.110046105,-0.87145773,0.5453477250000001,60.10914,23.5767,-16.908079999999998,72.0
1774822094.096423,0.0055158138275146484,2026-03-29T22:08:14.096,2026-03-29T18:08:14.096,-32324.445,-49092.705,-85094.055,-50292.045,-14865.705,-19862.19,5033.835,-61873.2,-2.6360611977439854,-3.683348488564108,-4.144504432505277,-3.9010992024452706,-2.7042935180889955,-2.55993898659836,8.672768967587828,-0.34654724586589886,-0.110046105,-0.87145773,0.5453477250000001,60.10914,23.5767,-16.908079999999998,72.0
1774822094.09644,1.71661376953125e-05,2026-03-29T22:08:14.096,2026-03-29T18:08:14.096,-32335.515,-49104.72,-85101.48,-50301.945,-14879.25,-19873.575,5005.9349999999995,-61886.295,-5.006385297575801,-7.270236016108284,-6.546971217422203,-8.270269148457126,-8.264443714195982,-7.602400086772631,7.209670761288088,-2.6400870794471025,-0.110046105,-0.87145773,0.5453477250000001,60.10914,23.5767,-16.908079999999998,72.0
1774822094.098801,0.002360820770263672,2026-03-29T22:08:14.098,2026-03-29T18:08:14.098,-32331.42,-49100.534999999996,-85091.985,-50290.965,-14876.505,-19876.454999999998,4974.795,-61884.945,-4.891695201421046,-7.511532252446244,-6.128010481252998,-8.8545063528607,-9.946903647786502,-9.016128034742119,2.4636499522478013,-3.592766651282548,-0.110046105,-0.87145773,0.5453477250000001,60.10914,23.5767,-16.908079999999998,72.0
1774822094.098812,1.1205673217773438e-05,2026-03-29T22:08:14.098,2026-03-29T18:08:14.098,-32322.285,-49093.244999999995,-85084.065,-50279.939999999995,-14866.92,-19870.155,4975.5599999999995,-61880.759999999995,-2.4583646055423527,-4.44002583272636,-3.304004226706743,-5.616005337215624,-7.125508641874831,-6.245929690231776,-3.4208745470428368,-2.852537167021531,-0.110046105,-0.87145773,0.5453477250000001,60.10914,23.5767,-16.908079999999998,72.0
1774822094.1074204,0.008608341217041016,2026-03-29T22:08:14.107,2026-03-29T18:08:14.107,-32311.664999999997,-49087.305,-85080.465,-50275.53,-14863.769999999999,-19867.454999999998,4979.205,-61876.755,1.00806253430253,0.4247399543769916,0.5648342405322444,-0.1905376207739857,-1.2434766839918958,-0.7057937150603578,-7.768733758739007,-0.8749459757838609,-0.110046105,-0.87145773,0.5453477250000001,60.10914,23.5767,-16.908079999999998,72.0
1774822094.1074383,1.7881393432617188e-05,2026-03-29T22:08:14.107,2026-03-29T18:08:14.107,-32310.855,-49085.865,-85070.97,-50263.74,-14851.8,-19856.969999999998,4972.7699999999995,-61874.1,3.775781841406904,4.835569241206435,3.843678796526181,4.951312556327253,4.9352108876035246,4.950988025634084,-8.615075599881829,1.3314908352331603,-0.110046105,-0.87145773,0.5453477250000001,60.10914,23.5767,-16.908079999999998,72.0
1774822094.107453,1.4781951904296875e-05,2026-03-29T22:08:14.107,2026-03-29T18:08:14.107,-32309.684999999998,-49064.895,-85041.58499999999,-50235.21,-14824.305,-19834.11,4976.55,-61873.74,4.539019780572618,6.87425447922191,5.3280651386401745,7.652149476255377,8.647659153762186,8.12205940050815,-5.6090273400313855,2.7149331712630143,-0.110046105,-0.87145773,0.5453477250000001,60.10914,23.5767,-16.908079999999998,72.0
1774822094.1074595,6.4373016357421875e-06,2026-03-29T22:08:14.107,2026-03-29T18:08:14.107,-32301.945,-49050.63,-85028.805,-50226.03,-14817.689999999999,-19829.295,4992.075,-61868.024999999994,3.0476904715461957,5.800528513881705,4.673293760224593,6.980620243856002,8.384405383882457,7.470411424142712,-0.15629797047098926,2.6896254131099324,-0.110046105,-0.87145773,0.5453477250000001,60.10914,23.5767,-16.908079999999998,72.0
1774822094.1132512,0.005791664123535156,2026-03-29T22:08:14.113,2026-03-29T18:08:14.113,-32313.555,-49068.494999999995,-85048.245,-50250.195,-14841.494999999999,-19850.895,5028.345,-61865.415,0.18482366725178848,2.3102516163343134,2.4020295518423898,3.518790704148077,4.496233946447369,3.4878161275366426,5.255948744082664,1.3952060491305214,-0.109801965,-0.8839088700000001,0.557554725,73.81262,26.186159999999997,-12.77262,72.0
1774822094.1132736,2.2411346435546875e-05,2026-03-29T22:08:14.113,2026-03-29T18:08:14.113,-32340.914999999997,-49106.43,-85087.395,-50292.765,-14881.994999999999,-19882.575,5064.075,-61868.25,-2.5306158503964142,-1.8815772238283845,-0.4448527195352371,-1.0430913147677743,-1.0847259722468106,-1.8302954607645887,8.219674587322984,-0.4147980004800977,-0.109801965,-0.8839088700000001,0.557554725,73.81262,26.186159999999997,-12.77262,72.0
1774822094.1132925,1.8835067749023438e-05,2026-03-29T22:08:14.113,2026-03-29T18:08:14.113,-32351.535,-49123.71,-85104.62999999999,-50311.08,-14899.724999999999,-19896.84,5047.785,-61873.56,-3.7445444081553907,-4.894177504975664,-2.799362625739785,-4.747964337505205,-5.820886105666448,-5.998056221725532,7.497869285598802,-1.7877732466832978,-0.109801965,-0.8839088700000001,0.557554725,73.81262,26.186159999999997,-12.77262,72.0
1774822094.1132991,6.67572021484375e-06,2026-03-29T22:08:14.113,2026-03-29T18:08:14.113,-32350.454999999998,-49129.83,-85116.645,-50319.314999999995,-14903.955,-19900.89,5002.0199999999995,-61879.59,-2.9522634756070856,-5.541529844437029,-3.9610215946082246,-6.223411055280198,-7.742425291567461,-7.220378411487093,3.5423598268792076,-2.0701694232580143,-0.109801965,-0.8839088700000001,0.557554725,73.81262,26.186159999999997,-12.77262,72.0
1774822094.1194308,0.006131649017333984,2026-03-29T22:08:14.119,2026-03-29T18:08:14.119,-32339.745,-49117.814999999995,-85106.52,-50312.835,-14898.33,-19895.175,4973.3099999999995,-61881.21,-0.7169699228985974,-3.7983531894003293,-3.7518755843960068,-5.166550238600668,-6.265977423283691,-5.1717251798156605,-1.7800597872767574,-1.23004614468001,-0.109801965,-0.8839088700000001,0.557554725,73.81262,26.186159999999997,-12.77262,72.0
1774822094.1194835,5.269050598144531e-05,2026-03-29T22:08:14.119,2026-03-29T18:08:14.119,-32339.969999999998,-49106.25,-85078.935,-50296.409999999996,-14888.88,-19888.29,4966.0199999999995,-61881.795,1.677075011356511,-0.6885965225495436,-2.4348750077908647,-2.305000707213982,-2.3188751860931833,-1.0315067398610231,-6.0909838571073305,0.16007402987330024,-0.109801965,-0.8839088700000001,0.557554725,73.81262,26.186159999999997,-12.77262,72.0
1774822094.1231463,0.0036628246307373047,2026-03-29T22:08:14.123,2026-03-29T18:08:14.123,-32335.289999999997,-49090.86,-85050.09,-50272.83,-14869.305,-19872.809999999998,4960.755,-61871.895,2.938120023792247,2.295666723858086,-0.5098698116210577,1.0616701094325725,2.217971580345117,3.1843271443710086,-7.5856712304764855,1.2638119228018931,-0.109801965,-0.8839088700000001,0.557554725,73.81262,26.186159999999997,-12.77262,72.0
1774822094.1231627,1.6450881958007812e-05,2026-03-29T22:08:14.123,2026-03-29T18:08:14.123,-32321.475,-49059.134999999995,-85018.68,-50254.83,-14855.265,-19858.184999999998,4980.42,-61861.049999999996,2.4595330205609023,3.922272930751608,1.4765433526761407,3.6645283008145637,5.423207921630322,5.621145057311252,-5.79384532497893,1.456645974330702,-0.109801965,-0.8839088700000001,0.557554725,73.81262,26.186159999999997,-12.77262,72.0
1774822094.1272256,0.0040628910064697266,2026-03-29T22:08:14.127,2026-03-29T18:08:14.127,-32320.98,-49071.78,-85043.565,-50255.865,-14848.109999999999,-19848.555,5013.045,-61856.774999999994,0.6219947826432317,3.7330760625497015,3.033829782028737,4.726112032863792,6.152925590855554,5.411571742907208,-1.6926150898934318,0.6755973970792983,-0.109801965,-0.8839088700000001,0.557554725,73.81262,26.186159999999997,-12.77262,72.0
1774822094.1272488,2.3126602172851562e-05,2026-03-29T22:08:14.127,2026-03-29T18:08:14.127,-32334.614999999998,-49095.45,-85060.305,-50260.68,-14855.805,-19861.739999999998,5026.41,-61854.165,-1.4496646214589044,2.1265495597483732,3.761795585590567,4.12223058798989,4.412903203905598,2.9564346312296,2.8299740995780818,-0.5511520142412598,-0.109801965,-0.8839088700000001,0.557554725,73.81262,26.186159999999997,-12.77262,72.0
1774822094.1315913,0.004342555999755859,2026-03-29T22:08:14.131,2026-03-29T18:08:14.131,-32347.664999999997,-49089.284999999996,-85035.69,-50262.615,-14875.605,-19886.489999999998,4996.035,-61869.869999999995,-2.5341849514340202,0.028457034190313722,3.3890510392090807,2.263656438998886,1.1870425457863716,-0.41275286063385624,5.864807165384027,-1.414808795286835,-0.11450166,-0.902890755,0.56115579,88.17228,27.7732,-4.24228,72.0
1774822094.131627,3.5762786865234375e-05,2026-03-29T22:08:14.131,2026-03-29T18:08:14.131,-32343.3,-49081.59,-85021.73999999999,-50253.93,-14873.265,-19886.265,4983.885,-61870.77,-2.0066774479318195,-1.627936818685347,1.8670765367269753,-0.16120265628515484,-2.1139903631266463,-3.156501343687375,6.295412379710689,-1.3074857641208544,-0.11450166,-0.902890755,0.56115579,88.17228,27.7732,-4.24228,72.0
1774822094.135162,0.003535032272338867,2026-03-29T22:08:14.135,2026-03-29T18:08:14.135,-32345.235,-49108.994999999995,-85077.855,-50275.665,-14877.81,-19886.355,4995.224999999999,-61860.555,-0.19309264860710718,-2.3247999427211004,-0.5073332770473367,-2.4280315664805303,-4.27669386503077,-4.242681510195859,4.184619112109641,-0.20381578766543626,-0.11450166,-0.902890755,0.56115579,88.17228,27.7732,-4.24228,72.0
1774822094.135187,2.47955322265625e-05,2026-03-29T22:08:14.135,2026-03-29T18:08:14.135,-32354.414999999997,-49127.939999999995,-85116.42,-50294.34,-14877.539999999999,-19877.67,5005.08,-61860.915,1.8123467118007082,-2.0899577568546692,-3.043419893434218,-3.92535089618569,-4.701364245928958,-3.516013571834422,0.6154320671298866,1.2829083741732592,-0.11450166,-0.902890755,0.56115579,88.17228,27.7732,-4.24228,72.0
1774822094.139969,0.004782199859619141,2026-03-29T22:08:14.139,2026-03-29T18:08:14.139,-32352.614999999998,-49123.305,-85115.205,-50295.015,-14875.244999999999,-19875.015,5000.22,-61858.485,2.770360942362011,-1.3229452478375585,-4.790668702719262,-4.230487905306757,-3.486650169998614,-1.6005959186139553,-2.874044959496838,2.221772452543594,-0.11450166,-0.902890755,0.56115579,88.17228,27.7732,-4.24228,72.0
1774822094.1399796,1.049041748046875e-05,2026-03-29T22:08:14.139,2026-03-29T18:08:14.139,-32345.46,-49122.18,-85128.93,-50307.119999999995,-14877.449999999999,-19877.355,4994.91,-61850.79,2.0177888070653585,-0.4731040076973786,-4.880385464287464,-3.178001888645301,-1.2376808532718375,0.535476508132197,-4.962331327825972,1.9016876361924664,-0.11450166,-0.902890755,0.56115579,88.17228,27.7732,-4.24228,72.0
1774822094.1434977,0.0035181045532226562,2026-03-29T22:08:14.143,2026-03-29T18:08:14.143,-32337.719999999998,-49112.28,-85120.155,-50309.325,-14875.38,-19877.265,4993.29,-61845.03,-0.11817437220564016,0.21497273582023593,-2.9617769950356996,-0.9508899253987475,1.2392731126439709,2.0761074579934746,-5.024737390843318,0.2894991751048098,-0.11450166,-0.902890755,0.56115579,88.17228,27.7732,-4.24228,72.0
1774822094.1435094,1.1682510375976562e-05,2026-03-29T22:08:14.143,2026-03-29T18:08:14.143,-32339.655,-49120.56,-85115.025,-50300.955,-14866.064999999999,-19869.344999999998,4997.16,-61840.619999999995,-2.457674142343914,0.7467859500119708,0.4871599682282817,1.8551871060286753,3.1990934531295983,2.656289473085174,-3.259894007453436,-1.8643354639213277,-0.11450166,-0.902890755,0.56115579,88.17228,27.7732,-4.24228,72.0
1774822094.147251,0.0037415027618408203,2026-03-29T22:08:14.147,2026-03-29T18:08:14.147,-32340.465,-49116.735,-85104.315,-50291.325,-14863.769999999999,-19869.12,4997.25,-61839.045,-3.6027232873789776,1.2241435641846594,4.1898896272709365,4.298004138381313,4.1086146982169165,2.3619358643275112,-0.4835920987941721,-3.3672669112301237,-0.11450166,-0.902890755,0.56115579,88.17228,27.7732,-4.24228,72.0
1774822094.1472614,1.049041748046875e-05,2026-03-29T22:08:14.147,2026-03-29T18:08:14.147,-32334.84,-49098.645,-85076.595,-50276.43,-14868.0,-19878.12,4993.29,-61835.399999999994,-2.7335747811152866,1.6353713612636989,6.519735377187755,5.357617452148892,3.7117310059878617,1.5140232241825056,2.255591773014548,-3.222338758454875,-0.11450166,-0.902890755,0.56115579,88.17228,27.7732,-4.24228,72.0
1774822094.1507945,0.0035331249237060547,2026-03-29T22:08:14.150,2026-03-29T18:08:14.150,-32333.265,-49090.049999999996,-85063.545,-50268.645,-14863.904999999999,-19874.295,4993.0199999999995,-61833.149999999994,-0.12654649797212814,1.7646726107852793,6.224609600203739,4.364436199665437,2.0690955028071207,0.4260823013081555,4.053569060529848,-1.2294373498758229,-0.11547822,-0.9069801000000001,0.58093113,118.47864,39.38606,-3.64714,72.0
1774822094.150808,1.3589859008789062e-05,2026-03-29T22:08:14.150,2026-03-29T18:08:14.150,-32315.535,-49090.59,-85073.67,-50275.89,-14863.769999999999,-19872.18,5002.38,-61815.465,2.9137376908814017,1.3084295241160364,3.101706520244267,1.4069930432906599,-0.4066351339327297,-0.7037499560426621,4.396387406894001,1.7938807741784997,-0.11547822,-0.9069801000000001,0.58093113,118.47864,39.38606,-3.64714,72.0
1774822094.1561177,0.005309581756591797,2026-03-29T22:08:14.156,2026-03-29T18:08:14.156,-32304.78,-49093.244999999995,-85072.815,-50278.77,-14868.675,-19877.625,4998.554999999999,-61803.09,4.705964602984535,0.13558137663972458,-1.7407686069130164,-2.5215189421188864,-2.968408783053378,-1.7333531245543221,3.244613191039016,4.336945984789312,-0.11547822,-0.9069801000000001,0.58093113,118.47864,39.38606,-3.64714,72.0
1774822094.1561284,1.0728836059570312e-05,2026-03-29T22:08:14.156,2026-03-29T18:08:14.156,-32327.28,-49106.52,-85086.94499999999,-50298.57,-14889.96,-19891.215,4987.755,-61808.354999999996,4.102926447359708,-1.4878267019330462,-6.239896407080726,-5.801347894195591,-4.684523443559188,-2.4529830579351226,0.9936839967218438,4.9442787014177965,-0.11547822,-0.9069801000000001,0.58093113,118.47864,39.38606,-3.64714,72.0
1774822094.159001,0.0028727054595947266,2026-03-29T22:08:14.159,2026-03-29T18:08:14.159,-32343.434999999998,-49094.82,-85093.47,-50307.479999999996,-14896.035,-19892.114999999998,4980.375,-61828.335,1.1751795167407162,-2.8939894994089577,-8.262325871612983,-6.850095076555873,-4.749500515683896,-2.5503987038285953,-1.641731657799659,3.020190174238688,-0.11547822,-0.9069801000000001,0.58093113,118.47864,39.38606,-3.64714,72.0
1774822094.1590195,1.8358230590820312e-05,2026-03-29T22:08:14.159,2026-03-29T18:08:14.159,-32344.695,-49102.244999999995,-85097.25,-50306.895,-14890.41,-19884.96,4982.355,-61826.715,-2.723447369556551,-3.2917446883138366,-6.636363001223707,-4.903963933692778,-2.871253646818512,-1.747805815859469,-3.7985749886079714,-0.7447752113338009,-0.11547822,-0.9069801000000001,0.58093113,118.47864,39.38606,-3.64714,72.0
1774822094.1632094,0.004189968109130859,2026-03-29T22:08:14.163,2026-03-29T18:08:14.163,-32352.344999999998,-49115.97,-85104.405,-50309.145,-14890.32,-19885.32,4959.495,-61833.555,-5.586324270886539,-2.211051983356685,-1.8248077387543329,-0.5240760472257544,0.4546910975202175,-0.05062628834525086,-4.69168162122791,-4.596368067925584,-0.11547822,-0.9069801000000001,0.58093113,118.47864,39.38606,-3.64714,72.0
1774822094.163234,2.4557113647460938e-05,2026-03-29T22:08:14.163,2026-03-29T18:08:14.163,-32350.545,-49109.174999999996,-85093.515,-50297.31,-14881.275,-19881.945,4919.58,-61843.274999999994,-5.785567427723142,0.13444592805453853,4.143495710440062,4.488972871439611,3.9841266026986957,2.069096765721982,-3.8768519135177164,-6.533692027449331,-0.11547822,-0.9069801000000001,0.58093113,118.47864,39.38606,-3.64714,72.0
1774822094.1700015,0.0067675113677978516,2026-03-29T22:08:14.170,2026-03-29T18:08:14.170,-32308.379999999997,-49064.445,-85044.15,-50246.865,-14831.505,-19835.91,4975.514999999999,-61809.795,-2.975230394407047,2.808663645424503,8.525953634054659,7.8230033635500185,6.156282617989021,3.7350031847912435,-1.478180542577348,-5.341431628975461,-0.11547822,-0.9069801000000001,0.58093113,118.47864,39.38606,-3.64714,72.0
1774822094.1700187,1.71661376953125e-05,2026-03-29T22:08:14.170,2026-03-29T18:08:14.170,-32308.065,-49071.24,-85053.23999999999,-50256.18,-14838.3,-19836.315,5041.71,-61790.67,1.6266068253366877,4.523875892701245,9.147552038038812,7.738616748915452,5.791026054564717,4.025010890480049,1.7381432042250253,-1.3080464511747614,-0.11547822,-0.9069801000000001,0.58093113,118.47864,39.38606,-3.64714,72.0
1774822094.1771264,0.007107734680175781,2026-03-29T22:08:14.177,2026-03-29T18:08:14.177,-32337.315,-49102.83,-85086.045,-50288.085,-14868.314999999999,-19863.54,5020.965,-61806.284999999996,5.767337819615896,4.276898765411274,5.504309224185986,3.9943818651350305,2.737431924384394,2.482543276384648,4.545460310649478,3.7793471965763556,-0.10363743,-0.88647234,0.615660045,136.85168,62.68808,-4.91372,72.0
1774822094.1771607,3.4332275390625e-05,2026-03-29T22:08:14.177,2026-03-29T18:08:14.177,-32349.149999999998,-49113.72,-85095.09,-50298.39,-14880.105,-19875.645,4993.0199999999995,-61813.485,7.2710430376582655,1.930515904908724,-0.8795432057894847,-1.8845389739791738,-1.8838640699594835,-0.5021872119192187,5.697628111449099,7.425081018397424,-0.10363743,-0.88647234,0.615660045,136.85168,62.68808,-4.91372,72.0
1774822094.1771915,3.075599670410156e-05,2026-03-29T22:08:14.177,2026-03-29T18:08:14.177,-32336.774999999998,-49098.465,-85074.48,-50280.255,-14864.49,-19860.255,5001.12,-61803.405,5.180344584576591,-1.5928719795500088,-7.0748755292404795,-7.2047683836198475,-6.049130475841039,-3.7069672080321263,4.488346560326862,7.65302254418051,-0.10363743,-0.88647234,0.615660045,136.85168,62.68808,-4.91372,72.0
1774822094.1771972,5.7220458984375e-06,2026-03-29T22:08:14.177,2026-03-29T18:08:14.177,-32336.145,-49099.365,-85076.145,-50280.84,-14864.355,-19860.93,5024.565,-61796.52,0.33082999103213334,-4.662815375781296,-10.10550097329895,-9.349490568025296,-7.718394080102701,-5.5676122399357855,1.1760344300303476,4.067511041007905,-0.10363743,-0.88647234,0.615660045,136.85168,62.68808,-4.91372,72.0
1774822094.1868508,0.009653568267822266,2026-03-29T22:08:14.186,2026-03-29T18:08:14.186,-32328.809999999998,-49090.634999999995,-85064.895,-50268.15,-14851.98,-19850.94,5022.675,-61785.945,-4.974476109040839,-5.711069517224462,-8.405859971395333,-7.090260069666326,-5.85296458523984,-4.9537327276269405,-2.975717199903764,-1.8179899954923073,-0.10363743,-0.88647234,0.615660045,136.85168,62.68808,-4.91372,72.0
1774822094.1868677,1.6927719116210938e-05,2026-03-29T22:08:14.186,2026-03-29T18:08:14.186,-32342.445,-49106.43,-85079.745,-50284.575,-14872.814999999999,-19877.715,5014.304999999999,-61790.04,-8.069589328820687,-4.050559596243448,-2.6536978770038235,-1.298835825503505,-1.0490653585614287,-1.8407629674661654,-6.145187482474803,-7.210604680799293,-0.10363743,-0.88647234,0.615660045,136.85168,62.68808,-4.91372,72.0
1774822094.1869066,3.886222839355469e-05,2026-03-29T22:08:14.186,2026-03-29T18:08:14.186,-32353.02,-49126.77,-85099.86,-50305.634999999995,-14896.935,-19906.065,4997.5199999999995,-61794.09,-7.275558319706713,-0.30960114583993775,4.472727274026332,5.353011742791914,4.591039927073187,2.5139063361625826,-6.751270980054588,-9.370538328845257,-0.10363743,-0.88647234,0.615660045,136.85168,62.68808,-4.91372,72.0
1774822094.1869116,5.0067901611328125e-06,2026-03-29T22:08:14.186,2026-03-29T18:08:14.186,-32337.495,-49118.985,-85086.405,-50291.685,-14882.939999999999,-19893.735,4981.32,-61775.549999999996,-2.808952585495019,3.7844982549377044,9.543267980937946,9.625928962519907,8.371051210153711,6.060225526666609,-4.255162328202651,-7.008570771023856,-0.10363743,-0.88647234,0.615660045,136.85168,62.68808,-4.91372,72.0
1774822094.1869164,4.76837158203125e-06,2026-03-29T22:08:14.186,2026-03-29T18:08:14.186,-32320.215,-49091.805,-85059.62999999999,-50269.365,-14860.71,-19871.235,4973.76,-61756.2,3.2411050170733926,6.212115858164938,10.048110698599292,9.309793038847761,8.305277450862162,6.931574075012826,0.4456741838140069,-1.0342054056006451,-0.10363743,-0.88647234,0.615660045,136.85168,62.68808,-4.91372,72.0
1774822094.1869204,4.0531158447265625e-06,2026-03-29T22:08:14.186,2026-03-29T18:08:14.186,-32327.1,-49078.08,-85058.86499999999,-50267.295,-14852.835,-19858.59,4987.665,-61770.104999999996,7.896998177823794,5.678209634955122,5.669996277806533,4.390036978238667,4.178267941450394,4.438378406590728,5.292165849975613,5.7709947715903605,-0.10363743,-0.88647234,0.615660045,136.85168,62.68808,-4.91372,72.0
1774822094.1924632,0.005542755126953125,2026-03-29T22:08:14.192,2026-03-29T18:08:14.192,-32334.3,-49085.009999999995,-85059.62999999999,-50270.13,-14857.019999999999,-19861.29,5004.585,-61770.329999999994,8.772151183704146,2.3198552756183797,-1.4996498419878979,-2.839676221193444,-2.2111700188393764,-0.45320921717864754,7.9553585639758735,10.053154911284823,-0.102477765,-0.869443575,0.640074045,129.29798,73.27852,-1.95328,72.0
1774822094.1924787,1.5497207641601562e-05,2026-03-29T22:08:14.192,2026-03-29T18:08:14.192,-32348.385,-49100.985,-85069.215,-50279.49,-14869.619999999999,-19872.36,5013.8099999999995,-61769.204999999994,5.305958830295378,-2.286550001406433,-7.946918130471937,-8.834645858312202,-7.8164662202022726,-5.466883226821152,6.964855127609401,9.55072196227884,-0.102477765,-0.869443575,0.640074045,129.29798,73.27852,-1.95328,72.0
1774822094.1954412,0.0029625892639160156,2026-03-29T22:08:14.195,2026-03-29T18:08:14.195,-32352.704999999998,-49109.895,-85079.025,-50284.755,-14872.23,-19874.34,4995.855,-61766.729999999996,-0.888606506981547,-5.863983542401673,-10.464525954551151,-10.544634667499004,-9.803637375072235,-8.081090015024587,2.5237371473489714,4.2936959071630945,-0.102477765,-0.869443575,0.640074045,129.29798,73.27852,-1.95328,72.0
1774822094.1954577,1.6450881958007812e-05,2026-03-29T22:08:14.195,2026-03-29T18:08:14.195,-32345.774999999998,-49105.665,-85074.25499999999,-50283.09,-14875.74,-19879.245,4981.5,-61752.689999999995,-6.774517145739153,-6.574178828742209,-7.7701343207350515,-6.984819766396202,-7.002208701921854,-6.812805901068577,-3.4404809459650445,-3.2994579453233572,-0.102477765,-0.869443575,0.640074045,129.29798,73.27852,-1.95328,72.0
1774822094.1996105,0.004152774810791016,2026-03-29T22:08:14.199,2026-03-29T18:08:14.199,-32336.82,-49095.09,-85066.965,-50279.265,-14876.055,-19885.14,4972.41,-61744.545,-9.390360870841553,-3.982402440697175,-1.188531679243827,0.18396930559269092,-0.5968618965553465,-2.0602535405533393,-8.091874756495695,-9.532485222670674,-0.102477765,-0.869443575,0.640074045,129.29798,73.27852,-1.95328,72.0
1774822094.1996467,3.62396240234375e-05,2026-03-29T22:08:14.199,2026-03-29T18:08:14.199,-32335.92,-49089.645,-85062.735,-50275.799999999996,-14871.465,-19882.934999999998,4967.505,-61744.365,-7.356027002996004,0.6653726805590008,5.975063239082219,7.408596264722365,6.346398553813711,3.9730636233372967,-9.034353558092755,-11.241639048037277,-0.102477765,-0.869443575,0.640074045,129.29798,73.27852,-1.95328,72.0
1774822094.2062452,0.006598472595214844,2026-03-29T22:08:14.206,2026-03-29T18:08:14.206,-32338.17,-49094.189999999995,-85070.87999999999,-50285.34,-14874.974999999999,-19883.25,4955.264999999999,-61740.18,-1.6134821933015593,5.028844762912964,10.084208764480984,10.998815024454403,10.34584999555563,8.298836161211167,-5.5510612673160695,-7.415101268265444,-0.102477765,-0.869443575,0.640074045,129.29798,73.27852,-1.95328,72.0
1774822094.2062652,2.002716064453125e-05,2026-03-29T22:08:14.206,2026-03-29T18:08:14.206,-32326.92,-49078.395,-85046.895,-50257.935,-14846.085,-19850.535,4979.474999999999,-61732.755,4.998624651039896,6.852715177414517,9.02370099557828,9.018986188431557,9.261467655756679,8.637066548824064,0.9074439601384315,0.21217482330471646,-0.102477765,-0.869443575,0.640074045,129.29798,73.27852,-1.95328,72.0
1774822094.2070303,0.0007650852203369141,2026-03-29T22:08:14.207,2026-03-29T18:08:14.207,-32312.204999999998,-49059.63,-85021.69499999999,-50233.545,-14823.404999999999,-19828.17,5006.429999999999,-61718.895,9.149957486953284,5.144232976356672,3.3088531693023984,2.34356031200953,3.4520128319341836,4.6299693818400405,7.296674274847439,7.93428615358919,-0.102477765,-0.869443575,0.640074045,129.29798,73.27852,-1.95328,72.0
1774822094.2070394,9.059906005859375e-06,2026-03-29T22:08:14.207,2026-03-29T18:08:14.207,-32310.27,-49061.52,-85023.18,-50238.09,-14832.675,-19840.545,5018.13,-61699.5,8.707474178651408,0.730221816219671,-4.137297882562684,-5.702301200261696,-4.297391750506689,-1.8740060736203075,10.403329499097568,11.880163277947531,-0.102477765,-0.869443575,0.640074045,129.29798,73.27852,-1.95328,72.0
1774822094.2116516,0.0046122074127197266,2026-03-29T22:08:14.211,2026-03-29T18:08:14.211,-32322.824999999997,-49079.88,-85041.62999999999,-50258.43,-14852.25,-19858.59,5060.88,-61688.475,3.847975262759361,-4.122812412989246,-9.45523319499647,-10.983751990669974,-10.100419050677752,-7.665219488314796,8.45855853027499,9.967771192914562,-0.135192525,-0.857480715,0.611021385,132.33472,69.57034,9.26282,72.0
1774822094.2116773,2.574920654296875e-05,2026-03-29T22:08:14.211,2026-03-29T18:08:14.211,-32350.004999999997,-49108.994999999995,-85069.305,-50278.905,-14872.095,-19879.469999999998,5044.7699999999995,-61701.119999999995,-2.991476606834525,-6.859533739849163,-9.836448103497906,-10.674336998191238,-10.920918819725417,-9.764387581031565,2.1300631428211765,3.0151129811829045,-0.135192525,-0.857480715,0.611021385,132.33472,69.57034,9.26282,72.0
1774822094.2152903,0.003612995147705078,2026-03-29T22:08:14.215,2026-03-29T18:08:14.215,-32350.23,-49109.354999999996,-85067.235,-50270.22,-14866.605,-19875.015,5027.535,-61695.314999999995,-8.326285723879137,-5.977592976526513,-5.007849725206314,-4.767797245681018,-6.168791195649352,-6.967535094432631,-5.656042688321292,-5.588586496312769,-0.135192525,-0.857480715,0.611021385,132.33472,69.57034,9.26282,72.0
1774822094.2153144,2.4080276489257812e-05,2026-03-29T22:08:14.215,2026-03-29T18:08:14.215,-32347.35,-49106.744999999995,-85062.06,-50262.57,-14861.789999999999,-19870.425,4997.97,-61687.979999999996,-9.400599578973315,-1.8572266987575528,2.571875459671002,3.824564796427338,1.9014911448990957,-0.5378834691766416,-11.051977156334651,-11.53173883325494,-0.135192525,-0.857480715,0.611021385,132.33472,69.57034,9.26282,72.0
1774822094.2300549,0.014740467071533203,2026-03-29T22:08:14.230,2026-03-29T18:08:14.230,-32349.555,-49110.57,-85068.855,-50271.435,-14867.505,-19875.465,4994.415,-61685.055,-5.621704644388553,3.3797432867159025,8.939241431933231,10.692180297970994,9.246334362168314,6.351874942331059,-11.179248239760657,-11.74871743892818,-0.135192525,-0.857480715,0.611021385,132.33472,69.57034,9.26282,72.0
1774822094.2300692,1.430511474609375e-05,2026-03-29T22:08:14.230,2026-03-29T18:08:14.230,-32343.84,-49109.625,-85079.83499999999,-50291.145,-14882.265,-19879.155,4998.105,-61673.174999999996,1.097362107890133,6.942363043554489,10.672868759972804,12.17433456798001,12.054402551513615,10.18734299055764,-5.6474589738432766,-6.0141531161419755,-0.135192525,-0.857480715,0.611021385,132.33472,69.57034,9.26282,72.0
1774822094.2300825,1.33514404296875e-05,2026-03-29T22:08:14.230,2026-03-29T18:08:14.230,-32345.864999999998,-49107.915,-85075.92,-50286.33,-14876.099999999999,-19872.495,4990.365,-61669.755,7.288391250234203,6.8391829901556305,6.711612050072879,7.297571915740683,8.724077509522349,8.913731862082697,3.094115046746592,2.870535124943895,-0.135192525,-0.857480715,0.611021385,132.33472,69.57034,9.26282,72.0
1774822094.230087,4.5299530029296875e-06,2026-03-29T22:08:14.230,2026-03-29T18:08:14.230,-32335.379999999997,-49105.215,-85078.215,-50285.97,-14873.445,-19872.855,4985.955,-61651.619999999995,9.706218893007401,2.9765422271000603,-1.0154650989906984,-1.619551184047135,0.7701491136426506,3.0430328441488026,10.822075099177004,10.434703142346587,-0.135192525,-0.857480715,0.611021385,132.33472,69.57034,9.26282,72.0
1774822094.2300923,5.245208740234375e-06,2026-03-29T22:08:14.230,2026-03-29T18:08:14.230,-32302.35,-49098.24,-85089.69,-50304.06,-14893.154999999999,-19897.155,4985.01,-61607.159999999996,7.027338607463313,-2.7132707772174296,-8.513276124670922,-10.057003250633626,-7.850093724868827,-4.531856763792965,13.566422497217275,12.786782887653084,-0.135192525,-0.857480715,0.611021385,132.33472,69.57034,9.26282,72.0
1774822094.2300963,4.0531158447265625e-06,2026-03-29T22:08:14.230,2026-03-29T18:08:14.230,-32263.695,-49088.52,-85091.805,-50313.15,-14908.095,-19914.255,4979.88,-61557.255,0.5811425737673527,-7.221830599579222,-11.762392255251221,-13.571188235044662,-12.699192645880647,-9.961373173328587,9.6303406219461,8.622725043792958,-0.135192525,-0.857480715,0.611021385,132.33472,69.57034,9.26282,72.0
1774822094.231174,0.0010776519775390625,2026-03-29T22:08:14.231,2026-03-29T18:08:14.231,-32255.28,-49087.305,-85091.67,-50315.58,-14913.72,-19917.855,4975.605,-61543.35,-6.291162732567053,-8.031329729667688,-8.842581046180753,-10.116037124268127,-11.138631394262886,-10.40044328472516,0.5810047460124056,-0.044545309594218555,-0.165710025,-0.846982695,0.5761704,122.6141,56.477259999999994,15.19896,72.0
1774822094.2311845,1.049041748046875e-05,2026-03-29T22:08:14.231,2026-03-29T18:08:14.231,-32299.425,-49104.314999999995,-85091.58,-50308.65,-14905.8,-19908.09,4959.764999999999,-61586.415,-9.948146167595374,-4.490057202269019,-1.026493778335431,-1.2006767643605663,-3.7546835407254346,-5.504279022274575,-9.346884794069792,-8.843576271517067,-0.165710025,-0.846982695,0.5761704,122.6141,56.477259999999994,15.19896,72.0
1774822094.235328,0.004143476486206055,2026-03-29T22:08:14.235,2026-03-29T18:08:14.235,-32348.34,-49072.68,-85021.92,-50227.38,-14821.244999999999,-19824.885,4969.125,-61666.11,-8.360552616728356,1.744298633956051,7.7655043818010645,8.759654320195825,5.836288724670582,2.3302173218190845,-15.223058508005101,-13.240506822118407,-0.165710025,-0.846982695,0.5761704,122.6141,56.477259999999994,15.19896,72.0
1774822094.2353413,1.33514404296875e-05,2026-03-29T22:08:14.235,2026-03-29T18:08:14.235,-32350.68,-49067.145,-85011.345,-50217.479999999996,-14812.965,-19821.465,4970.655,-61661.295,-2.226332586154067,7.47167034183393,12.921393984183487,14.626153053016514,12.755730338783529,9.135677028176795,-13.853531461396845,-10.872171656645548,-0.165710025,-0.846982695,0.5761704,122.6141,56.477259999999994,15.19896,72.0
1774822094.2413664,0.006025075912475586,2026-03-29T22:08:14.241,2026-03-29T18:08:14.241,-32346.045,-49080.689999999995,-85031.64,-50237.909999999996,-14832.18,-19842.21,4948.065,-61642.395,5.319566502577598,9.575783348919183,11.531511951102814,13.174123027248081,13.340211761318127,11.386200315617295,-5.4775714432398095,-2.8160509177077544,-0.165710025,-0.846982695,0.5761704,122.6141,56.477259999999994,15.19896,72.0
1774822094.2413788,1.239776611328125e-05,2026-03-29T22:08:14.241,2026-03-29T18:08:14.241,-32333.355,-49085.235,-85047.93,-50253.615,-14845.635,-19853.505,4986.585,-61611.84,10.288860370843851,6.688107953944108,3.9857891629139965,4.83544379603676,7.070198687535398,7.827272590358321,6.158265549368572,6.884970664684528,-0.165710025,-0.846982695,0.5761704,122.6141,56.477259999999994,15.19896,72.0
1774822094.2413988,2.002716064453125e-05,2026-03-29T22:08:14.241,2026-03-29T18:08:14.241,-32338.89,-49104.72,-85075.515,-50282.82,-14871.644999999999,-19868.489999999998,5036.67,-61591.77,9.92331827000868,0.011514169552954206,-6.087792045284097,-6.385784645435079,-3.0623278515613017,0.1715941497009334,15.470383550708334,13.24091172185664,-0.165710025,-0.846982695,0.5761704,122.6141,56.477259999999994,15.19896,72.0
1774822094.241403,4.291534423828125e-06,2026-03-29T22:08:14.241,2026-03-29T18:08:14.241,-32353.605,-49118.805,-85084.155,-50296.14,-14891.76,-19888.29,5009.22,-61589.97,4.197877991850546,-7.171156331320539,-13.572502558783913,-14.8424534768415,-11.98355973615647,-7.7238036129869405,17.709892168275495,12.871631334763668,-0.165710025,-0.846982695,0.5761704,122.6141,56.477259999999994,15.19896,72.0
1774822094.2478352,0.006432056427001953,2026-03-29T22:08:14.247,2026-03-29T18:08:14.247,-32371.965,-49130.595,-85089.51,-50299.92,-14897.564999999999,-19897.469999999998,4961.5199999999995,-61595.189999999995,-4.065691707846619,-11.108532256349015,-14.453985450755656,-16.085773047963045,-15.080584335947297,-11.804277544934848,11.35875563947582,5.794701834889553,-0.165710025,-0.846982695,0.5761704,122.6141,56.477259999999994,15.19896,72.0
1774822094.247872,3.695487976074219e-05,2026-03-29T22:08:14.247,2026-03-29T18:08:14.247,-32378.85,-49139.909999999996,-85102.245,-50308.244999999995,-14905.125,-19909.44,4955.4,-61588.259999999995,-10.580872269233359,-9.521250640729495,-7.94264193473648,-9.187776123727087,-10.580557416122211,-9.903073896227767,-0.9503575970599668,-4.498287782917387,-0.165710025,-0.846982695,0.5761704,122.6141,56.477259999999994,15.19896,72.0
1774822094.2536273,0.005755186080932617,2026-03-29T22:08:14.253,2026-03-29T18:08:14.253,-32362.829999999998,-49128.299999999996,-85094.055,-50299.83,-14899.41,-19907.82,4951.08,-61565.399999999994,-11.800081980066954,-2.8734322845262747,2.98494491931365,2.6622199900447003,-0.5399873152449086,-2.8903687129398987,-13.515775012610717,-12.758353797600757,-0.1782222,-0.81249792,0.563902365,141.99429999999998,43.124759999999995,19.9143,72.0
1774822094.2536535,2.6226043701171875e-05,2026-03-29T22:08:14.253,2026-03-29T18:08:14.253,-32339.114999999998,-49105.485,-85070.52,-50275.665,-14876.01,-19882.934999999998,4980.33,-61536.015,-6.813316322501986,5.718404687852121,12.959637103291758,13.644493821307156,10.099407907389509,5.723603952527749,-20.210571900813353,-14.646215456602016,-0.1782222,-0.81249792,0.563902365,141.99429999999998,43.124759999999995,19.9143,72.0
1774822094.2653987,0.011745214462280273,2026-03-29T22:08:14.265,2026-03-29T18:08:14.265,-32308.155,-49072.229999999996,-85032.495,-50234.58,-14834.564999999999,-19840.68,5029.38,-61503.615,2.06324833594451,11.954872765811492,16.86907203163119,18.180706898368527,15.953246568366966,11.551416793196365,-17.460173311482095,-8.996829114980692,-0.1782222,-0.81249792,0.563902365,141.99429999999998,43.124759999999995,19.9143,72.0
1774822094.265436,3.719329833984375e-05,2026-03-29T22:08:14.265,2026-03-29T18:08:14.265,-32316.704999999998,-49087.53,-85049.28,-50250.375,-14848.199999999999,-19846.395,5088.554999999999,-61485.795,10.363747868571052,12.504714387767168,12.469794487389604,13.766758288686589,13.922841864042413,11.568878444967963,-6.109038520584836,1.4959419226425916,-0.1782222,-0.81249792,0.563902365,141.99429999999998,43.124759999999995,19.9143,72.0
1774822094.265466,3.0040740966796875e-05,2026-03-29T22:08:14.265,2026-03-29T18:08:14.265,-32330.745,-49113.225,-85081.095,-50287.32,-14889.869999999999,-19892.295,5044.5,-61479.045,13.713508518236253,6.759941804055424,1.6291584706794289,2.3267336265885,4.823908687577263,5.685470174739825,8.784123773565604,11.565127576881096,-0.1782222,-0.81249792,0.563902365,141.99429999999998,43.124759999999995,19.9143,72.0
1774822094.2654834,1.7404556274414062e-05,2026-03-29T22:08:14.265,2026-03-29T18:08:14.265,-32312.789999999997,-49109.354999999996,-85085.685,-50292.09,-14894.73,-19901.475,4998.195,-61457.22,10.110865128724331,-2.721901420151661,-10.475797223787392,-10.634911893943467,-6.937252062089545,-3.172160940783198,20.20962581150159,16.012188539446807,-0.1782222,-0.81249792,0.563902365,141.99429999999998,43.124759999999995,19.9143,72.0
1774822094.2655027,1.9311904907226562e-05,2026-03-29T22:08:14.265,2026-03-29T18:08:14.265,-32293.079999999998,-49101.75,-85083.525,-50289.255,-14889.914999999999,-19889.954999999998,4979.429999999999,-61431.435,1.0671861730903134,-11.368275803882634,-17.855385349676535,-18.705707247285684,-15.51447022729588,-10.524020010819235,22.511681489226497,12.378752757649984,-0.1782222,-0.81249792,0.563902365,141.99429999999998,43.124759999999995,19.9143,72.0
1774822094.265517,1.430511474609375e-05,2026-03-29T22:08:14.265,2026-03-29T18:08:14.265,-32285.43,-49090.59,-85069.17,-50275.53,-14875.92,-19870.29,4986.0,-61416.09,-9.026008957773358,-14.812161712753571,-16.68492920201428,-17.75402538591696,-16.541959185377973,-12.61214649223256,14.173101820171494,2.278441365411343,-0.1782222,-0.81249792,0.563902365,141.99429999999998,43.124759999999995,19.9143,72.0
1774822094.267014,0.001497030258178711,2026-03-29T22:08:14.267,2026-03-29T18:08:14.267,-32301.629999999997,-49077.99,-85036.095,-50244.75,-14851.08,-19848.239999999998,5020.11,-61420.59,-15.039028279750227,-11.096877770829247,-7.275892068280859,-8.040635465996958,-9.358294752129112,-8.327161092863712,-1.2868004904844668,-9.323625831730501,-0.1782222,-0.81249792,0.563902365,141.99429999999998,43.124759999999995,19.9143,72.0
1774822094.2670252,1.1205673217773438e-05,2026-03-29T22:08:14.267,2026-03-29T18:08:14.267,-32329.395,-49088.97,-85036.455,-50246.189999999995,-14858.55,-19864.305,5014.08,-61437.104999999996,-13.705352985945064,-1.7509758528523796,5.972415401186989,5.826146070394262,2.600874241230759,0.20495413522507663,-16.80305959347263,-16.560282128474967,-0.1782222,-0.81249792,0.563902365,141.99429999999998,43.124759999999995,19.9143,72.0
1774822094.2791092,0.012084007263183594,2026-03-29T22:08:14.279,2026-03-29T18:08:14.279,-32335.02,-49095.0,-85047.48,-50259.104999999996,-14872.365,-19886.715,4964.804999999999,-61442.954999999994,-5.3636803848809675,8.845425613739232,16.65925328874773,17.10404450986029,13.464895244675573,8.685865058480914,-25.010841826813007,-15.62741605011667,-0.183288105,-0.77172654,0.534483495,129.8626,25.957259999999998,9.14074,72.0
1774822094.279145,3.5762786865234375e-05,2026-03-29T22:08:14.279,2026-03-29T18:08:14.279,-32310.36,-49091.759999999995,-85055.895,-50265.18,-14872.23,-19882.98,4958.1449999999995,-61409.34,6.077869627020294,15.53829000646363,19.50471201648798,20.22407175496011,17.83282267481909,12.822887599395418,-21.74696067692398,-6.765149093404647,-0.183288105,-0.77172654,0.534483495,129.8626,25.957259999999998,9.14074,72.0
1774822094.279176,3.0994415283203125e-05,2026-03-29T22:08:14.279,2026-03-29T18:08:14.279,-32287.77,-49092.345,-85063.41,-50272.02,-14874.164999999999,-19872.63,4993.38,-61366.14,14.992720725401325,14.924674838925114,12.971555151507152,13.556171705114243,13.473286821469104,10.512769878830227,-8.138711671405163,5.771013852318135,-0.183288105,-0.77172654,0.534483495,129.8626,25.957259999999998,9.14074,72.0
1774822094.2791853,9.298324584960938e-06,2026-03-29T22:08:14.279,2026-03-29T18:08:14.279,-32288.219999999998,-49115.88,-85095.62999999999,-50301.63,-14898.914999999999,-19887.524999999998,4998.42,-61340.445,16.816119058599135,7.07948239673947,0.0781974190648104,0.252204234846121,2.4626479602374225,2.9150411479460905,9.76057589514542,15.771787930231504,-0.183288105,-0.77172654,0.534483495,129.8626,25.957259999999998,9.14074,72.0
1774822094.2791915,6.198883056640625e-06,2026-03-29T22:08:14.279,2026-03-29T18:08:14.279,-32274.765,-49115.205,-85096.62,-50300.595,-14897.88,-19886.625,5005.035,-61311.915,10.37386175858329,-4.392130927493705,-13.021648012445274,-13.267301192742101,-9.819417534690047,-6.1352578174070365,23.686026407416367,18.16112738776528,-0.183288105,-0.77172654,0.534483495,129.8626,25.957259999999998,9.14074,72.0
1774822094.2791972,5.7220458984375e-06,2026-03-29T22:08:14.279,2026-03-29T18:08:14.279,-32290.11,-49128.705,-85107.465,-50314.5,-14916.555,-19908.989999999998,4983.705,-61307.1,-1.4269110595938208,-14.038221006028468,-20.013181403842754,-20.446238438816323,-17.344752528404637,-12.076310987001712,26.99878204914175,11.567550551132797,-0.183288105,-0.77172654,0.534483495,129.8626,25.957259999999998,9.14074,72.0
1774822094.2901342,0.010936975479125977,2026-03-29T22:08:14.290,2026-03-29T18:08:14.290,-32343.75,-49125.915,-85075.065,-50278.634999999995,-14882.535,-19880.325,4980.375,-61353.045,-12.93214548804538,-17.18143834223548,-17.49495225801682,-17.80199833216792,-16.420505216361686,-11.934174253130934,17.85485334965005,-0.9223134166487215,-0.183288105,-0.77172654,0.534483495,129.8626,25.957259999999998,9.14074,72.0
1774822094.2901485,1.430511474609375e-05,2026-03-29T22:08:14.290,2026-03-29T18:08:14.290,-32376.465,-49120.83,-85052.295,-50255.82,-14861.654999999999,-19863.405,4983.705,-61386.975,-18.477588202112003,-12.20430338383877,-6.643174792402971,-6.6264293181979514,-7.513723267516489,-5.822189308263901,0.1898337037677829,-13.231072017250431,-0.183288105,-0.77172654,0.534483495,129.8626,25.957259999999998,9.14074,72.0
