unix_time_s,dt_s,UTC,LOCAL,EMG1_Raw,EMG2_Raw,EMG3_Raw,EMG4_Raw,EMG5_Raw,EMG6_Raw,EMG7_Raw,EMG8_Raw,EMG1_Filtered,EMG2_Filtered,EMG3_Filtered,EMG4_Filtered,EMG5_Filtered,EMG6_Filtered,EMG7_Filtered,EMG8_Filtered,Accel1_Raw,Accel2_Raw,Accel3_Raw,Gyro1_Raw,Gyro2_Raw,Gyro3_Raw,Battery
1774822999.6875296,,2026-03-29T22:23:19.687,2026-03-29T18:23:19.687,-32893.424999999996,-45580.68,-85253.22,-50785.155,-12535.47,-17691.12,6142.094999999999,-60790.095,0.5872961155879302,1.2791475097692795,1.3573488665169515,3.0406949692329466,2.2752789905690625,2.430304946145764,-1.197280984298297,-0.7190205259060832,-0.52709826,-0.7015362900000001,0.542662185,47.09236,13.1236,12.5132,69.0
1774822999.687549,1.9550323486328125e-05,2026-03-29T22:23:19.687,2026-03-29T18:23:19.687,-32892.255,-45585.72,-85258.70999999999,-50794.92,-12546.09,-17693.145,6172.695,-60775.829999999994,1.8428693759217385,-0.9587465176275969,-0.6977830568994565,3.263934345494993,5.16134826200815,7.269212625864954,-0.11572361174634695,2.182392959938359,-0.52709826,-0.7015362900000001,0.542662185,47.09236,13.1236,12.5132,69.0
1774822999.6950402,0.007491111755371094,2026-03-29T22:23:19.695,2026-03-29T18:23:19.695,-32920.784999999996,-45622.89,-85303.395,-50836.77,-12580.154999999999,-17715.69,6186.014999999999,-60784.064999999995,2.3546540541364864,-2.7581232500535333,-2.597276871656073,2.0626288286622816,5.798038285075526,8.908088759112287,1.3164966934686693,4.2114830026020345,-0.52709826,-0.7015362900000001,0.542662185,47.09236,13.1236,12.5132,69.0
1774822999.6950595,1.9311904907226562e-05,2026-03-29T22:23:19.695,2026-03-29T18:23:19.695,-32929.74,-45637.424999999996,-85321.44,-50846.895,-12586.455,-17721.495,6188.58,-60783.795,1.9409196203745305,-3.39011394664911,-3.6659567635347896,-0.24958593531145157,3.6450366534767813,6.342486456256201,2.5065717170040918,4.576493949474304,-0.52709826,-0.7015362900000001,0.542662185,47.09236,13.1236,12.5132,69.0
1774822999.6968021,0.0017426013946533203,2026-03-29T22:23:19.696,2026-03-29T18:23:19.696,-32933.79,-45648.18,-85354.47,-50859.494999999995,-12594.645,-17734.905,6168.69,-60787.71,0.767842004165157,-2.6277579465584124,-3.450380573440749,-2.7762951240368614,-0.4930028780112468,0.5686005883942198,2.8075192153496493,3.1289094548239773,-0.53405625,-0.67944162,0.561216825,66.33521999999999,16.587619999999998,5.81406,69.0
1774822999.6968205,1.8358230590820312e-05,2026-03-29T22:23:19.696,2026-03-29T18:23:19.696,-32939.28,-45645.03,-85361.895,-50860.665,-12597.164999999999,-17739.989999999998,6162.075,-60794.1,-0.7215888018101236,-0.8266707705271639,-1.9162523801502351,-4.389299926505871,-4.763203707109331,-5.800634624775955,1.861190818824712,0.4203173771358659,-0.53405625,-0.67944162,0.561216825,66.33521999999999,16.587619999999998,5.81406,69.0
1774822999.7023687,0.005548238754272461,2026-03-29T22:23:19.702,2026-03-29T18:23:19.702,-32912.955,-45614.384999999995,-85324.00499999999,-50838.84,-12577.814999999999,-17717.445,6183.2699999999995,-60773.895,-1.9671330764793182,1.2418647212626108,0.4717172923995808,-4.241647219321042,-7.10463610092142,-9.733398203385033,-0.1355354086781476,-2.5003003212134085,-0.53405625,-0.67944162,0.561216825,66.33521999999999,16.587619999999998,5.81406,69.0
1774822999.70239,2.1219253540039062e-05,2026-03-29T22:23:19.702,2026-03-29T18:23:19.702,-32898.015,-45599.085,-85287.42,-50831.729999999996,-12578.445,-17729.684999999998,6186.51,-60757.38,-2.4864436461849,2.7268718806758923,2.8561832194148242,-2.2041787849088017,-6.24547880532084,-9.234298059048353,-2.4114924505422435,-4.47885719776568,-0.53405625,-0.67944162,0.561216825,66.33521999999999,16.587619999999998,5.81406,69.0
1774822999.7075877,0.005197763442993164,2026-03-29T22:23:19.707,2026-03-29T18:23:19.707,-32918.22,-45612.18,-85287.105,-50845.049999999996,-12596.67,-17757.405,6165.585,-60768.945,-2.047584802735501,3.054021805071818,4.280390049135957,0.9977104895003753,-2.3725682075320944,-4.352445385205679,-3.9094044547241324,-4.699875925814761,-0.53405625,-0.67944162,0.561216825,66.33521999999999,16.587619999999998,5.81406,69.0
1774822999.7076,1.239776611328125e-05,2026-03-29T22:23:19.707,2026-03-29T18:23:19.707,-32917.095,-45604.17,-85264.47,-50813.775,-12561.21,-17714.745,6140.79,-60768.314999999995,-0.7661369046325991,2.1502141003204525,4.076850920113725,4.0410471939203605,2.8725445087004338,2.7663614282411233,-3.779813760404649,-3.0185901886555135,-0.53405625,-0.67944162,0.561216825,66.33521999999999,16.587619999999998,5.81406,69.0
1774822999.7076123,1.2159347534179688e-05,2026-03-29T22:23:19.707,2026-03-29T18:23:19.707,-32911.56,-45600.75,-85266.62999999999,-50800.545,-12538.439999999999,-17682.57,6140.16,-60761.88,0.9104265009753478,0.44710480100319205,2.190864383867919,5.564501099417962,7.101518838945496,8.839055238104509,-1.8489433901235246,-0.0487051048926117,-0.53405625,-0.67944162,0.561216825,66.33521999999999,16.587619999999998,5.81406,69.0
1774822999.7076187,6.4373016357421875e-06,2026-03-29T22:23:19.707,2026-03-29T18:23:19.707,-32902.02,-45592.244999999995,-85261.77,-50785.29,-12524.4,-17673.614999999998,6161.8949999999995,-60754.005,2.340547085233739,-1.3265405857022377,-0.7230949699500789,4.786311512268377,8.27946773410451,10.979645613841779,1.1922424289502176,3.0451327452982317,-0.53405625,-0.67944162,0.561216825,66.33521999999999,16.587619999999998,5.81406,69.0
1774822999.7188497,0.011230945587158203,2026-03-29T22:23:19.718,2026-03-29T18:23:19.718,-32900.49,-45591.884999999995,-85260.105,-50780.97,-12522.015,-17668.71,6180.48,-60748.74,2.918295516535559,-2.4634506479156353,-3.5119698999833844,1.8952582581091686,5.704172793038877,8.081776034486138,4.016725456678371,4.990535858366166,-0.53405625,-0.67944162,0.561216825,66.33521999999999,16.587619999999998,5.81406,69.0
1774822999.7188776,2.7894973754882812e-05,2026-03-29T22:23:19.718,2026-03-29T18:23:19.718,-32897.655,-45589.545,-85263.3,-50788.305,-12532.994999999999,-17678.97,6171.48,-60747.119999999995,2.322535259040866,-2.565240585519502,-4.984443139388502,-1.9782128788717983,0.39201958688461347,1.3814683203605007,5.243917247142332,4.925929181387498,-0.53405625,-0.67944162,0.561216825,66.33521999999999,16.587619999999998,5.81406,69.0
1774822999.718902,2.4557113647460938e-05,2026-03-29T22:23:19.718,2026-03-29T18:23:19.718,-32902.38,-45591.435,-85269.555,-50799.195,-12549.33,-17690.309999999998,6170.76,-60749.415,0.6872440301116229,-1.6790984149850257,-4.434995009199016,-5.216170557676072,-5.331861847866392,-6.083624117522176,4.1189900101836,2.786190819274476,-0.522154425,-0.63757161,0.58459323,64.00044,19.1513,-7.309539999999999,69.0
1774822999.7189136,1.1444091796875e-05,2026-03-29T22:23:19.718,2026-03-29T18:23:19.718,-32903.82,-45585.585,-85258.215,-50791.634999999995,-12544.47,-17685.315,6170.67,-60746.67,-1.3947818333389057,-0.23795322986569975,-1.993307132386733,-6.402774425468203,-8.868793369965342,-10.875390072989171,0.9528946383884634,-0.6191204621340556,-0.522154425,-0.63757161,0.58459323,64.00044,19.1513,-7.309539999999999,69.0
1774822999.7189264,1.2874603271484375e-05,2026-03-29T22:23:19.718,2026-03-29T18:23:19.718,-32901.84,-45586.53,-85261.31999999999,-50796.854999999996,-12548.25,-17685.405,6169.23,-60739.335,-3.0676880086324005,1.1529973039717945,1.379418594993438,-4.947594221397003,-8.53746049630515,-10.759331775275067,-2.9251500688150758,-3.8958651835117313,-0.522154425,-0.63757161,0.58459323,64.00044,19.1513,-7.309539999999999,69.0
1774822999.7189367,1.0251998901367188e-05,2026-03-29T22:23:19.718,2026-03-29T18:23:19.718,-32904.99,-45590.265,-85263.25499999999,-50796.36,-12544.74,-17684.37,6161.04,-60737.49,-3.555449925538284,1.9776780044980529,4.272154379706692,-1.3654263598061083,-4.369096773395083,-5.753263183035276,-5.725920789287073,-5.630047531589181,-0.522154425,-0.63757161,0.58459323,64.00044,19.1513,-7.309539999999999,69.0
1774822999.7236316,0.004694938659667969,2026-03-29T22:23:19.723,2026-03-29T18:23:19.723,-32910.21,-45594.09,-85264.02,-50790.195,-12534.75,-17683.965,6149.655,-60741.0,-2.5196788133883588,2.0022801249530846,5.430519719089823,2.9151820278179414,1.8681173006506846,1.8752412428267695,-6.035071320335463,-5.002318265993471,-0.522154425,-0.63757161,0.58459323,64.00044,19.1513,-7.309539999999999,69.0
1774822999.7236476,1.5974044799804688e-05,2026-03-29T22:23:19.723,2026-03-29T18:23:19.723,-32902.604999999996,-45589.814999999995,-85267.665,-50787.314999999995,-12528.09,-17680.364999999998,6143.58,-60738.345,-0.26816453387719447,1.3265802518077798,4.318968832037988,6.1364975141422065,7.437376180847089,8.659694388115804,-3.530961273484109,-2.1833332961451566,-0.522154425,-0.63757161,0.58459323,64.00044,19.1513,-7.309539999999999,69.0
1774822999.727538,0.003890514373779297,2026-03-29T22:23:19.727,2026-03-29T18:23:19.727,-32890.229999999996,-45585.854999999996,-85276.44,-50800.229999999996,-12542.355,-17692.875,6147.495,-60723.0,2.306963961749615,0.2913230021663783,1.3773784852163267,6.941288494329123,9.851163596231256,11.536065696172324,0.7803485140248904,1.6845546523670678,-0.522154425,-0.63757161,0.58459323,64.00044,19.1513,-7.309539999999999,69.0
1774822999.72766,0.00012183189392089844,2026-03-29T22:23:19.727,2026-03-29T18:23:19.727,-32883.615,-45590.174999999996,-85284.62999999999,-50813.325,-12553.154999999999,-17701.965,6159.014999999999,-60704.82,4.071521695132071,-0.6960860881856635,-2.1554849150926962,4.93996646891296,7.988391648969166,9.242673588599477,4.96381809847393,4.942027263014305,-0.522154425,-0.63757161,0.58459323,64.00044,19.1513,-7.309539999999999,69.0
1774822999.7332292,0.0055692195892333984,2026-03-29T22:23:19.733,2026-03-29T18:23:19.733,-32883.479999999996,-45607.32,-85309.785,-50840.1,-12578.31,-17725.364999999998,6159.6449999999995,-60683.354999999996,4.14742591885764,-1.3278423506363481,-4.7797722529666,0.8802878230057748,2.6059504356288277,2.871173317998101,7.0331539355529005,6.128138719312747,-0.522154425,-0.63757161,0.58459323,64.00044,19.1513,-7.309539999999999,69.0
1774822999.7332456,1.6450881958007812e-05,2026-03-29T22:23:19.733,2026-03-29T18:23:19.733,-32889.78,-45603.72,-85302.675,-50833.755,-12571.965,-17721.18,6146.235,-60693.75,2.348693674131952,-1.4829722882150411,-5.392018304854876,-3.6461781126500337,-3.9849172198923117,-4.6710053095433555,5.905270526663979,4.646590195403831,-0.522154425,-0.63757161,0.58459323,64.00044,19.1513,-7.309539999999999,69.0
1774822999.7356408,0.002395153045654297,2026-03-29T22:23:19.735,2026-03-29T18:23:19.735,-32907.69,-45589.77,-85269.95999999999,-50796.54,-12531.914999999999,-17682.255,6152.3099999999995,-60721.74,-0.6612296616676647,-1.2151418755602246,-3.763364404167466,-6.836395045378863,-8.930481326098676,-10.01481770598866,1.9678900888216002,1.073901213053596,-0.51867543,-0.627867045,0.58825533,36.80712,22.935779999999998,-1.6785999999999999,69.0
1774822999.7356524,1.1682510375976562e-05,2026-03-29T22:23:19.735,2026-03-29T18:23:19.735,-32933.475,-45590.715,-85259.34,-50782.229999999996,-12518.01,-17668.62,6164.01,-60743.25,-3.5981039022135026,-0.6737207687801905,-0.6235177697705317,-7.390361927937966,-10.082092902041335,-10.857175487785728,-3.0372984039563993,-3.0531992672647434,-0.51867543,-0.627867045,0.58825533,36.80712,22.935779999999998,-1.6785999999999999,69.0
1774822999.7398653,0.004212856292724609,2026-03-29T22:23:19.739,2026-03-29T18:23:19.739,-32904.225,-45589.77,-85274.055,-50800.814999999995,-12539.475,-17690.309999999998,6155.19,-60710.625,-5.102889169073064,-0.018076835763778228,2.679979511653755,-5.026340746213946,-6.928320148991929,-6.958582219754207,-6.791456219500056,-5.900306699154428,-0.51867543,-0.627867045,0.58825533,36.80712,22.935779999999998,-1.6785999999999999,69.0
1774822999.7398791,1.3828277587890625e-05,2026-03-29T22:23:19.739,2026-03-29T18:23:19.739,-32869.665,-45574.29,-85270.14,-50800.68,-12541.32,-17693.01,6138.315,-60681.96,-4.374335068878711,0.6255762691964557,4.781910312763743,-0.6006734190298894,-0.8081288108814972,-0.176202759109614,-7.48598964845059,-6.161969046995274,-0.51867543,-0.627867045,0.58825533,36.80712,22.935779999999998,-1.6785999999999999,69.0
1774822999.7501657,0.010286569595336914,2026-03-29T22:23:19.750,2026-03-29T18:23:19.750,-32852.655,-45563.805,-85266.27,-50800.32,-12542.939999999999,-17694.809999999998,6136.695,-60667.74,-1.591886443673101,1.154234424356145,4.880771851660426,4.20867711610853,5.676679457457687,6.442984063517306,-4.704693145560624,-3.674745957008423,-0.51867543,-0.627867045,0.58825533,36.80712,22.935779999999998,-1.6785999999999999,69.0
1774822999.7501824,1.6689300537109375e-05,2026-03-29T22:23:19.750,2026-03-29T18:23:19.750,-32891.76,-45560.97,-85244.625,-50773.86,-12514.005,-17665.245,6154.65,-60706.71,2.0932391878184373,1.4557805974194666,3.044384332548679,7.532663144265887,9.782546287917626,10.056906145058873,0.33425304626101116,0.47791373481492017,-0.51867543,-0.627867045,0.58825533,36.80712,22.935779999999998,-1.6785999999999999,69.0
1774822999.750198,1.5497207641601562e-05,2026-03-29T22:23:19.750,2026-03-29T18:23:19.750,-32918.625,-45567.045,-85240.8,-50767.695,-12507.615,-17658.405,6170.76,-60715.619999999995,5.030416429138356,1.4022338731779556,0.12241527046564413,8.021310958825602,9.788491985203443,9.260635257576318,5.313996928167375,4.435946042714815,-0.51867543,-0.627867045,0.58825533,36.80712,22.935779999999998,-1.6785999999999999,69.0
1774822999.7502043,6.4373016357421875e-06,2026-03-29T22:23:19.750,2026-03-29T18:23:19.750,-32909.94,-45590.22,-85274.28,-50804.82,-12545.73,-17695.53,6167.07,-60687.09,5.81426034895151,0.897906877162725,-2.665930071701399,5.372910548558486,5.708233488606063,4.616168002534177,7.8957994867667365,6.405395124463256,-0.51867543,-0.627867045,0.58825533,36.80712,22.935779999999998,-1.6785999999999999,69.0
1774822999.7502124,8.106231689453125e-06,2026-03-29T22:23:19.750,2026-03-29T18:23:19.750,-32900.76,-45601.335,-85294.17,-50826.869999999995,-12569.175,-17737.245,6162.4349999999995,-60673.725,3.963286376568454,-0.03221260110123879,-4.26062775883446,0.48573605292779426,-0.7393175264208132,-1.710490680831118,6.831088731509542,5.48758795172343,-0.51867543,-0.627867045,0.58825533,36.80712,22.935779999999998,-1.6785999999999999,69.0
1774822999.7502184,5.9604644775390625e-06,2026-03-29T22:23:19.750,2026-03-29T18:23:19.750,-32894.505,-45599.085,-85295.83499999999,-50831.505,-12575.564999999999,-17743.14,6153.929999999999,-60669.945,0.20187287354862532,-1.170390701509972,-4.16608923373018,-4.8337497409181065,-6.8699635786741355,-6.982848704529196,2.573909102694448,2.104086611568399,-0.51867543,-0.627867045,0.58825533,36.80712,22.935779999999998,-1.6785999999999999,69.0
1774822999.7557454,0.005527019500732422,2026-03-29T22:23:19.755,2026-03-29T18:23:19.755,-32910.03,-45597.284999999996,-85284.94499999999,-50818.185,-12559.859999999999,-17712.315,6146.955,-60684.255,-3.8150740490627633,-2.117378110340361,-2.5757231615146035,-8.517473998834294,-10.158411749640356,-9.09477941978161,-2.9101824636523044,-2.1905016077501296,-0.53210313,-0.6386702400000001,0.573729,12.5895,14.817459999999999,10.69726,69.0
1774822999.7557623,1.6927719116210938e-05,2026-03-29T22:23:19.755,2026-03-29T18:23:19.755,-32923.44,-45586.619999999995,-85267.215,-50799.869999999995,-12543.48,-17693.684999999998,6151.005,-60699.555,-6.235351537588051,-2.419853442010254,-0.20397809215505838,-9.017709372046989,-9.273066130629806,-7.403623623846574,-7.059507179551686,-5.428190800703373,-0.53210313,-0.6386702400000001,0.573729,12.5895,14.817459999999999,10.69726,69.0
1774822999.769529,0.013766765594482422,2026-03-29T22:23:19.769,2026-03-29T18:23:19.769,-32922.494999999995,-45594.18,-85276.395,-50802.705,-12541.095,-17692.335,6147.63,-60690.96,-5.873673515686782,-1.7812735499756116,2.05536780111623,-5.941715602432884,-4.600946346626021,-2.8708734360790613,-7.925777652747242,-6.1444382894155085,-0.53210313,-0.6386702400000001,0.573729,12.5895,14.817459999999999,10.69726,69.0
1774822999.769548,1.8835067749023438e-05,2026-03-29T22:23:19.769,2026-03-29T18:23:19.769,-32923.755,-45605.655,-85287.645,-50803.784999999996,-12530.654999999999,-17676.989999999998,6153.48,-60686.865,-2.7989763172968507,-0.2606535582190149,3.4717325445508416,-0.28744612046253687,1.9359343466386518,2.4801611780152304,-5.100699046589304,-4.058244554042937,-0.53210313,-0.6386702400000001,0.573729,12.5895,14.817459999999999,10.69726,69.0
1774822999.7695649,1.6927719116210938e-05,2026-03-29T22:23:19.769,2026-03-29T18:23:19.769,-32919.975,-45596.25,-85270.86,-50785.604999999996,-12507.525,-17646.75,6159.195,-60683.939999999995,1.6494269737511524,1.6568371785549418,3.6854041390910903,5.845446469901086,7.6793439608877385,6.486547562431641,0.08620166007899856,-0.1914357358548879,-0.53210313,-0.6386702400000001,0.573729,12.5895,14.817459999999999,10.69726,69.0
1774822999.769572,7.152557373046875e-06,2026-03-29T22:23:19.769,2026-03-29T18:23:19.769,-32913.225,-45597.509999999995,-85276.08,-50794.424999999996,-12516.57,-17654.22,6156.99,-60676.29,5.448530513906904,3.19108959125086,2.7386251982988736,10.006685947721536,10.313172303500783,7.718882573835744,5.196394988482264,3.62897256577273,-0.53210313,-0.6386702400000001,0.573729,12.5895,14.817459999999999,10.69726,69.0
1774822999.76958,7.867813110351562e-06,2026-03-29T22:23:19.769,2026-03-29T18:23:19.769,-32906.565,-45593.235,-85280.58,-50806.979999999996,-12537.314999999999,-17682.975,6158.205,-60673.274999999994,6.823125974732492,3.5798223391207658,0.9787581707737922,10.356757244536034,8.786125544392107,5.9540409554933955,7.838568042727855,5.6442492976459,-0.53210313,-0.6386702400000001,0.573729,12.5895,14.817459999999999,10.69726,69.0
1774822999.7695868,6.9141387939453125e-06,2026-03-29T22:23:19.769,2026-03-29T18:23:19.769,-32911.74,-45589.005,-85275.18,-50806.08,-12540.555,-17692.785,6168.465,-60678.494999999995,5.088072219955763,2.4502900939955534,-1.079794035171673,6.471717743710473,3.717984725633133,2.114250422274575,6.799305215931731,4.991207504539574,-0.53210313,-0.6386702400000001,0.573729,12.5895,14.817459999999999,10.69726,69.0
1774822999.7717772,0.0021903514862060547,2026-03-29T22:23:19.771,2026-03-29T18:23:19.771,-32903.729999999996,-45584.82,-85269.375,-50800.95,-12537.539999999999,-17693.415,6165.045,-60670.079999999994,0.9958253674771292,0.07135297006990632,-2.872865429746838,-0.35671172307281135,-2.8599557186267583,-2.220536965181595,2.6083115833825596,2.086092977452776,-0.53210313,-0.6386702400000001,0.573729,12.5895,14.817459999999999,10.69726,69.0
1774822999.7718017,2.4557113647460938e-05,2026-03-29T22:23:19.771,2026-03-29T18:23:19.771,-32894.595,-45582.03,-85270.59,-50815.08,-12561.48,-17718.48,6140.295,-60661.305,-3.589852549891198,-2.663918205174254,-3.8773941654169723,-7.506587965969358,-8.317841383082943,-5.467619648348146,-2.728484580064682,-1.6128930635975354,-0.53210313,-0.6386702400000001,0.573729,12.5895,14.817459999999999,10.69726,69.0
1774822999.778421,0.00661921501159668,2026-03-29T22:23:19.778,2026-03-29T18:23:19.778,-32913.494999999995,-45592.695,-85276.34999999999,-50818.59,-12564.18,-17724.105,6112.215,-60682.545,-6.553114728476149,-4.562853259805501,-3.7096874250053404,-12.009203646121172,-10.469697446311855,-6.59038164674615,-6.694131611324743,-4.3372109725518095,-0.5261217,-0.61413417,0.552793995,-17.67108,7.87416,14.90902,69.0
1774822999.7784398,1.8835067749023438e-05,2026-03-29T22:23:19.778,2026-03-29T18:23:19.778,-32923.305,-45605.744999999995,-85293.315,-50828.22,-12563.279999999999,-17714.16,6121.304999999999,-60691.5,-6.517574603717785,-4.653295760154615,-2.2542360873742635,-11.775427905325454,-8.437832608418354,-5.368315956345388,-7.456932401293431,-4.866665008009165,-0.5261217,-0.61413417,0.552793995,-17.67108,7.87416,14.90902,69.0
1774822999.7784567,1.6927719116210938e-05,2026-03-29T22:23:19.778,2026-03-29T18:23:19.778,-32904.09,-45589.77,-85280.12999999999,-50813.729999999996,-12547.305,-17696.79,6160.679999999999,-60676.29,-3.4985671749132092,-2.6726896602001173,0.2084547869657368,-6.562143208373756,-3.0038424134672654,-2.3594339293906037,-4.724823816118794,-3.0924746473357687,-0.5261217,-0.61413417,0.552793995,-17.67108,7.87416,14.90902,69.0
1774822999.7784655,8.821487426757812e-06,2026-03-29T22:23:19.778,2026-03-29T18:23:19.778,-32881.14,-45569.564999999995,-85262.895,-50797.125,-12531.195,-17681.985,6178.545,-60655.454999999994,1.0990395971537796,0.7168366474497545,2.962421355591359,1.7677952059943964,3.6906597239239733,1.3615172426257316,0.14433697047668967,-0.01703002749093083,-0.5261217,-0.61413417,0.552793995,-17.67108,7.87416,14.90902,69.0
1774822999.7834926,0.005027055740356445,2026-03-29T22:23:19.783,2026-03-29T18:23:19.783,-32873.534999999996,-45554.04,-85242.465,-50778.674999999996,-12512.744999999999,-17668.305,6151.635,-60654.555,5.141131093684223,4.1272301443581245,4.997513544296804,9.875984502856564,8.98040481285062,4.563623780490634,4.817041710522859,2.7915026403158003,-0.5261217,-0.61413417,0.552793995,-17.67108,7.87416,14.90902,69.0
1774822999.7835095,1.6927719116210938e-05,2026-03-29T22:23:19.783,2026-03-29T18:23:19.783,-32874.75,-45550.619999999995,-85237.29,-50769.72,-12497.49,-17658.18,6143.76,-60664.095,6.769721402114587,6.011458714933832,5.352918150965197,14.27711129960095,10.728360185863336,6.212738864295599,7.107690985659516,4.0000848006721865,-0.5261217,-0.61413417,0.552793995,-17.67108,7.87416,14.90902,69.0
1774822999.7894547,0.0059452056884765625,2026-03-29T22:23:19.789,2026-03-29T18:23:19.789,-32870.61,-45555.165,-85248.045,-50785.11,-12514.814999999999,-17668.89,6165.8099999999995,-60658.604999999996,5.273230068747104,5.368316383014233,3.563171663252652,12.842685381864472,8.1835875079199,5.751112360653355,6.007650534988048,3.1574372551899366,-0.5261217,-0.61413417,0.552793995,-17.67108,7.87416,14.90902,69.0
1774822999.7894683,1.3589859008789062e-05,2026-03-29T22:23:19.789,2026-03-29T18:23:19.789,-32862.33,-45549.36,-85243.72499999999,-50780.97,-12517.74,-17667.18,6192.855,-60645.195,1.4065529671497716,2.2628004610523336,0.002977669979381158,5.828376244598225,2.3036096467168314,3.264176017691358,2.1321377110801203,0.8665621185405296,-0.5261217,-0.61413417,0.552793995,-17.67108,7.87416,14.90902,69.0
1774822999.7918055,0.002337217330932617,2026-03-29T22:23:19.791,2026-03-29T18:23:19.791,-32880.555,-45565.92,-85253.4,-50782.814999999995,-12518.234999999999,-17660.43,6202.035,-60643.17,-2.9876946595398133,-2.1043683847464445,-4.08534765825116,-4.071336021995436,-4.597705681676091,-0.5019457639702939,-2.6140378684692416,-1.5858458059589362,-0.5261217,-0.61413417,0.552793995,-17.67108,7.87416,14.90902,69.0
1774822999.7918231,1.7642974853515625e-05,2026-03-29T22:23:19.791,2026-03-29T18:23:19.791,-32907.24,-45594.54,-85277.925,-50806.17,-12545.64,-17667.989999999998,6167.16,-60658.56,-5.867610034295774,-5.8536788284537975,-6.985220083378495,-12.741764162588463,-9.752689089291207,-4.306920350299663,-5.973274768420804,-2.931659726389686,-0.5261217,-0.61413417,0.552793995,-17.67108,7.87416,14.90902,69.0
1774822999.797038,0.0052149295806884766,2026-03-29T22:23:19.797,2026-03-29T18:23:19.797,-32923.799999999996,-45621.765,-85309.065,-50838.119999999995,-12575.564999999999,-17702.19,6140.925,-60665.31,-5.957277506077416,-7.240708236866637,-7.220909732257999,-16.36442755405115,-11.04583021937791,-6.770612834392311,-6.412881976788839,-2.578933966598771,-0.492979695,-0.583799775,0.53613144,-51.319379999999995,-3.4792799999999997,5.58516,69.0
1774822999.7970667,2.86102294921875e-05,2026-03-29T22:23:19.797,2026-03-29T18:23:19.797,-32917.68,-45617.354999999996,-85305.285,-50834.295,-12558.015,-17722.079999999998,6151.5,-60664.68,-3.3251968665176563,-5.472610270924055,-4.300059135602978,-13.112522998104636,-7.883474881779217,-6.849067984081112,-3.8271765747300526,-0.8829299801733017,-0.492979695,-0.583799775,0.53613144,-51.319379999999995,-3.4792799999999997,5.58516,69.0
1774822999.805468,0.00840139389038086,2026-03-29T22:23:19.805,2026-03-29T18:23:19.805,-32899.095,-45596.43,-85284.495,-50810.4,-12536.955,-17705.745,6156.135,-60656.85,0.6926443447213686,-1.14298959787759,0.8871625239029903,-4.065608015588711,-1.4684146075492603,-4.281850875499485,0.4587984440618383,1.0987319189114055,-0.492979695,-0.583799775,0.53613144,-51.319379999999995,-3.4792799999999997,5.58516,69.0
1774822999.8054953,2.7179718017578125e-05,2026-03-29T22:23:19.805,2026-03-29T18:23:19.805,-32893.695,-45588.78,-85273.605,-50796.54,-12522.195,-17674.739999999998,6149.925,-60654.06,4.170794445881627,3.947289007154256,6.275229929199384,7.113340808462543,5.649633171558573,0.18423895554610661,4.364132535004297,2.21933903034015,-0.492979695,-0.583799775,0.53613144,-51.319379999999995,-3.4792799999999997,5.58516,69.0
1774822999.8055196,2.4318695068359375e-05,2026-03-29T22:23:19.805,2026-03-29T18:23:19.805,-32898.555,-45591.119999999995,-85266.22499999999,-50760.045,-12481.289999999999,-17629.245,6151.905,-60658.064999999995,5.529270198547919,7.541905015713958,9.433728119891429,15.663976214076802,10.584805982117972,4.947791068262083,6.062813149207694,1.8835060444876635,-0.492979695,-0.583799775,0.53613144,-51.319379999999995,-3.4792799999999997,5.58516,69.0
1774822999.8055313,1.1682510375976562e-05,2026-03-29T22:23:19.805,2026-03-29T18:23:19.805,-32909.49,-45609.119999999995,-85307.355,-50768.595,-12505.23,-17659.53,6139.125,-60661.395,4.266139881061222,7.938925082905991,8.670454768191087,17.773767012344702,11.288089447078285,8.097265292091027,4.8387124875699445,0.364843721990504,-0.492979695,-0.583799775,0.53613144,-51.319379999999995,-3.4792799999999997,5.58516,69.0
1774822999.807915,0.002383708953857422,2026-03-29T22:23:19.807,2026-03-29T18:23:19.807,-32917.815,-45623.564999999995,-85354.73999999999,-50822.595,-12576.51,-17757.405,6112.08,-60669.27,1.1413409864258763,4.802657655955665,3.9234336892244954,12.294742120800255,7.403775968037457,8.179115138483848,1.3838109619481553,-1.3691298225918245,-0.492979695,-0.583799775,0.53613144,-51.319379999999995,-3.4792799999999997,5.58516,69.0
1774822999.8079429,2.7894973754882812e-05,2026-03-29T22:23:19.807,2026-03-29T18:23:19.807,-32923.845,-45623.205,-85348.395,-50838.84,-12564.945,-17743.32,6101.37,-60685.424999999996,-2.2550080249403277,-0.6123902721415231,-3.023619865039782,1.3501921092244527,0.4475703840862605,4.879410927370168,-2.582242076895404,-2.2237396954671893,-0.492979695,-0.583799775,0.53613144,-51.319379999999995,-3.4792799999999997,5.58516,69.0
1774822999.8117282,0.003785371780395508,2026-03-29T22:23:19.811,2026-03-29T18:23:19.811,-32925.06,-45608.805,-85284.98999999999,-50783.58,-12456.045,-17603.46,6142.679999999999,-60687.72,-4.312807078238495,-5.960886481274222,-9.18824649022135,-10.484121686581108,-6.783289078719746,-0.7066009008123009,-5.165647273252653,-1.6185351796770557,-0.492979695,-0.583799775,0.53613144,-51.319379999999995,-3.4792799999999997,5.58516,69.0
1774822999.8117533,2.5033950805664062e-05,2026-03-29T22:23:19.811,2026-03-29T18:23:19.811,-32919.615,-45605.295,-85274.325,-50815.845,-12491.685,-17634.42,6155.55,-60684.03,-4.177310903667859,-8.832601828758609,-11.678150492634838,-18.110935707931475,-11.339503613893243,-6.399311055682957,-5.201892094627769,0.15718236700722574,-0.492979695,-0.583799775,0.53613144,-51.319379999999995,-3.4792799999999997,5.58516,69.0
1774822999.8312435,0.01949024200439453,2026-03-29T22:23:19.831,2026-03-29T18:23:19.831,-32897.205,-45598.5,-85323.825,-50914.305,-12632.67,-17811.765,6143.985,-60670.17,-2.1111014708396856,-7.8520255335911235,-9.061484092341303,-18.1310122352046,-11.32993032388647,-9.78112836428484,-2.778197855879698,2.081029391831699,-0.46447635,-0.610411035,0.52392444,-42.78904,-14.08498,4.852679999999999,69.0
1774822999.8312633,1.9788742065429688e-05,2026-03-29T22:23:19.831,2026-03-29T18:23:19.831,-32900.354999999996,-45599.895,-85331.295,-50880.104999999996,-12619.845,-17823.285,6158.205,-60672.195,0.7139624693630165,-3.344160903946999,-2.162976460706158,-10.372882771820322,-6.711240181063074,-9.236771592062654,0.8580821706759737,2.962541468493785,-0.46447635,-0.610411035,0.52392444,-42.78904,-14.08498,4.852679999999999,69.0
1774822999.8312812,1.7881393432617188e-05,2026-03-29T22:23:19.831,2026-03-29T18:23:19.831,-32903.505,-45597.42,-85298.04,-50794.695,-12558.24,-17756.64,6160.094999999999,-60671.924999999996,2.8602494381468753,2.7589930892915686,6.148071684386203,1.963174503339936,0.6761951808701191,-4.731888024442262,3.9371203793095546,2.1319340804316536,-0.46447635,-0.610411035,0.52392444,-42.78904,-14.08498,4.852679999999999,69.0
1774822999.831288,6.9141387939453125e-06,2026-03-29T22:23:19.831,2026-03-29T18:23:19.831,-32900.76,-45587.43,-85261.905,-50779.125,-12539.88,-17713.305,6141.0599999999995,-60670.665,3.357164616856739,7.75421097440502,12.156619845044535,13.640072980779651,7.848355005391459,2.049448455093957,5.025716183134777,-0.1310193849204929,-0.46447635,-0.610411035,0.52392444,-42.78904,-14.08498,4.852679999999999,69.0
1774822999.8312967,8.58306884765625e-06,2026-03-29T22:23:19.831,2026-03-29T18:23:19.831,-32899.095,-45584.145,-85258.125,-50810.67,-12551.445,-17702.28,6137.235,-60665.265,2.149254436670884,9.38076622869905,12.984919946390438,19.633705301120415,11.89212143082556,8.324396216392504,3.6914635008251975,-2.6818721138383332,-0.46447635,-0.610411035,0.52392444,-42.78904,-14.08498,4.852679999999999,69.0
1774822999.831303,6.198883056640625e-06,2026-03-29T22:23:19.831,2026-03-29T18:23:19.831,-32900.805,-45580.994999999995,-85269.42,-50838.21,-12567.375,-17714.969999999998,6142.905,-60659.189999999995,0.048840310177816836,6.860176130064625,7.986826646498234,17.318150922407252,11.154151355870967,11.364050030725535,0.6654866391429854,-4.090300200753601,-0.46447635,-0.610411035,0.52392444,-42.78904,-14.08498,4.852679999999999,69.0
1774822999.8313112,8.344650268554688e-06,2026-03-29T22:23:19.831,2026-03-29T18:23:19.831,-32907.104999999996,-45583.74,-85278.33,-50833.485,-12561.3,-17700.75,6151.7699999999995,-60655.68,-1.7536147647448421,1.2762074410706499,-0.8301637014858944,7.624197491594587,5.914642428581774,9.694639435773256,-2.5520570317834905,-3.41971457245316,-0.46447635,-0.610411035,0.52392444,-42.78904,-14.08498,4.852679999999999,69.0
1774822999.8313174,6.198883056640625e-06,2026-03-29T22:23:19.831,2026-03-29T18:23:19.831,-32911.02,-45590.805,-85285.44,-50834.43,-12546.945,-17666.145,6155.01,-60650.055,-2.3426555238922857,-4.894180530698294,-9.610411485397792,-5.344281230702931,-1.728313313355643,3.8103614093832867,-4.433186942650785,-0.7900788544091072,-0.46447635,-0.610411035,0.52392444,-42.78904,-14.08498,4.852679999999999,69.0
1774822999.831325,7.62939453125e-06,2026-03-29T22:23:19.831,2026-03-29T18:23:19.831,-32906.97,-45588.869999999995,-85283.45999999999,-50831.505,-12544.425,-17677.755,6145.605,-60635.34,-1.5436858472620667,-8.89568270031796,-14.361774965139032,-16.073299184273083,-8.710912854955685,-3.946830608027165,-4.144620751505912,2.5968818890275887,-0.46447635,-0.610411035,0.52392444,-42.78904,-14.08498,4.852679999999999,69.0
1774822999.8313315,6.4373016357421875e-06,2026-03-29T22:23:19.831,2026-03-29T18:23:19.831,-32905.034999999996,-45590.939999999995,-85290.12,-50831.909999999996,-12547.98,-17688.239999999998,6139.844999999999,-60618.689999999995,0.035605770072821105,-8.947012348315985,-12.801826852945661,-20.011370253077022,-12.238826169209304,-10.325981520186149,-1.9111905092131383,5.0167446411959045,-0.46447635,-0.610411035,0.52392444,-42.78904,-14.08498,4.852679999999999,69.0
1774822999.8362536,0.004922151565551758,2026-03-29T22:23:19.836,2026-03-29T18:23:19.836,-32906.295,-45588.33,-85288.31999999999,-50829.615,-12547.439999999999,-17687.16,6138.8099999999995,-60612.479999999996,1.3910801633233365,-5.051672131140597,-5.469858760168039,-15.517075749890292,-10.9021421197999,-12.542525034794778,1.1354331803943727,5.101071815197597,-0.442198575,-0.65576004,0.559751985,11.65864,-8.9271,-1.96854,69.0
1774822999.83628,2.6464462280273438e-05,2026-03-29T22:23:19.836,2026-03-29T18:23:19.836,-32920.335,-45589.095,-85285.665,-50825.025,-12541.904999999999,-17680.68,6145.425,-60620.805,1.7095664028061137,1.0107807431077165,4.445532502354369,-4.539816792538921,-5.225724115805131,-9.500385775135975,3.528427856354895,2.5871021118043105,-0.442198575,-0.65576004,0.559751985,11.65864,-8.9271,-1.96854,69.0
1774822999.841718,0.0054378509521484375,2026-03-29T22:23:19.841,2026-03-29T18:23:19.841,-32918.985,-45585.18,-85281.39,-50818.68,-12533.984999999999,-17673.975,6155.28,-60615.27,0.829919330793469,6.509306291727611,12.518379674005274,8.247100986341456,2.552965276125375,-2.320737005175522,4.169831108800003,-1.4644610146506143,-0.442198575,-0.65576004,0.559751985,11.65864,-8.9271,-1.96854,69.0
1774822999.8417375,1.9550323486328125e-05,2026-03-29T22:23:19.841,2026-03-29T18:23:19.841,-32913.09,-45589.32,-85291.92,-50828.67,-12545.189999999999,-17688.465,6147.135,-60604.829999999994,-0.674609421151978,9.015830596517953,15.100596080978812,17.46578299019889,9.375184539077441,6.071981017984059,2.8298508320130265,-5.126751351408168,-0.442198575,-0.65576004,0.559751985,11.65864,-8.9271,-1.96854,69.0
1774822999.843717,0.0019795894622802734,2026-03-29T22:23:19.843,2026-03-29T18:23:19.843,-32905.395,-45583.515,-85288.5,-50825.07,-12542.49,-17688.285,6138.135,-60596.369999999995,-1.8345662411116002,7.503023717899893,11.004209233372682,19.31861025149236,12.55938200462373,12.15043020582721,0.2164687828139692,-6.53712329789265,-0.442198575,-0.65576004,0.559751985,11.65864,-8.9271,-1.96854,69.0
1774822999.8437417,2.4557113647460938e-05,2026-03-29T22:23:19.843,2026-03-29T18:23:19.843,-32916.104999999996,-45577.935,-85274.09999999999,-50807.97,-12524.805,-17677.35,6119.325,-60606.405,-1.8535566750789025,2.776729472651103,2.0576932532487975,13.156481438891502,10.837792185829962,13.27157510456418,-2.3972705135597043,-4.844991895877518,-0.442198575,-0.65576004,0.559751985,11.65864,-8.9271,-1.96854,69.0
1774822999.8501394,0.006397724151611328,2026-03-29T22:23:19.850,2026-03-29T18:23:19.850,-32906.295,-45569.7,-85264.92,-50796.854999999996,-12514.5,-17671.725,6103.08,-60598.034999999996,-0.590836631817985,-2.9463429774682335,-7.730930065004027,1.680727756853801,4.839324964109618,8.820501026783157,-3.7929519503650555,-0.6939072379341373,-0.442198575,-0.65576004,0.559751985,11.65864,-8.9271,-1.96854,69.0
1774822999.8501525,1.3113021850585938e-05,2026-03-29T22:23:19.850,2026-03-29T18:23:19.850,-32886.045,-45562.365,-85264.065,-50797.665,-12518.595,-17679.239999999998,6097.86,-60582.509999999995,1.3167448711530834,-7.098488906833339,-14.013452671582678,-10.26824332999723,-3.1522873442466475,0.5191597087374644,-3.3720654189709793,4.02591871196353,-0.442198575,-0.65576004,0.559751985,11.65864,-8.9271,-1.96854,69.0
1774822999.8501668,1.430511474609375e-05,2026-03-29T22:23:19.850,2026-03-29T18:23:19.850,-32872.185,-45568.034999999996,-85278.465,-50812.92,-12532.859999999999,-17688.195,6139.44,-60562.979999999996,2.7741399093766517,-7.944093396485884,-14.079386386696104,-17.780004221782328,-10.062664927093898,-8.243667051874455,-1.4058299792730098,7.057637453827227,-0.442198575,-0.65576004,0.559751985,11.65864,-8.9271,-1.96854,69.0
1774822999.8501732,6.4373016357421875e-06,2026-03-29T22:23:19.850,2026-03-29T18:23:19.850,-32896.395,-45611.055,-85329.94499999999,-50870.159999999996,-12592.125,-17742.015,6133.05,-60563.79,2.828684060500533,-5.326624680792837,-8.049661467181298,-17.903046868938535,-13.186696130394678,-13.795354919251999,1.131160412269779,6.871710483765238,-0.442198575,-0.65576004,0.559751985,11.65864,-8.9271,-1.96854,69.0
1774822999.855902,0.005728721618652344,2026-03-29T22:23:19.855,2026-03-29T18:23:19.855,-32899.32,-45606.195,-85319.81999999999,-50860.395,-12582.72,-17734.995,6117.03,-60568.064999999995,1.2315132097798112,-0.6458557511015695,1.253992031101697,-10.789571252600673,-11.217969244622994,-13.709783411537721,3.0452289201614122,3.436692434348637,-0.414000405,-0.645933405,0.6005844,62.565999999999995,10.69726,-34.1061,69.0
1774822999.8559277,2.574920654296875e-05,2026-03-29T22:23:19.855,2026-03-29T18:23:19.855,-32930.955,-45596.88,-85295.34,-50828.13,-12543.795,-17694.63,6145.785,-60597.27,-1.3528399704283083,3.887222634372976,9.66904090520737,0.4800743127190821,-4.77281335546802,-7.852435810869972,3.4849668451656104,-1.721874366231092,-0.414000405,-0.645933405,0.6005844,62.565999999999995,10.69726,-34.1061,69.0
1774822999.8698,0.013872385025024414,2026-03-29T22:23:19.869,2026-03-29T18:23:19.869,-32930.505,-45592.155,-85290.345,-50821.02,-12532.32,-17679.915,6169.995,-60588.72,-3.6254889075343644,6.324427792759397,13.610367599564144,11.259599474229422,3.7879051527614314,1.5006536298138515,2.3158939321505176,-6.2183491945516725,-0.414000405,-0.645933405,0.6005844,62.565999999999995,10.69726,-34.1061,69.0
1774822999.8698163,1.621246337890625e-05,2026-03-29T22:23:19.869,2026-03-29T18:23:19.869,-32914.979999999996,-45592.875,-85297.72499999999,-50829.659999999996,-12541.14,-17688.69,6162.165,-60571.71,-4.3018314025302296,5.84966316848871,11.636299633135732,17.26995098496138,11.192449823017217,10.53894631059318,0.14554641632617032,-7.9322201377104955,-0.414000405,-0.645933405,0.6005844,62.565999999999995,10.69726,-34.1061,69.0
1774822999.8698342,1.7881393432617188e-05,2026-03-29T22:23:19.869,2026-03-29T18:23:19.869,-32916.195,-45600.03,-85304.87999999999,-50834.43,-12545.865,-17691.48,6159.69,-60563.159999999996,-2.8069305209298645,3.039139476948834,4.95679600536717,16.29014826757663,14.468754521833475,15.453535555281679,-1.9932302209725603,-6.020883572104705,-0.414000405,-0.645933405,0.6005844,62.565999999999995,10.69726,-34.1061,69.0
1774822999.8698404,6.198883056640625e-06,2026-03-29T22:23:19.869,2026-03-29T18:23:19.869,-32908.68,-45592.875,-85288.995,-50809.095,-12509.685,-17648.01,6171.255,-60546.555,0.3484573294672822,-0.5664416356095529,-3.287698965971668,8.941545764253073,12.106426909696685,14.022811847190807,-3.135860912585668,-1.3302900978709657,-0.414000405,-0.645933405,0.6005844,62.565999999999995,10.69726,-34.1061,69.0
1774822999.8698492,8.821487426757812e-06,2026-03-29T22:23:19.869,2026-03-29T18:23:19.869,-32900.22,-45592.604999999996,-85296.915,-50818.32,-12520.529999999999,-17662.59,6163.11,-60534.09,3.731420703671209,-3.3076983473847514,-9.558766105028758,-1.6905975999567704,4.734481816487233,6.599527577409279,-2.819988556382691,3.9955832670559404,-0.414000405,-0.645933405,0.6005844,62.565999999999995,10.69726,-34.1061,69.0
1774822999.8698556,6.4373016357421875e-06,2026-03-29T22:23:19.869,2026-03-29T18:23:19.869,-32897.52,-45600.884999999995,-85324.36499999999,-50860.665,-12577.365,-17730.045,6141.69,-60524.595,5.643053049482702,-4.208040277581743,-11.492679171490153,-11.37502155207382,-4.979187291849925,-3.928790959868081,-1.2651633839607592,7.51864634018991,-0.414000405,-0.645933405,0.6005844,62.565999999999995,10.69726,-34.1061,69.0
1774822999.8718476,0.0019919872283935547,2026-03-29T22:23:19.871,2026-03-29T18:23:19.871,-32906.61,-45596.159999999996,-85305.915,-50838.435,-12551.939999999999,-17702.864999999998,6147.585,-60523.47,4.963890749898386,-3.327077472901291,-8.785935362006061,-16.417668800902845,-13.23714138230547,-13.234861871647018,0.7675351650179112,7.642980535783143,-0.414000405,-0.645933405,0.6005844,62.565999999999995,10.69726,-34.1061,69.0
1774822999.871862,1.430511474609375e-05,2026-03-29T22:23:19.871,2026-03-29T18:23:19.871,-32910.659999999996,-45599.174999999996,-85300.83,-50827.365,-12536.055,-17681.399999999998,6150.87,-60520.32,1.77063782863623,-1.5309128631985196,-3.0605835207715413,-15.040696975173873,-16.55313147614666,-17.301863510689326,2.3511442760777155,4.344611253077332,-0.414000405,-0.645933405,0.6005844,62.565999999999995,10.69726,-34.1061,69.0
1774822999.8758426,0.0039806365966796875,2026-03-29T22:23:19.875,2026-03-29T18:23:19.875,-32907.869999999995,-45589.68,-85285.53,-50813.595,-12525.164999999999,-17673.885,6150.78,-60515.46,-2.602755598881002,0.12959851517912976,3.1012091799057684,-7.958916647369949,-13.203621908487635,-14.137781668035355,2.8174742512665243,-0.842171788500604,-0.40368549,-0.59997405,0.602842695,56.55356,10.86512,-50.022279999999995,69.0
1774822999.8758693,2.6702880859375e-05,2026-03-29T22:23:19.875,2026-03-29T18:23:19.875,-32908.455,-45592.515,-85294.215,-50823.18,-12538.305,-17692.02,6142.905,-60515.369999999995,-6.1267813552114925,1.038761194155843,7.387388402029991,2.0026014980365403,-4.098650938317692,-4.734851086053859,2.0355544491177713,-5.559850032359764,-0.40368549,-0.59997405,0.602842695,56.55356,10.86512,-50.022279999999995,69.0
1774822999.8795817,0.0037124156951904297,2026-03-29T22:23:19.879,2026-03-29T18:23:19.879,-32905.935,-45597.104999999996,-85309.605,-50841.674999999996,-12558.42,-17712.36,6135.255,-60512.31,-7.021723886534777,1.2705875977698744,8.634715188301305,11.041782148489657,7.357355212461681,7.179327501530383,0.4296292863255925,-7.7225227053547,-0.40368549,-0.59997405,0.602842695,56.55356,10.86512,-50.022279999999995,69.0
1774822999.8795953,1.3589859008789062e-05,2026-03-29T22:23:19.879,2026-03-29T18:23:19.879,-32902.155,-45592.875,-85311.09,-50850.674999999996,-12573.359999999999,-17731.17,6129.63,-60508.979999999996,-4.644626550710879,1.3554838976544736,7.0106778336222195,15.805404198104261,16.475321706124497,16.57732576259457,-1.2506285336619651,-6.451419370646914,-0.40368549,-0.59997405,0.602842695,56.55356,10.86512,-50.022279999999995,69.0
1774822999.883704,0.0041086673736572266,2026-03-29T22:23:19.883,2026-03-29T18:23:19.883,-32908.905,-45591.165,-85303.395,-50845.275,-12566.97,-17724.735,6133.815,-60509.34,0.11960737751838527,1.7453954544881727,3.5686655930020135,14.586456528180468,19.169906664659482,19.225987399372926,-2.2841626002162054,-2.425315627391394,-0.40368549,-0.59997405,0.602842695,56.55356,10.86512,-50.022279999999995,69.0
1774822999.8837144,1.049041748046875e-05,2026-03-29T22:23:19.883,2026-03-29T18:23:19.883,-32906.115,-45593.145,-85313.87999999999,-50873.715,-12600.359999999999,-17756.055,6134.4,-60502.005,5.181944487203279,2.356581414918769,-0.43697206087636187,7.892084982802046,13.785295781404953,13.583991246196588,-2.288168976472304,2.489883643318227,-0.40368549,-0.59997405,0.602842695,56.55356,10.86512,-50.022279999999995,69.0
1774822999.888383,0.004668474197387695,2026-03-29T22:23:19.888,2026-03-29T18:23:19.888,-32906.295,-45592.244999999995,-85310.19,-50870.88,-12597.345,-17742.555,6135.12,-60501.104999999996,8.171700858767394,2.526574943010589,-4.04059072904332,-1.7801267128738478,2.0468804641376805,1.6592846703580852,-1.3503410215669338,6.127942754652451,-0.40368549,-0.59997405,0.602842695,56.55356,10.86512,-50.022279999999995,69.0
1774822999.8883936,1.0728836059570312e-05,2026-03-29T22:23:19.888,2026-03-29T18:23:19.888,-32908.725,-45591.435,-85301.73,-50849.189999999995,-12570.705,-17720.325,6132.15,-60505.649999999994,7.54739085543321,1.4606390722417886,-6.644717173081605,-10.852345882026082,-11.385628844573212,-11.635466642208474,0.05649876756735015,6.99420232695364,-0.40368549,-0.59997405,0.602842695,56.55356,10.86512,-50.022279999999995,69.0
1774822999.89406,0.005666255950927734,2026-03-29T22:23:19.894,2026-03-29T18:23:19.894,-32905.395,-45594.045,-85311.98999999999,-50855.445,-12581.73,-17745.03,6115.995,-60509.655,3.3752384744943495,-1.0872050445757309,-7.803249629025362,-15.943026323918884,-20.720393996539546,-20.46692716873546,1.315964931824187,4.878495989754925,-0.40368549,-0.59997405,0.602842695,56.55356,10.86512,-50.022279999999995,69.0
1774822999.8940852,2.5272369384765625e-05,2026-03-29T22:23:19.894,2026-03-29T18:23:19.894,-32899.32,-45587.564999999995,-85302.98999999999,-50837.31,-12561.93,-17734.23,6113.7,-60514.74,-2.611603721922457,-4.351143559234459,-7.0375012518413165,-15.081056211080906,-21.522935623931264,-20.627614655905806,1.941763319933308,0.8587915253878919,-0.40368549,-0.59997405,0.602842695,56.55356,10.86512,-50.022279999999995,69.0
1774822999.8960073,0.0019221305847167969,2026-03-29T22:23:19.896,2026-03-29T18:23:19.896,-32885.28,-45568.71,-85267.34999999999,-50787.314999999995,-12500.865,-17665.065,6118.785,-60515.189999999995,-7.736496763375223,-6.688940971879834,-3.9703166772819336,-8.448462712181339,-12.829822232142893,-11.542757275952825,1.7603980940696062,-3.2594755770781627,-0.426085335,-0.56188821,0.565123065,30.382659999999998,-5.9208799999999995,-34.0298,69.0
1774822999.8960197,1.239776611328125e-05,2026-03-29T22:23:19.896,2026-03-29T18:23:19.896,-32867.685,-45549.585,-85246.33499999999,-50762.7,-12481.199999999999,-17653.23,6101.415,-60515.369999999995,-9.581680105372829,-6.3683312768098554,1.2148336742926262,1.6160549318140536,2.1227132952164447,3.2191869717397337,0.936923299118023,-5.7725243218981035,-0.426085335,-0.56188821,0.565123065,30.382659999999998,-5.9208799999999995,-34.0298,69.0
1774822999.8998597,0.0038399696350097656,2026-03-29T22:23:19.899,2026-03-29T18:23:19.899,-32867.505,-45546.345,-85242.42,-50758.604999999996,-12482.955,-17658.855,6079.635,-60528.104999999996,-7.1271245875494085,-2.6444594366476246,7.310070766262462,11.389997004617634,17.028689468626354,17.288577383444185,-0.14279939060993052,-5.786682645521772,-0.426085335,-0.56188821,0.565123065,30.382659999999998,-5.9208799999999995,-34.0298,69.0
1774822999.89987,1.0251998901367188e-05,2026-03-29T22:23:19.899,2026-03-29T18:23:19.899,-32870.61,-45549.45,-85241.79,-50751.134999999995,-12464.234999999999,-17630.46,6112.9349999999995,-60533.729999999996,-1.2903607446832523,3.4872228655410633,12.07485313039662,17.091449792149252,25.153209982007787,24.22108280314558,-1.0583281667393898,-3.510169243810025,-0.426085335,-0.56188821,0.565123065,30.382659999999998,-5.9208799999999995,-34.0298,69.0
1774822999.903983,0.004113197326660156,2026-03-29T22:23:19.903,2026-03-29T18:23:19.903,-32877.765,-45576.765,-85277.87999999999,-50783.715,-12480.435,-17629.875,6172.0199999999995,-60523.47,5.410019615715329,9.399437171375304,12.959622004273347,16.314285999996784,22.39131286277042,20.45606523280454,-1.5174638264918634,-0.04953809509433536,-0.426085335,-0.56188821,0.565123065,30.382659999999998,-5.9208799999999995,-34.0298,69.0
1774822999.9040077,2.4557113647460938e-05,2026-03-29T22:23:19.904,2026-03-29T18:23:19.904,-32859.63,-45568.755,-85278.51,-50797.845,-12498.029999999999,-17662.815,6154.335,-60512.174999999996,9.946930569422351,11.924744034959621,8.39376636581239,9.04596244579351,9.350379874152644,7.147831340589105,-1.4329055304738036,3.140815796362804,-0.426085335,-0.56188821,0.565123065,30.382659999999998,-5.9208799999999995,-34.0298,69.0
1774822999.9081357,0.004127979278564453,2026-03-29T22:23:19.908,2026-03-29T18:23:19.908,-32828.445,-45537.57,-85254.48,-50794.965,-12505.32,-17687.61,6124.7699999999995,-60508.575,10.157026807398774,8.996003126277582,-0.9849605940566962,-2.163108344813752,-8.602910380774958,-10.072130728302078,-0.9032372816888294,4.877005336211458,-0.426085335,-0.56188821,0.565123065,30.382659999999998,-5.9208799999999995,-34.0298,69.0
1774822999.908161,2.5272369384765625e-05,2026-03-29T22:23:19.908,2026-03-29T18:23:19.908,-32785.2,-45487.08,-85189.5,-50721.57,-12442.14,-17626.95,6137.6849999999995,-60506.729999999996,5.768779706807222,1.0064684309464518,-11.94792990189544,-13.030036414864897,-23.51541722728776,-23.442641898063915,-0.13496458638270253,4.665676575930272,-0.426085335,-0.56188821,0.565123065,30.382659999999998,-5.9208799999999995,-34.0298,69.0
1774822999.9136107,0.005449771881103516,2026-03-29T22:23:19.913,2026-03-29T18:23:19.913,-32798.07,-45498.195,-85203.72,-50744.34,-12483.99,-17649.045,6144.344999999999,-60520.905,-1.40064732832122,-8.923168125391761,-19.63248590842638,-19.138433236075763,-28.38296771018935,-26.573504064038847,0.6414245124833924,2.7885357744971464,-0.426085335,-0.56188821,0.565123065,30.382659999999998,-5.9208799999999995,-34.0298,69.0
1774822999.9136376,2.6941299438476562e-05,2026-03-29T22:23:19.913,2026-03-29T18:23:19.913,-32845.049999999996,-45556.74,-85276.8,-50807.655,-12554.414999999999,-17704.71,6139.98,-60533.235,-8.199939694170753,-16.106719831162778,-19.65803409059254,-17.730767593140953,-20.473726228409824,-17.52171275100177,1.225223429154381,0.08047198228254605,-0.426085335,-0.56188821,0.565123065,30.382659999999998,-5.9208799999999995,-34.0298,69.0
1774822999.916297,0.002659320831298828,2026-03-29T22:23:19.916,2026-03-29T18:23:19.916,-32851.979999999996,-45573.165,-85295.295,-50806.215,-12541.32,-17699.85,6171.075,-60511.59,-11.535437178899535,-16.485399205744585,-10.502090331971894,-8.969142861877517,-2.8487652547972626,0.04652540599346156,1.4664217564507322,-2.4498777398094105,-0.4748523,-0.56310891,0.537413175,-5.371519999999999,-27.8495,-21.409779999999998,69.0
1774822999.9163241,2.7179718017578125e-05,2026-03-29T22:23:19.916,2026-03-29T18:23:19.916,-32843.97,-45576.045,-85297.455,-50785.695,-12492.72,-17657.864999999998,6187.635,-60487.155,-9.782792596825873,-8.833923532589301,5.112056670824641,3.9189132052655595,16.759987037889683,18.284918266728106,1.276619956029966,-3.9809712705762603,-0.4748523,-0.56310891,0.537413175,-5.371519999999999,-27.8495,-21.409779999999998,69.0
1774822999.9247036,0.008379459381103516,2026-03-29T22:23:19.924,2026-03-29T18:23:19.924,-32833.799999999996,-45560.475,-85273.92,-50747.625,-12442.545,-17607.329999999998,6157.3949999999995,-60491.79,-3.5727649492475804,4.189317659151969,20.77194741824521,15.778560114807073,29.342729159140838,28.664744140288196,0.6531558145857757,-4.100615120788068,-0.4748523,-0.56310891,0.537413175,-5.371519999999999,-27.8495,-21.409779999999998,69.0
1774822999.92473,2.6464462280273438e-05,2026-03-29T22:23:19.924,2026-03-29T18:23:19.924,-32820.03,-45528.345,-85245.25499999999,-50746.814999999995,-12454.695,-17610.39,6130.62,-60496.56,4.426921332897151,16.8596856865308,28.951597506956503,21.57851432523056,28.789345700406592,25.987929873057038,-0.28425166485386905,-2.85994922756438,-0.4748523,-0.56310891,0.537413175,-5.371519999999999,-27.8495,-21.409779999999998,69.0
1774822999.924755,2.5033950805664062e-05,2026-03-29T22:23:19.924,2026-03-29T18:23:19.924,-32824.755,-45536.22,-85253.895,-50783.04,-12506.715,-17657.82,6124.995,-60475.905,10.662977601113026,22.889152100006108,24.605760945631545,18.56589465477522,14.898838756544604,11.01715308244773,-1.2746906376906557,-0.6988195237731736,-0.4748523,-0.56310891,0.537413175,-5.371519999999999,-27.8495,-21.409779999999998,69.0
1774822999.924766,1.0967254638671875e-05,2026-03-29T22:23:19.924,2026-03-29T18:23:19.924,-32868.405,-45597.42,-85316.265,-50881.229999999996,-12590.595,-17729.28,6107.445,-60474.104999999996,12.282005548191904,18.528276223705355,8.075148949838114,7.593129068534537,-6.279256631950594,-9.618691040490223,-1.9562892511373082,1.698055661417764,-0.4748523,-0.56310891,0.537413175,-5.371519999999999,-27.8495,-21.409779999999998,69.0
1774822999.9433837,0.018617630004882812,2026-03-29T22:23:19.943,2026-03-29T18:23:19.943,-32892.075,-45621.945,-85335.97499999999,-50913.99,-12596.49,-17739.315,6102.2699999999995,-60479.64,8.439625968940902,4.743591471267247,-14.304706331228859,-7.031145186641458,-25.063753653000944,-26.33983833830047,-1.984400139983534,3.57482071002716,-0.4748523,-0.56310891,0.537413175,-5.371519999999999,-27.8495,-21.409779999999998,69.0
1774822999.9434073,2.3603439331054688e-05,2026-03-29T22:23:19.943,2026-03-29T18:23:19.943,-32880.555,-45605.384999999995,-85316.805,-50881.994999999995,-12572.595,-17718.57,6126.795,-60480.99,0.7312382719218675,-12.744542776261412,-32.530924279478214,-19.21141260333513,-32.598045653101195,-31.08234459742812,-1.198141213155829,4.294350005532778,-0.4748523,-0.56310891,0.537413175,-5.371519999999999,-27.8495,-21.409779999999998,69.0
1774822999.943426,1.8596649169921875e-05,2026-03-29T22:23:19.943,2026-03-29T18:23:19.943,-32869.665,-45592.244999999995,-85299.12,-50846.895,-12557.744999999999,-17709.21,6143.264999999999,-60478.02,-7.471845041088013,-25.80884245694127,-37.403170732958436,-23.621615680660074,-25.08007347879064,-21.22588004511411,0.24185385759874733,3.530622308837464,-0.4748523,-0.56310891,0.537413175,-5.371519999999999,-27.8495,-21.409779999999998,69.0
1774822999.9434333,7.3909759521484375e-06,2026-03-29T22:23:19.943,2026-03-29T18:23:19.943,-32865.299999999996,-45590.715,-85300.37999999999,-50840.009999999995,-12545.955,-17701.29,6155.325,-60462.36,-12.50407149936839,-27.70005440787225,-25.140356594662997,-18.069993779926016,-5.722292516937045,-1.0525774272382737,1.8350666600190029,1.4211232126209137,-0.4748523,-0.56310891,0.537413175,-5.371519999999999,-27.8495,-21.409779999999998,69.0
1774822999.9434428,9.5367431640625e-06,2026-03-29T22:23:19.943,2026-03-29T18:23:19.943,-32865.345,-45593.64,-85307.895,-50844.869999999995,-12544.83,-17705.295,6134.985,-60464.52,-12.050876952663792,-16.50350574878142,0.16391375822509627,-4.606251996647443,16.58466549243905,20.077234059330955,2.8930679880034584,-1.3940863844088622,-0.483946515,-0.54748395,0.541441485,16.84704,-37.387,-51.426199999999994,69.0
1774822999.9434493,6.4373016357421875e-06,2026-03-29T22:23:19.943,2026-03-29T18:23:19.943,-32862.6,-45590.58,-85309.92,-50849.505,-12547.8,-17710.11,6107.219999999999,-60484.14,-6.215972195686652,3.4928622450173448,27.716253959554383,11.194931164494278,31.370195548443768,32.076612019191806,2.830138261804849,-3.914652653498956,-0.483946515,-0.54748395,0.541441485,16.84704,-37.387,-51.426199999999994,69.0
1774822999.9434571,7.867813110351562e-06,2026-03-29T22:23:19.943,2026-03-29T18:23:19.943,-32845.095,-45561.465,-85282.69499999999,-50833.08,-12540.465,-17696.88,6108.48,-60496.829999999994,2.482566232816283,23.379728826629226,44.61918779787726,22.548147065751895,31.549252435180343,28.985345780086067,1.4739649511986923,-5.110017057953243,-0.483946515,-0.54748395,0.541441485,16.84704,-37.387,-51.426199999999994,69.0
1774822999.943463,5.9604644775390625e-06,2026-03-29T22:23:19.943,2026-03-29T18:23:19.943,-32829.705,-45535.32,-85256.91,-50801.805,-12513.869999999999,-17677.575,6122.205,-60492.6,10.203973386723263,33.6104970948445,41.937957067865355,24.40700462298892,16.878202022577817,11.973037342076813,-0.76319995421065,-4.344459885271065,-0.483946515,-0.54748395,0.541441485,16.84704,-37.387,-51.426199999999994,69.0
1774822999.9434707,7.62939453125e-06,2026-03-29T22:23:19.943,2026-03-29T18:23:19.943,-32835.33,-45541.755,-85285.08,-50806.755,-12510.045,-17664.255,6154.785,-60484.994999999995,13.488756046114668,28.60062306534194,19.37063248357871,15.751018439149878,-5.810930681044074,-11.039303913853738,-2.973793755716028,-1.7201876537410326,-0.483946515,-0.54748395,0.541441485,16.84704,-37.387,-51.426199999999994,69.0
1774822999.943477,6.198883056640625e-06,2026-03-29T22:23:19.943,2026-03-29T18:23:19.943,-32855.58,-45573.975,-85313.565,-50837.265,-12539.744999999999,-17664.795,6187.094999999999,-60478.92,10.815459869240879,9.717746667093865,-13.90219445817758,0.1537863382059115,-25.785377092494997,-29.061207550938214,-4.111820429468775,1.8481845449993397,-0.483946515,-0.54748395,0.541441485,16.84704,-37.387,-51.426199999999994,69.0
1774822999.949721,0.006244182586669922,2026-03-29T22:23:19.949,2026-03-29T18:23:19.949,-32871.825,-45602.865,-85324.68,-50862.465,-12570.119999999999,-17690.04,6177.195,-60481.979999999996,3.306821319965354,-14.918431177786076,-42.91536403378131,-15.684876422139098,-33.5239985427599,-33.31074166027674,-3.4841227058784345,4.922260191132501,-0.483946515,-0.54748395,0.541441485,16.84704,-37.387,-51.426199999999994,69.0
1774822999.9497416,2.0503997802734375e-05,2026-03-29T22:23:19.949,2026-03-29T18:23:19.949,-32877.405,-45629.595,-85345.065,-50875.38,-12560.4,-17724.239999999998,6162.795,-60487.784999999996,-5.742971497796474,-33.93502379547458,-53.69846023924942,-24.84495615196966,-25.316184274585893,-21.540821633500116,-1.147547609239199,6.1201502248020185,-0.483946515,-0.54748395,0.541441485,16.84704,-37.387,-51.426199999999994,69.0
1774822999.9532597,0.0035181045532226562,2026-03-29T22:23:19.953,2026-03-29T18:23:19.953,-32875.244999999995,-45619.56,-85320.98999999999,-50861.025,-12548.88,-17726.265,6146.91,-60501.24,-12.320208095348079,-37.993904300156636,-40.04367454462931,-23.25771787203095,-5.099157936807182,0.7384640931225516,2.0068833514260196,4.754696929278632,-0.483946515,-0.54748395,0.541441485,16.84704,-37.387,-51.426199999999994,69.0
1774822999.9532735,1.3828277587890625e-05,2026-03-29T22:23:19.953,2026-03-29T18:23:19.953,-32883.705,-45629.909999999996,-85330.395,-50858.28,-12554.685,-17715.51,6139.17,-60514.064999999995,-13.479790109583156,-24.39237862563763,-6.963547161574975,-11.557861585878394,17.400788674090638,22.818211343070477,4.574730352272111,1.2272922784473486,-0.483946515,-0.54748395,0.541441485,16.84704,-37.387,-51.426199999999994,69.0
1774822999.956458,0.0031845569610595703,2026-03-29T22:23:19.956,2026-03-29T18:23:19.956,-32875.155,-45626.174999999996,-85327.02,-50815.485,-12525.75,-17696.88,6129.36,-60520.274999999994,-8.669439515148959,1.2985512609236187,31.048466577006405,5.146639395607262,31.358524094226013,33.95256937754756,5.260544909947811,-3.0471744176585767,-0.431822625,-0.558409215,0.547789125,14.6496,-36.25776,-90.85804,69.0
1774822999.9564764,1.8358230590820312e-05,2026-03-29T22:23:19.956,2026-03-29T18:23:19.956,-32853.33,-45585.045,-85282.02,-50757.615,-12480.57,-17669.25,6115.23,-60531.57,0.007693429498636574,27.502616043934875,56.41350360728443,19.517576866730845,30.104220615917452,28.62906549691318,3.5284771310710745,-6.203858189966926,-0.431822625,-0.558409215,0.547789125,14.6496,-36.25776,-90.85804,69.0
1774822999.959947,0.0034706592559814453,2026-03-29T22:23:19.959,2026-03-29T18:23:19.959,-32818.14,-45538.155,-85246.965,-50734.17,-12443.715,-17634.329999999998,6118.965,-60531.615,8.71650592843135,41.8986467629755,56.677071713331244,25.25210027406125,14.370213220712417,9.34379047047684,-0.04413993115695359,-6.75854079270435,-0.431822625,-0.558409215,0.547789125,14.6496,-36.25776,-90.85804,69.0
1774822999.9599671,2.002716064453125e-05,2026-03-29T22:23:19.959,2026-03-29T18:23:19.959,-32779.17,-45508.32,-85230.09,-50748.119999999995,-12451.365,-17630.325,6149.5199999999995,-60503.939999999995,13.592010003411717,37.26228153169601,30.66174726538327,19.899162237285406,-8.076304516071911,-14.535724325461167,-3.925492062623228,-4.327752440667717,-0.431822625,-0.558409215,0.547789125,14.6496,-36.25776,-90.85804,69.0
1774822999.9732127,0.013245582580566406,2026-03-29T22:23:19.973,2026-03-29T18:23:19.973,-32779.89,-45520.695,-85251.15,-50799.915,-12498.705,-17660.925,6166.035,-60487.424999999996,12.46134076575655,15.096482767726938,-10.495396319735205,5.945141951112332,-26.250469339056675,-31.318309779684554,-6.280482167305159,0.12023918638942628,-0.431822625,-0.558409215,0.547789125,14.6496,-36.25776,-90.85804,69.0
1774822999.973245,3.218650817871094e-05,2026-03-29T22:23:19.973,2026-03-29T18:23:19.973,-32837.265,-45568.89,-85285.53,-50825.205,-12520.215,-17681.805,6162.615,-60510.015,5.815579028526799,-14.777879383883107,-48.13639702932011,-10.329616960229993,-31.345924800928817,-32.73968528200688,-5.841665719735669,4.64110360753326,-0.431822625,-0.558409215,0.547789125,14.6496,-36.25776,-90.85804,69.0
1774822999.9732704,2.5510787963867188e-05,2026-03-29T22:23:19.973,2026-03-29T18:23:19.973,-32875.695,-45609.525,-85331.79,-50867.595,-12562.289999999999,-17720.1,6131.79,-60532.47,-3.404495883413691,-38.612411036092645,-64.63379478531249,-21.701956164555956,-21.04817291408321,-18.07386530562505,-2.5856561887938385,7.177477299850968,-0.431822625,-0.558409215,0.547789125,14.6496,-36.25776,-90.85804,69.0
1774822999.973281,1.049041748046875e-05,2026-03-29T22:23:19.973,2026-03-29T18:23:19.973,-32852.744999999995,-45581.22,-85300.33499999999,-50846.625,-12537.9,-17686.934999999998,6123.6449999999995,-60521.805,-11.114411728638645,-45.122130898777655,-51.73787834727121,-23.25969525545367,-0.6312487269198098,5.459157172187826,2.1436183344284263,6.520766512727961,-0.431822625,-0.558409215,0.547789125,14.6496,-36.25776,-90.85804,69.0
1774822999.9732928,1.1920928955078125e-05,2026-03-29T22:23:19.973,2026-03-29T18:23:19.973,-32853.78,-45568.395,-85262.76,-50790.735,-12474.404999999999,-17622.495,6133.1849999999995,-60520.32,-13.901336609978326,-30.876410979898143,-14.724292658973194,-14.571476024445596,19.702688729530426,26.23110099969612,6.178629087283,2.9111144826291153,-0.431822625,-0.558409215,0.547789125,14.6496,-36.25776,-90.85804,69.0
1774822999.9733016,8.821487426757812e-06,2026-03-29T22:23:19.973,2026-03-29T18:23:19.973,-32841.99,-45563.715,-85264.065,-50784.255,-12471.525,-17635.815,6134.219999999999,-60515.28,-10.539191070338388,-2.0918186819456066,29.75475993135895,0.20724425504580646,29.91238966694629,33.9607268017215,7.526164064047299,-2.0319637708767258,-0.431822625,-0.558409215,0.547789125,14.6496,-36.25776,-90.85804,69.0
1774822999.9818668,0.008565187454223633,2026-03-29T22:23:19.981,2026-03-29T18:23:19.981,-32842.17,-45561.465,-85273.605,-50798.655,-12502.89,-17705.43,6154.245,-60517.395,-2.5291840565200467,28.10582936918701,61.24794455152083,14.313436217000387,25.096731846318903,24.83160238020728,5.3586485495145375,-6.041503065326381,-0.385313955,-0.61755213,0.580381815,26.231939999999998,-34.53338,-58.38476,69.0
1774822999.9818876,2.0742416381835938e-05,2026-03-29T22:23:19.981,2026-03-29T18:23:19.981,-32816.97,-45546.75,-85313.34,-50834.564999999995,-12570.029999999999,-17792.82,6139.08,-60515.055,6.572547187793755,45.73321149740654,65.02386214688971,21.50069812963079,7.883558684727568,3.4102324556484986,0.5030766600278181,-7.264990093250971,-0.385313955,-0.61755213,0.580381815,26.231939999999998,-34.53338,-58.38476,69.0
1774822999.9819047,1.71661376953125e-05,2026-03-29T22:23:19.981,2026-03-29T18:23:19.981,-32786.369999999995,-45535.229999999996,-85396.815,-50882.354999999996,-12648.42,-17829.989999999998,6137.01,-60501.689999999995,12.737606438620507,42.49420407856362,39.04795713141817,18.85264736962079,-12.952477439537784,-19.61433947598499,-4.854116339997685,-5.149548411128499,-0.385313955,-0.61755213,0.580381815,26.231939999999998,-34.53338,-58.38476,69.0
1774822999.981912,7.152557373046875e-06,2026-03-29T22:23:19.981,2026-03-29T18:23:19.981,-32789.52,-45578.205,-85537.08,-50999.49,-12837.869999999999,-18012.059999999998,6085.44,-60510.555,13.251883677267017,19.721839742295455,-4.926883844422896,7.998003561712618,-26.932783861349993,-32.75905185642708,-8.154262022835717,-0.7151465944456148,-0.385313955,-0.61755213,0.580381815,26.231939999999998,-34.53338,-58.38476,69.0
1774822999.9840431,0.002131223678588867,2026-03-29T22:23:19.984,2026-03-29T18:23:19.984,-32789.115,-45624.689999999995,-85607.145,-50971.68,-12829.365,-18018.63,6053.219999999999,-60509.744999999995,7.912102150868083,-12.17355009245796,-46.739229348020196,-5.794071509998854,-27.136687260077164,-29.486182089517403,-7.699482669897014,3.9290681676232087,-0.385313955,-0.61755213,0.580381815,26.231939999999998,-34.53338,-58.38476,69.0
1774822999.9840589,1.5735626220703125e-05,2026-03-29T22:23:19.984,2026-03-29T18:23:19.984,-32764.364999999998,-45631.439999999995,-85534.65,-50910.165,-12682.17,-17833.364999999998,6053.94,-60490.439999999995,-0.8954777474566101,-38.520611597246834,-67.17812756481273,-16.16303649663869,-13.63896678626965,-11.476495621347116,-3.532582317021667,6.599525667284456,-0.385313955,-0.61755213,0.580381815,26.231939999999998,-34.53338,-58.38476,69.0
1774822999.9895694,0.005510568618774414,2026-03-29T22:23:19.989,2026-03-29T18:23:19.989,-32789.565,-45667.08,-85441.68,-50920.604999999996,-12499.109999999999,-17611.29,6091.29,-60500.43,-9.263183985844803,-47.21328758307548,-56.924947573005106,-18.619787105771536,6.591455713511376,12.213166243981266,2.4947942888455743,6.091381098098894,-0.385313955,-0.61755213,0.580381815,26.231939999999998,-34.53338,-58.38476,69.0
1774822999.9895911,2.1696090698242188e-05,2026-03-29T22:23:19.989,2026-03-29T18:23:19.989,-32790.555,-45628.244999999995,-85339.53,-51000.119999999995,-12483.81,-17589.059999999998,6156.45,-60471.54,-13.497439778455831,-34.3349898250608,-20.863051871509004,-12.530861597178445,23.25809404171591,29.693038787805463,7.543820459788171,2.7513966296891863,-0.385313955,-0.61755213,0.580381815,26.231939999999998,-34.53338,-58.38476,69.0
1774822999.9920447,0.0024535655975341797,2026-03-29T22:23:19.992,2026-03-29T18:23:19.992,-32917.68,-45624.869999999995,-85262.94,-50961.015,-12480.705,-17555.309999999998,6186.96,-60549.165,-11.749822667070415,-5.938837364301394,24.266177018464575,-1.2293584659241543,27.95192888377785,32.20679505438657,9.136552079262774,-1.7144444088267685,-0.385313955,-0.61755213,0.580381815,26.231939999999998,-34.53338,-58.38476,69.0
1774822999.9920645,1.9788742065429688e-05,2026-03-29T22:23:19.992,2026-03-29T18:23:19.992,-32940.135,-45581.04,-85181.985,-50839.65,-12466.935,-17567.595,6171.615,-60598.439999999995,-4.823302974320259,24.83294907354034,57.72764585052582,9.733567964997286,18.378672386291672,18.52357424976307,6.385296954119654,-5.103180857774619,-0.385313955,-0.61755213,0.580381815,26.231939999999998,-34.53338,-58.38476,69.0
1774822999.996375,0.00431060791015625,2026-03-29T22:23:19.996,2026-03-29T18:23:19.996,-32930.729999999996,-45543.42,-85136.94,-50719.994999999995,-12423.105,-17578.755,6146.099999999999,-60626.115,4.1971220945438645,43.903858202884464,64.44086478393682,15.303636073639874,-0.5244412736502602,-4.452408513211131,0.4874708155389755,-5.814628162853214,-0.28839037500000003,-0.672788805,0.6559431450000001,-21.57764,-15.1837,-16.511319999999998,69.0
1774822999.9963982,2.3126602172851562e-05,2026-03-29T22:23:19.996,2026-03-29T18:23:19.996,-32893.02,-45570.555,-85206.78,-50692.545,-12411.765,-17592.48,6123.735,-60579.45,11.318618814507513,42.77645439639755,41.867287800623885,13.28074803577279,-19.12473633735972,-25.159638688714143,-5.789424728476471,-3.634862384584122,-0.28839037500000003,-0.672788805,0.6559431450000001,-21.57764,-15.1837,-16.511319999999998,69.0
1774823000.0002148,0.0038166046142578125,2026-03-29T22:23:20.000,2026-03-29T18:23:20.000,-32902.065,-45671.67,-85398.48,-50745.869999999995,-12425.22,-17600.445,6120.45,-60557.22,13.406811619545904,22.356089119649358,0.9494401840105073,5.208188198238463,-27.981844179174846,-33.19234149992461,-9.414745923992891,0.19120162564220017,-0.28839037500000003,-0.672788805,0.6559431450000001,-21.57764,-15.1837,-16.511319999999998,69.0
1774823000.00024,2.5272369384765625e-05,2026-03-29T22:23:20.000,2026-03-29T18:23:20.000,-32923.395,-45742.905,-85551.165,-50817.555,-12456.81,-17621.415,6132.195,-60558.704999999994,9.56322032173003,-7.6532934263478065,-39.233537445758444,-4.575650405970851,-22.61046849077441,-24.523690704809848,-8.57241529249538,3.6307533840524338,-0.28839037500000003,-0.672788805,0.6559431450000001,-21.57764,-15.1837,-16.511319999999998,69.0
1774823000.0040143,0.0037741661071777344,2026-03-29T22:23:20.004,2026-03-29T18:23:20.004,-32941.619999999995,-45762.119999999995,-85560.84,-50853.104999999996,-12481.244999999999,-17639.415,6153.705,-60563.115,1.5098197201996295,-33.41104209571296,-60.46478127707802,-11.193069143387223,-5.721832794618734,-3.516025836249566,-3.5821691364056525,4.928708582622739,-0.28839037500000003,-0.672788805,0.6559431450000001,-21.57764,-15.1837,-16.511319999999998,69.0
1774823000.0040305,1.621246337890625e-05,2026-03-29T22:23:20.004,2026-03-29T18:23:20.004,-32925.015,-45719.865,-85469.265,-50870.34,-12503.025,-17655.075,6164.415,-60554.204999999994,-7.18224218151609,-43.39692353329894,-53.751693805117995,-11.642294109690141,14.166923423696442,19.283387041068064,3.207881389566881,3.5148000252625113,-0.28839037500000003,-0.672788805,0.6559431450000001,-21.57764,-15.1837,-16.511319999999998,69.0
1774823000.0153155,0.011285066604614258,2026-03-29T22:23:20.015,2026-03-29T18:23:20.015,-32892.345,-45635.805,-85377.23999999999,-50887.439999999995,-12523.725,-17676.945,6148.08,-60531.84,-12.673705927761628,-33.61716351233025,-23.165427162236554,-6.181847188737546,27.032820190631423,32.442058144092705,8.53040126584595,0.279755053550615,-0.28839037500000003,-0.672788805,0.6559431450000001,-21.57764,-15.1837,-16.511319999999998,69.0
1774823000.015339,2.3365020751953125e-05,2026-03-29T22:23:20.015,2026-03-29T18:23:20.015,-32877.765,-45583.38,-85313.79,-50935.14,-12581.865,-17709.84,6135.57,-60503.715,-12.548804287296681,-9.181982390042883,16.49486687342781,1.9637093850407725,26.38000488142176,29.36889185997005,9.783431894161764,-2.9240023976113156,-0.28839037500000003,-0.672788805,0.6559431450000001,-21.57764,-15.1837,-16.511319999999998,69.0
1774823000.0153625,2.3603439331054688e-05,2026-03-29T22:23:20.015,2026-03-29T18:23:20.015,-32813.505,-45524.61,-85252.59,-50922.99,-12606.164999999999,-17724.69,6131.07,-60452.009999999995,-6.874068167173682,18.3567314267164,46.91557521160735,8.37506338264525,12.480685958372883,11.597410600323807,6.315847753172012,-4.2944445097344115,-0.28839037500000003,-0.672788805,0.6559431450000001,-21.57764,-15.1837,-16.511319999999998,69.0
1774823000.0153708,8.344650268554688e-06,2026-03-29T22:23:20.015,2026-03-29T18:23:20.015,-32802.615,-45527.939999999995,-85250.79,-50860.979999999996,-12572.414999999999,-17720.954999999998,6105.69,-60430.32,1.8374294429488547,36.52298781432258,54.81874035212581,9.753360628178875,-7.7812629172206895,-12.005076962650808,-0.22759518015535488,-3.0677079559125313,-0.28839037500000003,-0.672788805,0.6559431450000001,-21.57764,-15.1837,-16.511319999999998,69.0
1774823000.0153792,8.344650268554688e-06,2026-03-29T22:23:20.015,2026-03-29T18:23:20.015,-32826.645,-45507.96,-85198.31999999999,-50805.045,-12517.154999999999,-17686.485,6080.219999999999,-60449.939999999995,9.736513255297067,37.62847815690901,37.81413466569876,5.593426065964265,-24.357687587303275,-29.68427736071864,-6.68675306587581,0.05032449733822133,-0.156676845,-0.74999808,0.716611935,-11.780719999999999,-6.928039999999999,-2.3653,69.0
1774823000.015386,6.9141387939453125e-06,2026-03-29T22:23:20.015,2026-03-29T18:23:20.015,-32842.665,-45502.875,-85178.43,-50791.455,-12498.57,-17663.715,6087.33,-60462.494999999995,13.332986820253153,22.036242384076914,4.94871682945458,-1.6253806232864096,-29.03068347757004,-32.65972763800804,-9.921051811238312,3.252460876953307,-0.156676845,-0.74999808,0.716611935,-11.780719999999999,-6.928039999999999,-2.3653,69.0
1774823000.0207853,0.005399227142333984,2026-03-29T22:23:20.020,2026-03-29T18:23:20.020,-32858.145,-45526.545,-85187.11499999999,-50763.645,-12508.965,-17680.545,6096.78,-60454.979999999996,11.03134284738132,-2.4125104991563204,-28.05045570382319,-7.8063399244930505,-19.462962299995283,-19.47033669456138,-8.348595772102248,4.6175753522153276,-0.156676845,-0.74999808,0.716611935,-11.780719999999999,-6.928039999999999,-2.3653,69.0
1774823000.0208144,2.9087066650390625e-05,2026-03-29T22:23:20.020,2026-03-29T18:23:20.020,-32861.744999999995,-45572.4,-85281.885,-50729.895,-12474.99,-17663.085,6105.105,-60434.954999999994,3.834576681753794,-24.351716484589883,-46.35660515151867,-9.439532962211729,-0.31336965473109546,3.343083385704721,-2.7291554093629298,3.1961163412851117,-0.156676845,-0.74999808,0.716611935,-11.780719999999999,-6.928039999999999,-2.3653,69.0
1774823000.0268464,0.006031990051269531,2026-03-29T22:23:20.026,2026-03-29T18:23:20.026,-32845.725,-45589.049999999996,-85345.73999999999,-50725.619999999995,-12444.75,-17635.364999999998,6111.63,-60400.395,-5.092065325907886,-34.22531863466393,-42.76716216134821,-5.494959943966196,19.09468692982453,24.5226874434246,4.200674081983453,-0.3981602325336296,-0.156676845,-0.74999808,0.716611935,-11.780719999999999,-6.928039999999999,-2.3653,69.0
1774823000.0268676,2.1219253540039062e-05,2026-03-29T22:23:20.026,2026-03-29T18:23:20.026,-32865.57,-45649.935,-85462.65,-50736.555,-12449.16,-17638.649999999998,6110.415,-60392.744999999995,-11.807593140067869,-28.47649944477273,-20.49364636876042,1.9849825362339202,29.35897558110349,33.67793999101763,9.065444589577918,-4.237705448394204,-0.156676845,-0.74999808,0.716611935,-11.780719999999999,-6.928039999999999,-2.3653,69.0
1774823000.0309696,0.004101991653442383,2026-03-29T22:23:20.030,2026-03-29T18:23:20.030,-32905.845,-45708.435,-85548.915,-50794.83,-12481.605,-17651.88,6152.3099999999995,-60397.064999999995,-13.32706323607178,-10.743253415843338,9.03639243198285,8.917966828865513,25.560989282407476,26.384100065671703,9.504474188886979,-6.07824332769505,-0.156676845,-0.74999808,0.716611935,-11.780719999999999,-6.928039999999999,-2.3653,69.0
1774823000.0309997,3.0040740966796875e-05,2026-03-29T22:23:20.030,2026-03-29T18:23:20.030,-32920.47,-45688.77,-85453.2,-50903.865,-12582.09,-17727.93,6157.889999999999,-60391.439999999995,-8.941430801063085,10.288417831685116,32.013582888467305,11.325860569132223,9.584706007755493,6.289221889362483,5.325838568451961,-4.599335521491432,-0.156676845,-0.74999808,0.716611935,-11.780719999999999,-6.928039999999999,-2.3653,69.0
1774823000.0334725,0.0024728775024414062,2026-03-29T22:23:20.033,2026-03-29T18:23:20.033,-32901.165,-45640.799999999996,-85349.34,-50957.055,-12619.17,-17754.434999999998,6151.455,-60367.005,-0.5452421616877284,25.15658861917592,38.745840997736074,7.491728070537407,-10.887247032288988,-16.761697411763393,-1.4076482880341685,-0.22504655296043868,-0.156676845,-0.74999808,0.716611935,-11.780719999999999,-6.928039999999999,-2.3653,69.0
1774823000.0335004,2.7894973754882812e-05,2026-03-29T22:23:20.033,2026-03-29T18:23:20.033,-32878.215,-45567.99,-85233.23999999999,-50927.445,-12576.645,-17697.105,6152.804999999999,-60350.445,8.177695296477447,27.91086937854498,27.743666970187363,-1.000796069047171,-26.140799276505263,-31.600848764343905,-7.399865808847304,4.950586117543536,-0.156676845,-0.74999808,0.716611935,-11.780719999999999,-6.928039999999999,-2.3653,69.0
1774823000.0365267,0.003026247024536133,2026-03-29T22:23:20.036,2026-03-29T18:23:20.036,-32869.17,-45577.439999999995,-85244.805,-50894.369999999995,-12534.84,-17667.27,6162.21,-60322.454999999994,13.362433766112407,18.458936181054877,5.67355685423572,-9.928328776846802,-29.082198144729194,-31.173684497186823,-9.74221941623004,8.156138031455802,-0.149108505,-0.699644205,0.69372381,-0.04578,-2.07536,-13.48984,69.0
1774823000.0365467,2.002716064453125e-05,2026-03-29T22:23:20.036,2026-03-29T18:23:20.036,-32834.159999999996,-45603.0,-85313.655,-50859.63,-12555.675,-17701.605,6157.755,-60280.784999999996,12.666564016945575,2.068072043876575,-16.45842058672809,-14.510686341367755,-18.526399614187,-15.8772032760922,-7.332455644874484,7.385998619279127,-0.149108505,-0.699644205,0.69372381,-0.04578,-2.07536,-13.48984,69.0
1774823000.040665,0.004118204116821289,2026-03-29T22:23:20.040,2026-03-29T18:23:20.040,-32819.13,-45636.119999999995,-85361.44499999999,-50798.88,-12569.715,-17724.69,6147.855,-60253.604999999996,6.322560154518692,-13.4946753439526,-28.779114734538023,-11.894924047847228,0.3989456876094373,6.774245620420016,-1.3953286656059443,2.5557015390126105,-0.149108505,-0.699644205,0.69372381,-0.04578,-2.07536,-13.48984,69.0
1774823000.0406916,2.6702880859375e-05,2026-03-29T22:23:20.040,2026-03-29T18:23:20.040,-32837.58,-45668.43,-85346.73,-50741.82,-12526.92,-17700.57,6136.11,-60249.015,-2.931308311694883,-21.65684845399062,-26.958255683894414,-2.7746235237786614,18.825499030151242,25.90407060003037,5.141977863915678,-4.266392148545849,-0.149108505,-0.699644205,0.69372381,-0.04578,-2.07536,-13.48984,69.0
1774823000.0447185,0.004026889801025391,2026-03-29T22:23:20.044,2026-03-29T18:23:20.044,-32831.19,-45642.869999999995,-85334.12999999999,-50826.33,-12544.02,-17702.55,6131.835,-60228.405,-11.026053602831617,-19.805568568297463,-13.583772510296331,8.72970487914841,28.36949922551992,32.54604959403466,9.09982694077171,-9.743791346587056,-0.149108505,-0.699644205,0.69372381,-0.04578,-2.07536,-13.48984,69.0
1774823000.044738,1.9550323486328125e-05,2026-03-29T22:23:20.044,2026-03-29T18:23:20.044,-32796.494999999995,-45567.54,-85335.345,-50939.909999999996,-12600.045,-17750.79,6121.71,-60197.085,-14.342100897280854,-9.967707452586762,3.8402439188764474,16.95370844318695,24.96595495843125,23.85518849698766,8.599252033702378,-10.894782477093047,-0.149108505,-0.699644205,0.69372381,-0.04578,-2.07536,-13.48984,69.0
1774823000.0503411,0.00560307502746582,2026-03-29T22:23:20.050,2026-03-29T18:23:20.050,-32813.28,-45533.43,-85297.36499999999,-50865.84,-12584.88,-17772.3,6107.94,-60208.244999999995,-11.319925622435937,2.6640104817915,16.96743623579703,17.46690313516257,10.54883975926382,4.274240067240576,3.9555255774147957,-6.6660943917246165,-0.149108505,-0.699644205,0.69372381,-0.04578,-2.07536,-13.48984,69.0
1774823000.0503705,2.9325485229492188e-05,2026-03-29T22:23:20.050,2026-03-29T18:23:20.050,-32863.365,-45538.47,-85276.575,-50801.715,-12554.234999999999,-17740.44,6127.695,-60256.799999999996,-3.1879874195550686,12.426324924982826,20.58761534213409,9.386638097673531,-8.089157609680617,-16.793797154316728,-2.514152297185691,1.357394414562016,-0.149108505,-0.699644205,0.69372381,-0.04578,-2.07536,-13.48984,69.0
1774823000.0585384,0.00816798210144043,2026-03-29T22:23:20.058,2026-03-29T18:23:20.058,-32833.755,-45573.659999999996,-85312.845,-50795.145,-12572.414999999999,-17767.844999999998,6120.675,-60209.189999999995,6.529703688199784,15.71874972132006,14.619032337556122,-3.956561724532149,-22.579146904552683,-29.567609166295302,-7.654479395124503,9.532103615282585,-0.149108505,-0.699644205,0.69372381,-0.04578,-2.07536,-13.48984,69.0
1774823000.058552,1.3589859008789062e-05,2026-03-29T22:23:20.058,2026-03-29T18:23:20.058,-32831.19,-45579.78,-85282.605,-50800.229999999996,-12567.6,-17762.13,6114.96,-60173.055,13.53270454012717,12.245496712637927,3.397604038289151,-16.414756251664127,-26.779280708110722,-28.46200992786241,-9.018993114552078,13.820200832889537,-0.149108505,-0.699644205,0.69372381,-0.04578,-2.07536,-13.48984,69.0
1774823000.0585628,1.0728836059570312e-05,2026-03-29T22:23:20.058,2026-03-29T18:23:20.058,-32848.2,-45580.455,-85271.265,-50836.86,-12538.664999999999,-17698.545,6135.75,-60160.634999999995,14.639066139990028,4.591783361608553,-7.04968328611654,-21.884879259543148,-19.349635123616093,-14.500021494671222,-6.037087595826231,11.773289061915795,-0.32928382500000003,-0.616392465,0.67468089,-37.66168,-8.27092,-1.7396399999999999,69.0
1774823000.058567,4.291534423828125e-06,2026-03-29T22:23:20.058,2026-03-29T18:23:20.058,-32843.07,-45569.88,-85287.015,-50923.17,-12546.09,-17666.415,6148.3949999999995,-60163.244999999995,9.224861079457181,-3.4080805891888972,-12.148378874957919,-17.293046150354115,-4.035926713372985,5.462879503666766,-0.2422851455562337,3.8631700392426325,-0.32928382500000003,-0.616392465,0.67468089,-37.66168,-8.27092,-1.7396399999999999,69.0
1774823000.0599904,0.0014233589172363281,2026-03-29T22:23:20.059,2026-03-29T18:23:20.059,-32874.255,-45565.29,-85273.2,-50867.82,-12501.09,-17637.75,6144.66,-60204.06,-0.44041105473138337,-8.557812532622245,-10.727869319261167,-4.242749732670026,12.28552578158833,22.17150546502402,5.523901112701061,-6.542490432390899,-0.32928382500000003,-0.616392465,0.67468089,-37.66168,-8.27092,-1.7396399999999999,69.0
1774823000.0600019,1.1444091796875e-05,2026-03-29T22:23:20.060,2026-03-29T18:23:20.060,-32879.565,-45602.64,-85313.655,-50818.185,-12496.23,-17661.015,6136.785,-60200.505,-10.137483938764754,-9.525520691028865,-4.974556042773394,11.53231469612531,22.757346160243305,28.314618873126854,8.516205394194134,-14.628085521763259,-0.32928382500000003,-0.616392465,0.67468089,-37.66168,-8.27092,-1.7396399999999999,69.0
1774823000.064108,0.004106044769287109,2026-03-29T22:23:20.064,2026-03-29T18:23:20.064,-32845.994999999995,-45626.4,-85349.655,-50775.75,-12498.975,-17705.25,6119.19,-60153.93,-15.531802346476683,-6.96993106492455,1.2971573704759225,22.730939349127063,23.414556769019534,21.717219508136722,7.398540889463453,-16.371603728287134,-0.32928382500000003,-0.616392465,0.67468089,-37.66168,-8.27092,-1.7396399999999999,69.0
1774823000.0641236,1.5735626220703125e-05,2026-03-29T22:23:20.064,2026-03-29T18:23:20.064,-32869.395,-45649.845,-85399.11,-50749.83,-12490.965,-17712.18,6113.205,-60168.465,-14.104893787608596,-2.7412289733586306,4.913151023465454,23.89885369491757,14.584211800746264,5.992739688405824,2.8341416801191843,-10.5293359381952,-0.32928382500000003,-0.616392465,0.67468089,-37.66168,-8.27092,-1.7396399999999999,69.0
1774823000.0730803,0.008956670761108398,2026-03-29T22:23:20.073,2026-03-29T18:23:20.073,-32892.119999999995,-45639.99,-85417.73999999999,-50780.07,-12545.595,-17731.305,6123.735,-60188.04,-6.32477056722299,1.2485447024476395,4.872951789444574,14.083391192832359,0.3812467411487571,-11.459258364663844,-2.9049282096707083,0.6110906286175518,-0.32928382500000003,-0.616392465,0.67468089,-37.66168,-8.27092,-1.7396399999999999,69.0
1774823000.0731027,2.2411346435546875e-05,2026-03-29T22:23:20.073,2026-03-29T18:23:20.073,-32802.165,-45652.275,-85571.86499999999,-50940.314999999995,-12688.695,-17817.165,6102.09,-60091.695,4.48663813291992,3.8502784853888086,2.434848901602883,-2.564055407401827,-13.272794563169422,-22.996047616461937,-7.08175538001303,12.130750711335613,-0.32928382500000003,-0.616392465,0.67468089,-37.66168,-8.27092,-1.7396399999999999,69.0
1774823000.0731196,1.6927719116210938e-05,2026-03-29T22:23:20.073,2026-03-29T18:23:20.073,-32742.495,-45687.78,-85689.495,-51096.24,-12759.705,-17846.505,6085.08,-60025.994999999995,13.564861991898338,4.862663025683815,-0.07930564701759411,-18.58111969031867,-21.12700782583042,-24.0925332080489,-7.810381827542649,18.675106059363358,-0.32928382500000003,-0.616392465,0.67468089,-37.66168,-8.27092,-1.7396399999999999,69.0
1774823000.0731273,7.62939453125e-06,2026-03-29T22:23:20.073,2026-03-29T18:23:20.073,-32782.59,-45660.689999999995,-85539.78,-51108.165,-12676.005,-17780.805,6092.6849999999995,-60077.655,16.797282019535306,4.666482727733501,-0.9004110887336675,-26.592001146803035,-20.535775241175557,-15.037185371477486,-4.905459238019395,16.953330929932655,-0.32928382500000003,-0.616392465,0.67468089,-37.66168,-8.27092,-1.7396399999999999,69.0
1774823000.07678,0.003652811050415039,2026-03-29T22:23:20.076,2026-03-29T18:23:20.076,-32916.869999999995,-45608.174999999996,-85309.245,-51015.78,-12535.965,-17664.57,6133.95,-60232.59,12.58253756912682,3.691525328078467,0.14884994193237658,-22.740271089105313,-12.190523851953401,-0.3761875780592417,0.11652100453079549,7.368858018710526,-0.501402525,-0.62438805,0.64416339,-60.5059,-22.9663,6.59232,69.0
1774823000.0768027,2.2649765014648438e-05,2026-03-29T22:23:20.076,2026-03-29T18:23:20.076,-32930.19,-45548.595,-85174.785,-50842.485,-12468.555,-17626.05,6142.905,-60272.055,2.6157362370108856,2.1142231809991996,1.7499212555353718,-8.543945711346948,0.44164897792378316,13.413484445303975,4.839097087187883,-6.01854000004216,-0.501402525,-0.62438805,0.64416339,-60.5059,-22.9663,6.59232,69.0
1774823000.0803568,0.003554105758666992,2026-03-29T22:23:20.080,2026-03-29T18:23:20.080,-32885.145,-45520.38,-85118.44499999999,-50687.64,-12448.755,-17631.09,6142.005,-60231.78,-8.782825066379942,-0.050076851517971664,2.1533102178401866,9.719469109706413,12.577539702224662,20.81428163787351,7.1234063536695835,-17.236642551708336,-0.501402525,-0.62438805,0.64416339,-60.5059,-22.9663,6.59232,69.0
1774823000.0803726,1.5735626220703125e-05,2026-03-29T22:23:20.080,2026-03-29T18:23:20.080,-32845.815,-45517.59,-85133.565,-50650.92,-12431.43,-17631.09,6137.91,-60191.729999999996,-16.53561848216508,-2.606446429205963,0.4749379151146356,23.840107602338335,19.852532528935843,19.419756642642486,6.080841601785485,-21.089010532812598,-0.501402525,-0.62438805,0.64416339,-60.5059,-22.9663,6.59232,69.0
1774823000.0841367,0.0037641525268554688,2026-03-29T22:23:20.084,2026-03-29T18:23:20.084,-32828.805,-45513.54,-85170.285,-50690.564999999995,-12447.855,-17652.555,6145.2,-60172.515,-17.067729914565,-4.920452314185109,-2.613214769695515,27.41960251484107,19.749146769965797,10.543270200326997,2.3963195370696906,-15.565875853431072,-0.501402525,-0.62438805,0.64416339,-60.5059,-22.9663,6.59232,69.0
1774823000.0841613,2.4557113647460938e-05,2026-03-29T22:23:20.084,2026-03-29T18:23:20.084,-32850.54,-45564.435,-85246.2,-50730.119999999995,-12471.39,-17673.93,6137.415,-60178.994999999995,-9.953894168183284,-6.013106801536598,-5.230554687346967,18.801864685815183,12.343921593200628,-1.7441721385974183,-2.101919495617049,-2.8568540256231048,-0.501402525,-0.62438805,0.64416339,-60.5059,-22.9663,6.59232,69.0
1774823000.0884058,0.004244565963745117,2026-03-29T22:23:20.088,2026-03-29T18:23:20.088,-32858.82,-45603.54,-85311.72,-50766.795,-12489.93,-17680.005,6129.405,-60176.52,1.805855912657211,-5.034510213956112,-5.4563610830212,1.8354027984392982,0.2359637357668465,-12.514503893927854,-5.364972382900992,11.53215482180172,-0.501402525,-0.62438805,0.64416339,-60.5059,-22.9663,6.59232,69.0
1774823000.0884235,1.7642974853515625e-05,2026-03-29T22:23:20.088,2026-03-29T18:23:20.088,-32829.93,-45597.104999999996,-85342.00499999999,-50788.89,-12512.25,-17699.04,6128.82,-60154.74,13.045016897752237,-1.8582142327201092,-2.5981461526103167,-15.881673748970092,-12.283269956200453,-17.920168819162306,-6.066495733069048,21.192577923358183,-0.501402525,-0.62438805,0.64416339,-60.5059,-22.9663,6.59232,69.0
1774823000.09414,0.005716562271118164,2026-03-29T22:23:20.094,2026-03-29T18:23:20.094,-32785.47,-45580.32,-85369.995,-50837.265,-12561.84,-17750.565,6121.8,-60118.604999999996,18.699711089354153,2.5921573322359293,2.2273203232592524,-26.457824302086955,-20.60742730754828,-16.431692337284552,-4.1275481574802875,21.685486220521824,-0.501402525,-0.62438805,0.64416339,-60.5059,-22.9663,6.59232,69.0
1774823000.094168,2.7894973754882812e-05,2026-03-29T22:23:20.094,2026-03-29T18:23:20.094,-32795.055,-45586.034999999996,-85351.31999999999,-50797.034999999996,-12527.64,-17741.16,6121.035,-60129.27,16.092415945078184,6.560567042916595,6.584350061478451,-25.270682859603202,-21.392081958107525,-9.067365789998707,-0.623574985664122,12.576930457034237,-0.501402525,-0.62438805,0.64416339,-60.5059,-22.9663,6.59232,69.0
1774823000.0967257,0.0025577545166015625,2026-03-29T22:23:20.096,2026-03-29T18:23:20.096,-32801.22,-45609.255,-85421.52,-50852.655,-12554.1,-17725.364999999998,6130.844999999999,-60135.615,6.199361561020922,8.19792990169102,8.032466016312787,-13.008111343504982,-13.86659358599696,1.2528486868442148,2.815526588503372,-2.2949796622157823,-0.533995215,-0.66100905,0.622007685,-59.361399999999996,-40.622119999999995,9.94952,69.0
1774823000.0967453,1.9550323486328125e-05,2026-03-29T22:23:20.096,2026-03-29T18:23:20.096,-32847.479999999996,-45638.369999999995,-85461.075,-50830.83,-12517.425,-17684.64,6136.335,-60167.43,-6.698836101416637,6.484389077242501,5.525454956044961,4.721614127745862,-0.38538918977725406,10.838550710317595,4.777741068961797,-16.4630168795844,-0.533995215,-0.66100905,0.622007685,-59.361399999999996,-40.622119999999995,9.94952,69.0
1774823000.1004672,0.003721952438354492,2026-03-29T22:23:20.100,2026-03-29T18:23:20.100,-32844.69,-45672.345,-85482.675,-50791.59,-12505.994999999999,-17699.13,6121.26,-60156.54,-16.86824581554112,1.8490370739877802,0.08919319595982253,19.99307852203437,14.1325375828842,16.42455660970324,4.641444875719119,-23.667600603939846,-0.533995215,-0.66100905,0.622007685,-59.361399999999996,-40.622119999999995,9.94952,69.0
1774823000.1004825,1.52587890625e-05,2026-03-29T22:23:20.100,2026-03-29T18:23:20.100,-32859.945,-45693.72,-85463.64,-50779.125,-12483.494999999999,-17670.96,6116.58,-60160.905,-19.675355264312138,-3.880125224558777,-5.632521839460593,26.156209991442797,23.87144778261914,16.12520854359265,2.7202915647429564,-20.631853610538943,-0.533995215,-0.66100905,0.622007685,-59.361399999999996,-40.622119999999995,9.94952,69.0
1774823000.106193,0.005710601806640625,2026-03-29T22:23:20.106,2026-03-29T18:23:20.106,-32861.924999999996,-45701.235,-85437.62999999999,-50830.064999999995,-12521.654999999999,-17700.66,6104.61,-60131.7,-13.704223720426942,-8.232233053891447,-8.74169952314742,20.769059698178555,24.410046097077284,9.975729100071677,-0.014844007865472046,-8.540897476722614,-0.533995215,-0.66100905,0.622007685,-59.361399999999996,-40.622119999999995,9.94952,69.0
1774823000.1062095,1.6450881958007812e-05,2026-03-29T22:23:20.106,2026-03-29T18:23:20.106,-32837.85,-45689.895,-85408.425,-50858.415,-12525.57,-17703.899999999998,6109.92,-60112.979999999996,-1.466534327034557,-9.221220274852207,-7.623982410668625,6.562364725274098,14.756999829780442,-0.030747278448427555,-2.438182846896446,7.437012062772987,-0.533995215,-0.66100905,0.622007685,-59.361399999999996,-40.622119999999995,9.94952,69.0
1774823000.1111643,0.004954814910888672,2026-03-29T22:23:20.111,2026-03-29T18:23:20.111,-32874.39,-45629.82,-85304.745,-50742.18,-12445.695,-17659.44,6110.01,-60158.835,11.65073667847951,-6.3000507491081,-2.8204273119388703,-9.942467472815466,-1.8205489788141882,-10.456799327906854,-3.7316444845193057,20.384433344833408,-0.533995215,-0.66100905,0.622007685,-59.361399999999996,-40.622119999999995,9.94952,69.0
1774823000.1112263,6.198883056640625e-05,2026-03-29T22:23:20.111,2026-03-29T18:23:20.111,-32868.225,-45579.42,-85281.61499999999,-50694.479999999996,-12441.6,-17655.93,6128.594999999999,-60177.78,19.762232355071056,-0.662878451192695,3.24557455350459,-21.463682330687014,-18.747449533691313,-17.44829793873249,-3.6185277967833236,24.646568572919914,-0.533995215,-0.66100905,0.622007685,-59.361399999999996,-40.622119999999995,9.94952,69.0
1774823000.1112628,3.647804260253906e-05,2026-03-29T22:23:20.111,2026-03-29T18:23:20.111,-32793.21,-45575.1,-85363.515,-50804.549999999996,-12538.529999999999,-17732.835,6112.53,-60107.49,19.13488002807061,5.269331017571653,7.540073377569505,-23.215068287867776,-28.699909773197334,-18.072129415731155,-2.330531816283975,18.302456874924122,-0.533995215,-0.66100905,0.622007685,-59.361399999999996,-40.622119999999995,9.94952,69.0
1774823000.1112816,1.8835067749023438e-05,2026-03-29T22:23:20.111,2026-03-29T18:23:20.111,-32758.875,-45604.485,-85441.59,-50909.85,-12590.145,-17752.995,6120.8099999999995,-60068.204999999994,9.913701899194521,8.942425820042347,8.00097826499159,-14.913744587109854,-26.807455333221007,-11.553675999005236,-0.40455824557288794,4.015842082947043,-0.533995215,-0.66100905,0.622007685,-59.361399999999996,-40.622119999999995,9.94952,69.0
1774823000.1217563,0.010474681854248047,2026-03-29T22:23:20.121,2026-03-29T18:23:20.121,-32791.815,-45634.14,-85482.18,-51039.765,-12721.814999999999,-17797.77,6129.675,-60098.265,-3.8793241673889294,8.820904303402468,4.581425311955577,-0.689336482063135,-13.081279186990773,0.11244819991309167,1.5459560843821207,-12.104046474487662,-0.448912425,-0.6810895650000001,0.639829905,-52.524919999999995,-29.283939999999998,5.7225,69.0
1774823000.121775,1.8596649169921875e-05,2026-03-29T22:23:20.121,2026-03-29T18:23:20.121,-32846.265,-45619.02,-85390.29,-50921.505,-12675.555,-17760.645,6133.995,-60158.34,-16.103866054155134,5.053942065936892,-0.7928359127974081,12.969149959400797,7.162684883206682,12.594271509411485,2.9857274104479306,-23.134548366738187,-0.448912425,-0.6810895650000001,0.639829905,-52.524919999999995,-29.283939999999998,5.7225,69.0
1774823000.1217916,1.6689300537109375e-05,2026-03-29T22:23:20.121,2026-03-29T18:23:20.121,-32903.145,-45627.119999999995,-85355.37,-50826.104999999996,-12550.455,-17713.079999999998,6119.594999999999,-60200.009999999995,-21.24698423976809,-0.6437480973425899,-5.30384200882519,20.2091717087046,25.29876297621912,20.738458123695942,3.528269699178026,-24.32193686471052,-0.448912425,-0.6810895650000001,0.639829905,-52.524919999999995,-29.283939999999998,5.7225,69.0
1774823000.121799,7.3909759521484375e-06,2026-03-29T22:23:20.121,2026-03-29T18:23:20.121,-32886.945,-45634.14,-85355.50499999999,-50707.89,-12382.199999999999,-17665.38,6102.45,-60166.665,-16.922611647954007,-5.812341995653737,-6.753430979960915,18.355718097261335,33.09537007754178,20.697398618769558,2.9765186283690745,-15.125864677225668,-0.448912425,-0.6810895650000001,0.639829905,-52.524919999999995,-29.283939999999998,5.7225,69.0
1774823000.1240191,0.00222015380859375,2026-03-29T22:23:20.124,2026-03-29T18:23:20.124,-32822.505,-45548.145,-85274.19,-50708.43,-12395.609999999999,-17680.905,6121.3949999999995,-60113.07,-4.984923591728214,-8.357422153717371,-4.683398993407933,8.879599648229089,26.52357503629091,11.789743743575572,1.38345014403242,0.5505491446174176,-0.448912425,-0.6810895650000001,0.639829905,-52.524919999999995,-29.283939999999998,5.7225,69.0
1774823000.1240313,1.2159347534179688e-05,2026-03-29T22:23:20.124,2026-03-29T18:23:20.124,-32842.395,-45568.17,-85331.295,-50785.83,-12486.914999999999,-17709.57,6149.745,-60129.405,9.267539920618582,-7.426268470591738,-0.5153432207489168,-3.547303929614701,7.872823598738187,-2.8258291563523703,-0.8789744011477245,16.035680054470642,-0.448912425,-0.6810895650000001,0.639829905,-52.524919999999995,-29.283939999999998,5.7225,69.0
1774823000.12804,0.004008769989013672,2026-03-29T22:23:20.128,2026-03-29T18:23:20.128,-32834.07,-45635.67,-85423.36499999999,-50788.08,-12562.965,-17757.0,6141.96,-60120.09,19.455618004691672,-3.6700850093498625,3.328727851745502,-13.357967046683846,-14.951635894808884,-17.161600922814088,-3.1189883819118176,24.742419974648463,-0.448912425,-0.6810895650000001,0.639829905,-52.524919999999995,-29.283939999999998,5.7225,69.0
1774823000.1280515,1.1444091796875e-05,2026-03-29T22:23:20.128,2026-03-29T18:23:20.128,-32864.4,-45670.814999999995,-85394.61,-50782.005,-12566.295,-17748.09,6132.554999999999,-60133.229999999996,20.991234685390836,1.1727838275089766,4.807005740124087,-16.61863940824745,-31.79817136862737,-24.844008254303745,-4.476328256438054,22.973693788157497,-0.448912425,-0.6810895650000001,0.639829905,-52.524919999999995,-29.283939999999998,5.7225,69.0
1774823000.1342204,0.006168842315673828,2026-03-29T22:23:20.134,2026-03-29T18:23:20.134,-32891.67,-45654.39,-85362.12,-50814.9,-12545.01,-17715.645,6126.615,-60132.149999999994,13.156382192605346,5.118186639415602,3.3625081565405024,-12.616353039294921,-34.860273528255746,-21.9980055421685,-4.237135976929112,11.484895316063033,-0.448912425,-0.6810895650000001,0.639829905,-52.524919999999995,-29.283939999999998,5.7225,69.0
1774823000.1342397,1.9311904907226562e-05,2026-03-29T22:23:20.134,2026-03-29T18:23:20.134,-32843.88,-45604.935,-85484.34,-51010.74,-12693.33,-17791.155,6112.349999999999,-60085.485,-0.5590944888063183,6.779237689387946,0.14911250003596396,-3.85910042379941,-22.37563371816979,-9.241746519464497,-2.2061663891534122,-4.852994924628902,-0.448912425,-0.6810895650000001,0.639829905,-52.524919999999995,-29.283939999999998,5.7225,69.0
1774823000.1365745,0.0023348331451416016,2026-03-29T22:23:20.136,2026-03-29T18:23:20.136,-32835.825,-45600.075,-85569.25499999999,-51041.07,-12733.289999999999,-17827.559999999998,6105.285,-60077.43,-14.02120861986167,5.838521010998887,-2.7197964988802004,5.374242407613894,0.35906941329818326,8.252268303658187,1.0573492220852287,-19.133082839990667,-0.38342187,-0.6806012850000001,0.658994895,-20.34158,-11.6739,-8.454039999999999,69.0
1774823000.1365905,1.5974044799804688e-05,2026-03-29T22:23:20.136,2026-03-29T18:23:20.136,-32881.635,-45610.875,-85461.93,-50911.92,-12587.355,-17732.07,6114.51,-60126.39,-21.21225696579652,2.9979576187415864,-3.4497451596604223,11.134174201837881,23.240479135230924,22.83306370568076,4.320244762204422,-25.340975370708037,-0.38342187,-0.6806012850000001,0.658994895,-20.34158,-11.6739,-8.454039999999999,69.0
1774823000.141328,0.0047376155853271484,2026-03-29T22:23:20.141,2026-03-29T18:23:20.141,-32891.174999999996,-45604.439999999995,-85356.18,-50875.244999999995,-12391.02,-17555.265,6159.285,-60137.685,-18.937627719537613,-0.4815181738393229,-1.6307124357517002,11.516046118468436,35.91834972981507,27.763486050734794,6.120203655491643,-20.887218380903786,-0.38342187,-0.6806012850000001,0.658994895,-20.34158,-11.6739,-8.454039999999999,69.0
1774823000.141369,4.100799560546875e-05,2026-03-29T22:23:20.141,2026-03-29T18:23:20.141,-32840.549999999996,-45555.345,-85286.295,-50955.03,-12485.475,-17609.895,6154.74,-60108.615,-8.253325038145613,-3.3682529753830597,1.5222520909450485,7.232534491578144,32.57028951236285,20.401477281416923,5.426887587758574,-7.678477561297931,-0.38342187,-0.6806012850000001,0.658994895,-20.34158,-11.6739,-8.454039999999999,69.0
1774823000.1459763,0.004607200622558594,2026-03-29T22:23:20.145,2026-03-29T18:23:20.145,-32785.47,-45548.009999999995,-85312.665,-51045.84,-12721.5,-17792.73,6118.605,-60061.14,6.02782767057437,-4.889893193774242,3.8939570760335886,0.9032471068952208,14.64341283536567,3.635636046868526,2.2172238827066213,8.71106750299655,-0.38342187,-0.6806012850000001,0.658994895,-20.34158,-11.6739,-8.454039999999999,69.0
1774823000.145996,1.9788742065429688e-05,2026-03-29T22:23:20.145,2026-03-29T18:23:20.145,-32759.19,-45545.67,-85271.04,-50856.479999999996,-12666.914999999999,-17809.739999999998,6098.535,-60028.29,17.51888473371799,-4.858388375439426,3.748739838665136,-4.445525435571296,-9.760339029593924,-15.211312746913958,-2.351668761402805,21.402695369921734,-0.38342187,-0.6806012850000001,0.658994895,-20.34158,-11.6739,-8.454039999999999,69.0
1774823000.1488426,0.0028464794158935547,2026-03-29T22:23:20.148,2026-03-29T18:23:20.148,-32798.34,-45550.619999999995,-85234.59,-50688.405,-12477.869999999999,-17692.695,6116.175,-60065.325,21.133577819886796,-3.5305158108693973,0.830030003033292,-6.844529556706721,-29.599989072426624,-27.616674929003988,-6.330136362647282,25.104459258229408,-0.38342187,-0.6806012850000001,0.658994895,-20.34158,-11.6739,-8.454039999999999,69.0
1774823000.1488583,1.5735626220703125e-05,2026-03-29T22:23:20.148,2026-03-29T18:23:20.148,-32787.765,-45543.645,-85248.9,-50705.28,-12462.57,-17674.649999999998,6120.2699999999995,-60055.38,15.350571911849482,-1.369916199687504,-3.3691424883212573,-6.092801602145392,-35.98147135511018,-27.78300101394246,-7.812518335045489,18.314251614655724,-0.38342187,-0.6806012850000001,0.658994895,-20.34158,-11.6739,-8.454039999999999,69.0
1774823000.1526852,0.0038268566131591797,2026-03-29T22:23:20.152,2026-03-29T18:23:20.152,-32795.325,-45547.875,-85264.155,-50730.165,-12460.14,-17638.11,6137.01,-60054.795,2.8531129000422792,1.121113241604626,-6.360187077090851,-3.464876743466095,-26.226610274744466,-15.412004917519095,-5.86112460970165,3.9196706808795567,-0.38342187,-0.6806012850000001,0.658994895,-20.34158,-11.6739,-8.454039999999999,69.0
1774823000.152712,2.6941299438476562e-05,2026-03-29T22:23:20.152,2026-03-29T18:23:20.152,-32811.57,-45571.14,-85299.165,-50771.564999999995,-12480.119999999999,-17644.32,6155.46,-60057.314999999995,-10.724371830255087,3.4354923287193073,-6.057156488634809,-0.7140639297429819,-5.0236837331871085,4.029621868675767,-1.0640774447781607,-12.03987963097088,-0.38342187,-0.6806012850000001,0.658994895,-20.34158,-11.6739,-8.454039999999999,69.0
1774823000.1565876,0.0038754940032958984,2026-03-29T22:23:20.156,2026-03-29T18:23:20.156,-32820.659999999996,-45590.354999999996,-85328.01,-50784.884999999995,-12501.81,-17673.795,6147.855,-60054.165,-19.353249327363077,5.026254576903687,-2.056316798510994,0.9858150759761097,17.84852023029,21.746917180770723,4.593310118826685,-22.913922883811107,-0.35522370000000003,-0.699155925,0.653379675,6.958559999999999,-6.24134,-15.015839999999999,69.0
1774823000.15662,3.24249267578125e-05,2026-03-29T22:23:20.156,2026-03-29T18:23:20.156,-32816.34,-45594.314999999995,-85362.84,-50793.165,-12511.664999999999,-17679.015,6139.304999999999,-60041.97,-19.3030338733551,5.333341663348347,3.9387149827223213,1.5545057985036257,32.106639636613984,29.658911727699167,8.550775875528528,-24.2130110285169,-0.35522370000000003,-0.699155925,0.653379675,6.958559999999999,-6.24134,-15.015839999999999,69.0
1774823000.1612988,0.0046787261962890625,2026-03-29T22:23:20.161,2026-03-29T18:23:20.161,-32790.555,-45597.555,-85402.845,-50850.72,-12578.13,-17752.815,6129.135,-59999.22,-10.759617052773246,3.9584609394519057,8.84761172328412,1.7420774738373292,31.671242701825545,24.157631464564673,8.84812850810099,-15.45703322152142,-0.35522370000000003,-0.699155925,0.653379675,6.958559999999999,-6.24134,-15.015839999999999,69.0
1774823000.161328,2.9325485229492188e-05,2026-03-29T22:23:20.161,2026-03-29T18:23:20.161,-32793.299999999996,-45604.755,-85397.67,-50862.375,-12586.68,-17762.985,6121.08,-59966.595,2.3347930317478176,0.9464077389583919,9.781447709450614,2.338052605692255,17.300561613372142,7.800706478003474,5.105707896683962,-0.34181389113889266,-0.35522370000000003,-0.699155925,0.653379675,6.958559999999999,-6.24134,-15.015839999999999,69.0
1774823000.164512,0.0031838417053222656,2026-03-29T22:23:20.164,2026-03-29T18:23:20.164,-32820.345,-45637.965,-85435.69499999999,-50851.619999999995,-12570.164999999999,-17737.065,6120.585,-59964.165,14.111605268249214,-2.9949966775906685,5.652843899986884,3.415528103224162,-4.012491651913989,-11.877977723453567,-1.184633563848661,14.827576051843645,-0.35522370000000003,-0.699155925,0.653379675,6.958559999999999,-6.24134,-15.015839999999999,69.0
1774823000.1645372,2.5272369384765625e-05,2026-03-29T22:23:20.164,2026-03-29T18:23:20.164,-32796.18,-45662.58,-85488.705,-50905.485,-12642.21,-17796.825,6095.565,-59928.165,19.42111864731386,-6.537432844662516,-2.0406603010846385,4.137349418299457,-22.483604351103445,-25.88524401207752,-7.248607649941378,23.769909404064055,-0.35522370000000003,-0.699155925,0.653379675,6.958559999999999,-6.24134,-15.015839999999999,69.0
1774823000.1684391,0.003901958465576172,2026-03-29T22:23:20.168,2026-03-29T18:23:20.168,-32800.5,-45668.97,-85466.61,-50897.744999999995,-12644.189999999999,-17784.045,6103.3949999999995,-59957.774999999994,16.093988994069562,-8.136649547564579,-9.742932585465327,3.2899690600934828,-30.105562899434002,-27.948539338869434,-10.269128003365182,22.82698231988968,-0.35522370000000003,-0.699155925,0.653379675,6.958559999999999,-6.24134,-15.015839999999999,69.0
1774823000.1684666,2.7418136596679688e-05,2026-03-29T22:23:20.168,2026-03-29T18:23:20.168,-32793.119999999995,-45672.119999999995,-85464.81,-50895.854999999996,-12632.625,-17775.225,6103.665,-59927.985,5.821800375094011,-6.700890312405066,-13.497057783429335,0.23531031226590177,-24.171972616070345,-17.38286305766941,-8.71467500960505,12.454984925374495,-0.35522370000000003,-0.699155925,0.653379675,6.958559999999999,-6.24134,-15.015839999999999,69.0
1774823000.1725564,0.004089832305908203,2026-03-29T22:23:20.172,2026-03-29T18:23:20.172,-32868.9,-45671.895,-85448.295,-50791.455,-12497.67,-17696.745,6119.099999999999,-59988.015,-6.697082153849736,-2.2351928194453485,-10.95352459550652,-4.334743137366618,-8.179485599858811,0.6929272918038637,-3.120769969767693,-2.99687610028187,-0.35522370000000003,-0.699155925,0.653379675,6.958559999999999,-6.24134,-15.015839999999999,69.0
1774823000.1725826,2.6226043701171875e-05,2026-03-29T22:23:20.172,2026-03-29T18:23:20.172,-32875.29,-45627.39,-85396.815,-50731.38,-12469.005,-17699.85,6125.3099999999995,-60021.314999999995,-15.917023394803039,3.8922377259093723,-2.7175496286344076,-8.398418989614743,10.156694054947918,17.85314182664871,4.076392853490857,-17.11288822482487,-0.35522370000000003,-0.699155925,0.653379675,6.958559999999999,-6.24134,-15.015839999999999,69.0
1774823000.182467,0.009884357452392578,2026-03-29T22:23:20.182,2026-03-29T18:23:20.182,-32830.2,-45606.96,-85386.465,-50804.055,-12524.4,-17707.905,6129.99,-59974.92,-17.912753508396047,9.294839143968527,7.699089331123272,-9.504000660328707,22.672811614840047,26.34831688985749,9.613767987227044,-24.07472404142852,-0.365660685,-0.702818025,0.628355325,37.93636,-10.4531,-19.67014,69.0
1774823000.1824903,2.3365020751953125e-05,2026-03-29T22:23:20.182,2026-03-29T18:23:20.182,-32792.445,-45618.705,-85365.22499999999,-50820.57,-12504.555,-17657.055,6145.965,-59931.72,-12.05261750262576,11.483337912057122,15.392216982285992,-6.1681666696423285,24.447120307075007,22.665121142641794,10.90304969340829,-21.057627308207877,-0.365660685,-0.702818025,0.628355325,37.93636,-10.4531,-19.67014,69.0
1774823000.1825142,2.384185791015625e-05,2026-03-29T22:23:20.182,2026-03-29T18:23:20.182,-32777.145,-45631.395,-85329.765,-50823.63,-12500.1,-17631.315,6145.335,-59894.729999999996,-1.1640189622910777,9.007804372358278,16.383068136829834,0.9969231301040093,15.715569271467377,8.99948219413382,7.258511144913788,-9.373975755179975,-0.365660685,-0.702818025,0.628355325,37.93636,-10.4531,-19.67014,69.0
1774823000.1825247,1.049041748046875e-05,2026-03-29T22:23:20.182,2026-03-29T18:23:20.182,-32782.59,-45632.88,-85379.985,-50820.93,-12527.64,-17665.29,6130.62,-59859.765,9.829497274900502,2.3038885712651433,9.63965539790212,9.152203852115042,1.278499609513566,-7.984625115013108,0.26043434028187207,6.097093933861762,-0.365660685,-0.702818025,0.628355325,37.93636,-10.4531,-19.67014,69.0
1774823000.1848164,0.0022916793823242188,2026-03-29T22:23:20.184,2026-03-29T18:23:20.184,-32769.09,-45653.354999999996,-85493.83499999999,-50827.545,-12584.564999999999,-17762.445,6093.9,-59829.165,16.142910190805267,-6.21858733164957,-2.211670732134312,14.345075252767739,-12.099987820024424,-20.43018941904292,-6.937831813788485,18.946666295502595,-0.365660685,-0.702818025,0.628355325,37.93636,-10.4531,-19.67014,69.0
1774823000.184837,2.0742416381835938e-05,2026-03-29T22:23:20.184,2026-03-29T18:23:20.184,-32743.215,-45635.085,-85426.73999999999,-50815.17,-12605.805,-17800.155,6076.889999999999,-59812.29,15.218640515655405,-13.004428405681677,-13.908501472159577,13.438754247261766,-18.903839058382996,-22.973833712160868,-11.051399139486168,23.890548261379084,-0.365660685,-0.702818025,0.628355325,37.93636,-10.4531,-19.67014,69.0
1774823000.194176,0.009338855743408203,2026-03-29T22:23:20.194,2026-03-29T18:23:20.194,-32771.835,-45572.939999999995,-85268.83499999999,-50777.64,-12556.035,-17712.045,6106.05,-59842.619999999995,7.75582349063728,-14.834581103044757,-19.909341840774104,5.910827478274486,-17.142823012240104,-15.09009145956601,-10.18516019095968,18.943263710197414,-0.365660685,-0.702818025,0.628355325,37.93636,-10.4531,-19.67014,69.0
1774823000.1941943,1.8358230590820312e-05,2026-03-29T22:23:20.194,2026-03-29T18:23:20.194,-32808.6,-45513.27,-85204.44,-50778.09,-12531.914999999999,-17656.2,6130.9349999999995,-59867.909999999996,-2.7301201391768166,-10.344370305851864,-17.020413470835447,-5.4773796482491,-8.754801534653973,-1.0530003222769182,-4.720041602538597,6.217449659584161,-0.365660685,-0.702818025,0.628355325,37.93636,-10.4531,-19.67014,69.0
1774823000.194217,2.2649765014648438e-05,2026-03-29T22:23:20.194,2026-03-29T18:23:20.194,-32764.004999999997,-45537.299999999996,-85276.89,-50787.99,-12484.8,-17616.735,6147.179999999999,-59799.015,-11.563016996808766,-0.8663130504965336,-6.046921597050742,-15.648118020031678,1.8161731088799546,12.342614866904256,2.8561034205337923,-8.974381520837024,-0.365660685,-0.702818025,0.628355325,37.93636,-10.4531,-19.67014,69.0
1774823000.1942246,7.62939453125e-06,2026-03-29T22:23:20.194,2026-03-29T18:23:20.194,-32745.149999999998,-45533.115,-85320.58499999999,-50861.655,-12618.855,-17770.815,6128.1449999999995,-59798.024999999994,-14.997431927001942,9.878675150872157,8.367026505476877,-19.499728686491416,9.95686238184441,19.09767271127497,9.096834168608547,-20.33653648998539,-0.365660685,-0.702818025,0.628355325,37.93636,-10.4531,-19.67014,69.0
1774823000.1988933,0.004668712615966797,2026-03-29T22:23:20.198,2026-03-29T18:23:20.198,-32744.699999999997,-45537.345,-85349.06999999999,-50881.634999999995,-12675.375,-17828.235,6119.639999999999,-59789.52,-11.808710899098845,17.22667818822949,19.720254235936522,-14.47687017607608,12.913406669172481,16.731291213537038,11.18708702169669,-23.202243240437728,-0.428038455,-0.70873842,0.61669764,42.026039999999995,-15.62624,-26.781299999999998,69.0
1774823000.1989534,6.008148193359375e-05,2026-03-29T22:23:20.198,2026-03-29T18:23:20.198,-32801.04,-45581.58,-85382.86499999999,-50803.604999999996,-12518.369999999999,-17657.37,6144.66,-59826.42,-3.7064661907251097,17.60019329062633,22.605158905336722,-2.1189058321960013,10.612488422453703,7.15704645487287,8.230976855743947,-16.45699326522357,-0.428038455,-0.70873842,0.61669764,42.026039999999995,-15.62624,-26.781299999999998,69.0
1774823000.2034328,0.004479408264160156,2026-03-29T22:23:20.203,2026-03-29T18:23:20.203,-32786.729999999996,-45593.909999999996,-85371.705,-50784.659999999996,-12476.115,-17622.809999999998,6163.065,-59796.99,5.555074915020545,10.237537571086134,15.28103398288165,12.306067598898629,5.102117442482183,-4.57585407959056,1.6401540041054268,-2.977437934886813,-0.428038455,-0.70873842,0.61669764,42.026039999999995,-15.62624,-26.781299999999998,69.0
1774823000.2034492,1.6450881958007812e-05,2026-03-29T22:23:20.203,2026-03-29T18:23:20.203,-32760.629999999997,-45609.299999999996,-85383.27,-50836.77,-12556.664999999999,-17696.7,6141.69,-59748.93,11.916889902540339,-2.208463863381711,0.6471186772767289,22.067963237242367,-0.8516639076792321,-12.919628599933569,-5.547383224557958,11.59084792416282,-0.428038455,-0.70873842,0.61669764,42.026039999999995,-15.62624,-26.781299999999998,69.0
1774823000.2034645,1.52587890625e-05,2026-03-29T22:23:20.203,2026-03-29T18:23:20.203,-32776.02,-45613.259999999995,-85338.135,-50781.915,-12527.505,-17679.195,6129.135,-59747.399999999994,12.79936326345965,-14.583394738232482,-14.904473825297245,22.15720209098339,-5.147364547543454,-14.474158672040973,-10.08579172368003,21.200849041146977,-0.428038455,-0.70873842,0.61669764,42.026039999999995,-15.62624,-26.781299999999998,69.0
1774823000.2034695,5.0067901611328125e-06,2026-03-29T22:23:20.203,2026-03-29T18:23:20.203,-32792.13,-45586.665,-85275.09,-50743.979999999996,-12512.115,-17679.329999999998,6127.695,-59775.255,8.144859135673332,-21.366494554200422,-24.303221486589816,11.858910951891627,-7.020618952582766,-9.3694545170669,-10.006422644625413,21.9238155160634,-0.428038455,-0.70873842,0.61669764,42.026039999999995,-15.62624,-26.781299999999998,69.0
1774823000.2086847,0.005215167999267578,2026-03-29T22:23:20.208,2026-03-29T18:23:20.208,-32771.115,-45589.32,-85310.415,-50785.02,-12563.279999999999,-17731.079999999998,6114.285,-59738.939999999995,0.29910214946037667,-19.145360782930997,-23.03435003027467,-4.605857727443085,-6.836047005822098,-0.8247389810514124,-5.481176955786487,13.567005633481097,-0.428038455,-0.70873842,0.61669764,42.026039999999995,-15.62624,-26.781299999999998,69.0
1774823000.2087054,2.0742416381835938e-05,2026-03-29T22:23:20.208,2026-03-29T18:23:20.208,-32727.69,-45584.729999999996,-85353.075,-50776.064999999995,-12562.83,-17743.23,6100.065,-59671.89,-7.1538414068967064,-8.316776827051514,-11.3058975895271,-19.81434071002754,-5.357937038604017,6.737402373500833,1.3185565218833848,-0.2829993868599291,-0.428038455,-0.70873842,0.61669764,42.026039999999995,-15.62624,-26.781299999999998,69.0
1774823000.2150264,0.006320953369140625,2026-03-29T22:23:20.215,2026-03-29T18:23:20.215,-32776.965,-45618.975,-85389.97499999999,-50691.24,-12475.529999999999,-17677.395,6105.735,-59714.954999999994,-11.031403990080134,6.828197350477621,5.891225927417999,-26.53739117539752,-3.097358486223291,9.962106359900032,7.273199450887219,-13.799186918558433,-0.428038455,-0.70873842,0.61669764,42.026039999999995,-15.62624,-26.781299999999998,69.0
1774823000.2150447,1.8358230590820312e-05,2026-03-29T22:23:20.215,2026-03-29T18:23:20.215,-32837.805,-45666.945,-85440.95999999999,-50708.115,-12459.555,-17644.68,6137.594999999999,-59783.805,-9.916167346405347,19.790855715020253,20.924226075917982,-21.219750700532582,-0.17186987356455719,8.058005609035273,9.763008241815536,-21.37616744147847,-0.428038455,-0.70873842,0.61669764,42.026039999999995,-15.62624,-26.781299999999998,69.0
1774823000.2209675,0.005922794342041016,2026-03-29T22:23:20.220,2026-03-29T18:23:20.220,-32780.205,-45668.744999999995,-85467.555,-50835.6,-12561.029999999999,-17725.95,6131.925,-59714.1,-4.656874434298471,24.669429872200034,26.935985406420894,-5.849711440918552,3.310266954287534,2.8476292300529917,7.8329662728378,-19.970585931978146,-0.464903595,-0.695860035,0.619566285,33.51096,-16.96912,-26.79656,69.0
1774823000.2209997,3.218650817871094e-05,2026-03-29T22:23:20.220,2026-03-29T18:23:20.220,-32767.155,-45658.259999999995,-85408.785,-50815.395,-12563.414999999999,-17754.66,6110.639999999999,-59682.645,2.161852159417682,18.86554054815784,20.996948863548436,12.761508647130729,6.730090527727008,-2.505709157930646,2.551064311987008,-10.334617963746181,-0.464903595,-0.695860035,0.619566285,33.51096,-16.96912,-26.79656,69.0
1774823000.2210295,2.9802322387695312e-05,2026-03-29T22:23:20.221,2026-03-29T18:23:20.221,-32761.844999999998,-45638.909999999996,-85399.11,-50788.89,-12559.14,-17759.07,6100.155,-59643.314999999995,7.479315025710804,4.443094125133727,5.531789243788316,26.042125194284825,8.80842681348291,-5.305280847371639,-3.569460364560937,3.364220300501712,-0.464903595,-0.695860035,0.619566285,33.51096,-16.96912,-26.79656,69.0
1774823000.2210407,1.1205673217773438e-05,2026-03-29T22:23:20.221,2026-03-29T18:23:20.221,-32752.664999999997,-45590.895,-85392.765,-50819.085,-12594.51,-17767.17,6106.545,-59625.0,9.138235520563144,-12.562897763262399,-12.675342230589592,27.66549732315811,8.090432984782922,-4.666153086492607,-7.775659464235448,15.352912961603797,-0.464903595,-0.695860035,0.619566285,33.51096,-16.96912,-26.79656,69.0
1774823000.2252634,0.0042226314544677734,2026-03-29T22:23:20.225,2026-03-29T18:23:20.225,-32755.23,-45546.705,-85335.075,-50807.475,-12599.055,-17737.02,6121.17,-59655.96,6.759407404460903,-24.68253403079227,-25.488508881838413,16.599937419338893,3.875132225426317,-1.7317217343865707,-8.325322951025631,20.7033015039054,-0.464903595,-0.695860035,0.619566285,33.51096,-16.96912,-26.79656,69.0
1774823000.2252855,2.2172927856445312e-05,2026-03-29T22:23:20.225,2026-03-29T18:23:20.225,-32707.664999999997,-45555.93,-85359.69,-50889.869999999995,-12623.535,-17734.364999999998,6124.679999999999,-59597.415,1.7563988066357956,-26.323051422435157,-27.09403930662548,-2.2840949343852874,-2.9738785411228785,1.24636163803025,-5.208862257294126,17.374128648195082,-0.464903595,-0.695860035,0.619566285,33.51096,-16.96912,-26.79656,69.0
1774823000.2302816,0.004996061325073242,2026-03-29T22:23:20.230,2026-03-29T18:23:20.230,-32659.739999999998,-45571.185,-85383.09,-50983.92,-12657.779999999999,-17756.145,6119.054999999999,-59512.14,-3.450467611789664,-16.374562845132804,-16.66422676275828,-20.391113936286466,-9.944178206933334,2.3554268582691122,-0.04400183241919261,6.989638818419958,-0.464903595,-0.695860035,0.619566285,33.51096,-16.96912,-26.79656,69.0
1774823000.2303114,2.9802322387695312e-05,2026-03-29T22:23:20.230,2026-03-29T18:23:20.230,-32730.39,-45590.354999999996,-85355.235,-50932.979999999996,-12604.185,-17714.295,6143.535,-59577.84,-6.601381881102049,1.1163385156902763,1.222970224895909,-29.37174292972523,-13.774196237321704,1.139240492235347,4.757512117834959,-5.943592074825679,-0.464903595,-0.695860035,0.619566285,33.51096,-16.96912,-26.79656,69.0
1774823000.2342684,0.003957033157348633,2026-03-29T22:23:20.234,2026-03-29T18:23:20.234,-32788.845,-45532.979999999996,-85269.33,-50817.465,-12578.13,-17704.755,6160.455,-59689.215,-6.583465955638637,18.592335534561705,18.620574470488467,-25.024616822209897,-12.024918977431811,-1.2341406527734828,7.123862739685924,-16.007278998875186,-0.464903595,-0.695860035,0.619566285,33.51096,-16.96912,-26.79656,69.0
1774823000.2342904,2.193450927734375e-05,2026-03-29T22:23:20.234,2026-03-29T18:23:20.234,-32774.805,-45512.82,-85254.66,-50782.545,-12614.22,-17762.805,6139.08,-59676.84,-3.8022483260365987,28.28294258318566,27.788037587832335,-9.280935138968312,-4.545839548288047,-2.8038199898183005,6.220989599463002,-19.16021601040204,-0.464903595,-0.695860035,0.619566285,33.51096,-16.96912,-26.79656,69.0
1774823000.2365427,0.002252340316772461,2026-03-29T22:23:20.236,2026-03-29T18:23:20.236,-32771.744999999995,-45555.299999999996,-85293.27,-50762.61,-12540.914999999999,-17714.295,6120.405,-59642.189999999995,0.1746877845571934,25.700369672345502,24.675883860597306,10.6741740330271,6.01471391915753,-2.1202271221320164,2.7238242747544157,-14.368331353956687,-0.433287465,-0.660948015,0.639341625,9.40016,-12.62002,-24.67542,69.0
1774823000.2365727,3.0040740966796875e-05,2026-03-29T22:23:20.236,2026-03-29T18:23:20.236,-32755.725,-45570.6,-85292.86499999999,-50743.305,-12469.59,-17654.309999999998,6122.34,-59603.715,3.4650701776118105,11.741505080642165,10.73039718703155,25.73237252460597,15.09585972253927,0.7671195094435345,-1.6129649355446698,-3.9139174264248457,-0.433287465,-0.660948015,0.639341625,9.40016,-12.62002,-24.67542,69.0
1774823000.2434766,0.006903886795043945,2026-03-29T22:23:20.243,2026-03-29T18:23:20.243,-32714.504999999997,-45635.939999999995,-85413.87,-50810.58,-12549.96,-17716.05,6123.554999999999,-59517.674999999996,4.76406426466085,-7.600361230350084,-7.795169084992236,29.075108698450038,18.238720268804997,4.236459536090303,-4.831649122150764,7.69140511159113,-0.433287465,-0.660948015,0.639341625,9.40016,-12.62002,-24.67542,69.0
1774823000.2435038,2.7179718017578125e-05,2026-03-29T22:23:20.243,2026-03-29T18:23:20.243,-32710.77,-45772.695,-85655.43,-50808.015,-12592.439999999999,-17763.165,6114.51,-59454.314999999995,3.8565379724403264,-23.836225688757462,-22.688428414729636,19.293064633026983,13.316579708094078,6.001886925189633,-5.658513208076507,15.670963618605441,-0.433287465,-0.660948015,0.639341625,9.40016,-12.62002,-24.67542,69.0
1774823000.2445996,0.0010957717895507812,2026-03-29T22:23:20.244,2026-03-29T18:23:20.244,-32815.08,-45869.445,-85770.98999999999,-50686.064999999995,-12466.845,-17636.805,6141.465,-59562.27,1.5500314133852495,-29.753016021578297,-27.466744978488624,0.9701449422463853,1.8485452159643456,4.496873989723079,-3.9980204845400267,16.96004572052608,-0.433287465,-0.660948015,0.639341625,9.40016,-12.62002,-24.67542,69.0
1774823000.2446134,1.3828277587890625e-05,2026-03-29T22:23:20.244,2026-03-29T18:23:20.244,-32830.92,-45890.865,-85717.125,-50806.395,-12523.365,-17644.635,6144.075,-59579.055,-0.8683508108855932,-22.65812864652384,-20.225553622580733,-17.502465857477418,-11.373384436295638,-0.06493353398839553,-0.8483633901851487,11.371199023714246,-0.433287465,-0.660948015,0.639341625,9.40016,-12.62002,-24.67542,69.0
1774823000.2484984,0.003885030746459961,2026-03-29T22:23:20.248,2026-03-29T18:23:20.248,-32822.235,-45754.875,-85539.69,-51027.57,-12654.359999999999,-17720.19,6120.855,-59549.715,-2.324345597052796,-5.617638336373298,-4.380157417318425,-27.820147168719135,-20.31534514553007,-5.595276849337993,2.2636125202239414,1.51081020064072,-0.433287465,-0.660948015,0.639341625,9.40016,-12.62002,-24.67542,69.0
1774823000.248518,1.9550323486328125e-05,2026-03-29T22:23:20.248,2026-03-29T18:23:20.248,-32815.71,-45566.595,-85343.67,-51058.755,-12682.439999999999,-17786.7,6095.835,-59556.869999999995,-2.433399774876914,13.887814209808564,12.978419146405587,-25.53391751853392,-20.513800015560463,-9.123962970779544,4.019335057215344,-8.441835902232539,-0.433287465,-0.660948015,0.639341625,9.40016,-12.62002,-24.67542,69.0
1774823000.2529461,0.00442814826965332,2026-03-29T22:23:20.252,2026-03-29T18:23:20.252,-32743.62,-45457.695,-85220.73,-50903.729999999996,-12616.02,-17785.26,6103.215,-59545.619999999995,-1.549278192747421,27.2906875732734,24.3061265131182,-11.967009538141577,-11.331098704652867,-8.390218235031252,3.8627060185436473,-14.517005539455344,-0.433287465,-0.660948015,0.639341625,9.40016,-12.62002,-24.67542,69.0
