unix_time_s,dt_s,UTC,LOCAL,EMG1_Raw,EMG2_Raw,EMG3_Raw,EMG4_Raw,EMG5_Raw,EMG6_Raw,EMG7_Raw,EMG8_Raw,EMG1_Filtered,EMG2_Filtered,EMG3_Filtered,EMG4_Filtered,EMG5_Filtered,EMG6_Filtered,EMG7_Filtered,EMG8_Filtered,Accel1_Raw,Accel2_Raw,Accel3_Raw,Gyro1_Raw,Gyro2_Raw,Gyro3_Raw,Battery
1774821949.6501548,,2026-03-29T22:05:49.650,2026-03-29T18:05:49.650,-31733.1,-49613.22,-84945.69,-50282.145,-15540.119999999999,-20474.28,4905.315,-54581.445,0.28534177917878234,0.5575231524252316,0.47962699701788747,0.08464823699039731,0.2644215261558316,0.3672189848266191,-0.09029102124119648,-0.7585940701813041,0.034850985,-0.9997533000000001,-0.08557107,-7.2637599999999996,2.1669199999999997,-0.6103999999999999,72.0
1774821949.650172,1.71661376953125e-05,2026-03-29T22:05:49.650,2026-03-29T18:05:49.650,-31738.23,-49619.564999999995,-84949.965,-50294.25,-15556.095,-20492.37,4911.705,-54580.32,2.451373548483135,1.751183779065544,0.7804112513650501,1.0850797392393483,0.07544802338949691,-0.7616998673118591,1.031702204825293,2.5588132319051278,0.034850985,-0.9997533000000001,-0.08557107,-7.2637599999999996,2.1669199999999997,-0.6103999999999999,72.0
1774821949.6560447,0.0058727264404296875,2026-03-29T22:05:49.656,2026-03-29T18:05:49.656,-31737.195,-49617.54,-84945.735,-50288.715,-15558.974999999999,-20496.645,4894.245,-54585.134999999995,3.4619115117971204,2.058524621541447,0.6214847299702845,1.4976265376462672,-0.23798167559007707,-1.600923627120208,1.8924344577260053,4.978816879102478,0.034850985,-0.9997533000000001,-0.08557107,-7.2637599999999996,2.1669199999999997,-0.6103999999999999,72.0
1774821949.6560636,1.8835067749023438e-05,2026-03-29T22:05:49.656,2026-03-29T18:05:49.656,-31710.285,-49591.215,-84930.25499999999,-50278.095,-15550.38,-20481.344999999998,4892.445,-54570.329999999994,2.8604998356712694,1.3744020481660024,0.15996967655600697,1.2443730430159747,-0.4371411795278117,-1.6583820303459265,2.1855401973277973,5.427858094604806,0.034850985,-0.9997533000000001,-0.08557107,-7.2637599999999996,2.1669199999999997,-0.6103999999999999,72.0
1774821949.6595225,0.0034589767456054688,2026-03-29T22:05:49.659,2026-03-29T18:05:49.659,-31713.03,-49595.354999999996,-84938.895,-50277.869999999995,-15542.82,-20467.844999999998,4899.87,-54568.53,0.9506693229148114,0.0805273528143402,-0.28810337447785045,0.5552383477388982,-0.3326221000186922,-0.8200830544740991,1.7361427834845493,3.5998988412563593,0.034850985,-0.9997533000000001,-0.08557107,-7.2637599999999996,2.1669199999999997,-0.6103999999999999,72.0
1774821949.659556,3.337860107421875e-05,2026-03-29T22:05:49.659,2026-03-29T18:05:49.659,-31735.26,-49619.97,-84958.11,-50289.39,-15552.045,-20478.735,4900.32,-54577.305,-1.358096589236723,-1.1645736090369811,-0.4471729649464518,-0.19387961189133562,0.08432321694196528,0.5621294151756554,0.5959883387333328,0.14181240265325482,0.034850985,-0.9997533000000001,-0.08557107,-7.2637599999999996,2.1669199999999997,-0.6103999999999999,72.0
1774821949.659588,3.218650817871094e-05,2026-03-29T22:05:49.659,2026-03-29T18:05:49.659,-31748.445,-49633.29,-84963.23999999999,-50298.975,-15566.22,-20499.48,4893.57,-54585.54,-2.9884347249911762,-1.7643510611460316,-0.24982108734432398,-0.6885376408702817,0.6099917159348731,1.819329281957774,-0.9147221861663122,-3.5581675619067687,0.034850985,-0.9997533000000001,-0.08557107,-7.2637599999999996,2.1669199999999997,-0.6103999999999999,72.0
1774821949.659596,7.867813110351562e-06,2026-03-29T22:05:49.659,2026-03-29T18:05:49.659,-31748.579999999998,-49632.03,-84960.045,-50299.155,-15569.414999999999,-20508.165,4875.255,-54591.795,-3.2037845989296394,-1.4757723921681238,0.12792240992178436,-0.813782142056833,0.924095026850085,2.286749399938733,-2.2665667359319945,-5.920660916693056,0.034850985,-0.9997533000000001,-0.08557107,-7.2637599999999996,2.1669199999999997,-0.6103999999999999,72.0
1774821949.6645892,0.0049932003021240234,2026-03-29T22:05:49.664,2026-03-29T18:05:49.664,-31739.94,-49623.39,-84954.465,-50294.159999999996,-15566.31,-20505.69,4869.09,-54591.075,-1.9446906549949654,-0.5084413082892133,0.38539273078185354,-0.6589724009864021,0.769511950641898,1.6437002090679302,-2.8926318241746025,-5.850338533949779,0.032653725,-1.00524645,-0.08258035500000001,-6.60758,1.2818399999999999,-0.6409199999999999,72.0
1774821949.6646132,2.4080276489257812e-05,2026-03-29T22:05:49.664,2026-03-29T18:05:49.664,-31741.875,-49627.35,-84962.61,-50297.04,-15566.49,-20508.12,4875.795,-54594.63,0.16240680123105122,0.6094926738351815,0.29865481603804217,-0.40784605421788056,0.11973985705123323,0.10230077134425701,-2.4252144390090287,-3.247298116720763,0.032653725,-1.00524645,-0.08258035500000001,-6.60758,1.2818399999999999,-0.6409199999999999,72.0
1774821949.6695485,0.004935264587402344,2026-03-29T22:05:49.669,2026-03-29T18:05:49.669,-31733.594999999998,-49619.61,-84958.02,-50293.665,-15565.68,-20515.23,4887.045,-54582.795,2.1188819867658726,1.3180209992483862,-0.11995959924397237,-0.19711003017576575,-0.7646523632156379,-1.657410434433722,-0.8989254640300659,0.8858858741753142,0.032653725,-1.00524645,-0.08258035500000001,-6.60758,1.2818399999999999,-0.6409199999999999,72.0
1774821949.6695743,2.574920654296875e-05,2026-03-29T22:05:49.669,2026-03-29T18:05:49.669,-31727.52,-49612.229999999996,-84949.965,-50287.14,-15560.099999999999,-20506.5,4879.9349999999995,-54579.96,3.0318574440116786,1.309324713830635,-0.6079620795079468,-0.03760130896700486,-1.4367537001052422,-2.78826418047569,1.1883586991486565,4.819664321163234,0.032653725,-1.00524645,-0.08258035500000001,-6.60758,1.2818399999999999,-0.6409199999999999,72.0
1774821949.6727896,0.003215312957763672,2026-03-29T22:05:49.672,2026-03-29T18:05:49.672,-31732.739999999998,-49616.595,-84951.94499999999,-50284.755,-15551.505,-20481.48,4882.86,-54584.055,2.525316253062183,0.6633493325105668,-0.8035212980760276,0.15532511587918407,-1.4843629991878033,-2.6788634687976502,3.0182089244884205,6.821426468909565,0.032653725,-1.00524645,-0.08258035500000001,-6.60758,1.2818399999999999,-0.6409199999999999,72.0
1774821949.6728024,1.2874603271484375e-05,2026-03-29T22:05:49.672,2026-03-29T18:05:49.672,-31737.239999999998,-49620.645,-84952.305,-50284.799999999996,-15545.88,-20460.105,4901.8949999999995,-54583.74,0.8934256162900822,-0.22578182252942713,-0.47868941456269387,0.4506973680648753,-0.7637462698629496,-1.2688176925646275,3.7692412557237724,5.9251822748494485,0.032653725,-1.00524645,-0.08258035500000001,-6.60758,1.2818399999999999,-0.6409199999999999,72.0
1774821949.6764843,0.0036818981170654297,2026-03-29T22:05:49.676,2026-03-29T18:05:49.676,-31733.145,-49616.145,-84947.895,-50280.345,-15537.644999999999,-20452.32,4921.065,-54572.939999999995,-1.0653192521071675,-0.8803539242796763,0.2852435305253055,0.7947418745159209,0.4805320366832391,0.8807804937445848,2.9878233722129277,2.401987991600337,0.032653725,-1.00524645,-0.08258035500000001,-6.60758,1.2818399999999999,-0.6409199999999999,72.0
1774821949.6765003,1.5974044799804688e-05,2026-03-29T22:05:49.676,2026-03-29T18:05:49.676,-31747.454999999998,-49627.935,-84960.765,-50293.485,-15549.255,-20467.395,4903.875,-54585.72,-2.4411205268277123,-0.9949251578593232,1.097490714325715,0.9936020697704914,1.6887679025803832,2.8098800803104473,0.8431939068840913,-2.3001595424934855,0.032653725,-1.00524645,-0.08258035500000001,-6.60758,1.2818399999999999,-0.6409199999999999,72.0
1774821949.680311,0.0038106441497802734,2026-03-29T22:05:49.680,2026-03-29T18:05:49.680,-31747.995,-49630.005,-84963.33,-50299.02,-15559.83,-20487.96,4870.304999999999,-54598.32,-2.638262696551663,-0.5803665366041295,1.4536590326317518,0.8156417631794679,2.2366206024510924,3.586786304430724,-1.8709639527859998,-6.149677926221181,0.032653725,-1.00524645,-0.08258035500000001,-6.60758,1.2818399999999999,-0.6409199999999999,72.0
1774821949.6803284,1.7404556274414062e-05,2026-03-29T22:05:49.680,2026-03-29T18:05:49.680,-31732.245,-49619.744999999995,-84950.86499999999,-50284.17,-15550.244999999999,-20486.88,4866.57,-54593.009999999995,-1.632566598051684,0.07275031990857884,1.031301240100907,0.1617033594554345,1.7514676648249698,2.7507635814525537,-4.022770238578803,-7.416232377365242,0.032653725,-1.00524645,-0.08258035500000001,-6.60758,1.2818399999999999,-0.6409199999999999,72.0
1774821949.685816,0.005487680435180664,2026-03-29T22:05:49.685,2026-03-29T18:05:49.685,-31742.64,-49628.744999999995,-84962.025,-50293.08,-15561.224999999999,-20498.355,4865.715,-54603.225,0.04984879058851635,0.5785556396916111,-0.08216254104431411,-0.804472596164167,0.33656411818738186,0.5628247501720681,-4.61667280635366,-5.458344649635338,0.03271476,-1.01220444,-0.084045195,-2.77732,1.26658,0.8087799999999999,72.0
1774821949.68583,1.4066696166992188e-05,2026-03-29T22:05:49.685,2026-03-29T18:05:49.685,-31745.655,-49627.395,-84957.39,-50286.645,-15556.365,-20493.09,4873.995,-54600.795,1.606454773455027,0.6768733151802205,-1.374648000129234,-1.666179658051135,-1.423485971229176,-2.064560437277174,-3.255673417832398,-1.0504572790001567,0.03271476,-1.01220444,-0.084045195,-2.77732,1.26658,0.8087799999999999,72.0
1774821949.6879437,0.0021135807037353516,2026-03-29T22:05:49.687,2026-03-29T18:05:49.687,-31746.78,-49634.865,-84972.105,-50294.564999999995,-15557.355,-20490.3,4885.065,-54586.305,2.3423919862304374,0.366360237329082,-2.1434482101936125,-1.9313137642052343,-2.7022137957396515,-3.9463192991629454,-0.375475206234951,3.918532274141122,0.03271476,-1.01220444,-0.084045195,-2.77732,1.26658,0.8087799999999999,72.0
1774821949.6879544,1.0728836059570312e-05,2026-03-29T22:05:49.687,2026-03-29T18:05:49.687,-31746.555,-49638.104999999996,-84974.67,-50295.015,-15557.939999999999,-20493.27,4889.16,-54575.46,1.9800953387309512,-0.11845290248152406,-1.8721843229106374,-1.3032608916992185,-2.8188757850559742,-4.155937939743491,2.8789461062098542,7.260971104585976,0.03271476,-1.01220444,-0.084045195,-2.77732,1.26658,0.8087799999999999,72.0
1774821949.6924105,0.004456043243408203,2026-03-29T22:05:49.692,2026-03-29T18:05:49.692,-31747.364999999998,-49637.79,-84973.31999999999,-50292.54,-15556.904999999999,-20497.725,4880.16,-54578.88,0.7568958300962553,-0.4630588606956933,-0.5503468005225881,0.10056122957203176,-1.5925843097957841,-2.4727570625161506,5.1086039347630505,7.465218462978481,0.03271476,-1.01220444,-0.084045195,-2.77732,1.26658,0.8087799999999999,72.0
1774821949.6924367,2.6226043701171875e-05,2026-03-29T22:05:49.692,2026-03-29T18:05:49.692,-31740.12,-49625.64,-84963.95999999999,-50289.165,-15553.394999999999,-20492.954999999998,4879.304999999999,-54585.45,-0.7190337489983151,-0.4646021228315311,1.2535413421756325,1.7224157885879654,0.5183590782578219,0.46679447966995125,5.266036170341627,4.38944318841561,0.03271476,-1.01220444,-0.084045195,-2.77732,1.26658,0.8087799999999999,72.0
1774821949.696256,0.0038192272186279297,2026-03-29T22:05:49.696,2026-03-29T18:05:49.696,-31730.94,-49610.34,-84948.61499999999,-50287.32,-15555.195,-20489.94,4892.985,-54584.865,-1.7703839447017917,-0.14637018271326746,2.6340730813716724,2.7807727155090953,2.5812225297239197,3.403304385515074,3.1467112306473295,-0.6490216088450255,0.03271476,-1.01220444,-0.084045195,-2.77732,1.26658,0.8087799999999999,72.0
1774821949.6962762,2.0265579223632812e-05,2026-03-29T22:05:49.696,2026-03-29T18:05:49.696,-31736.024999999998,-49613.895,-84953.06999999999,-50292.494999999995,-15559.244999999999,-20489.355,4907.295,-54589.365,-1.9603032987719944,0.2682082733013675,2.805071505360957,2.648775001759993,3.602354110852436,4.9914570796321645,-0.4642077566575485,-5.4423677805746,0.03271476,-1.01220444,-0.084045195,-2.77732,1.26658,0.8087799999999999,72.0
1774821949.700532,0.004255771636962891,2026-03-29T22:05:49.700,2026-03-29T18:05:49.700,-31731.57,-49612.095,-84949.65,-50284.439999999995,-15549.164999999999,-20478.915,4907.474999999999,-54582.795,-1.268905447464075,0.5011185056949935,1.5392209039846587,1.2105205851431444,3.0056441720971,4.412859706012652,-4.078119159694721,-7.871482015407023,0.03271476,-1.01220444,-0.084045195,-2.77732,1.26658,0.8087799999999999,72.0
1774821949.7006824,0.00015044212341308594,2026-03-29T22:05:49.700,2026-03-29T18:05:49.700,-31736.16,-49615.2,-84950.81999999999,-50279.49,-15539.039999999999,-20464.605,4905.764999999999,-54589.365,-0.06843543430951544,0.39430944986685634,-0.6516360380773306,-1.0022674210814153,0.9455003577053501,1.7874320441716962,-6.119686264666636,-6.855574809824777,0.03271476,-1.01220444,-0.084045195,-2.77732,1.26658,0.8087799999999999,72.0
1774821949.7046504,0.003968000411987305,2026-03-29T22:05:49.704,2026-03-29T18:05:49.704,-31758.57,-49638.645,-84975.12,-50305.14,-15565.814999999999,-20486.07,4897.98,-54603.405,1.073962440157084,0.0076853393090789415,-2.7177680857231357,-2.9962917766820385,-1.7117031623005494,-1.8195624986481744,-5.616650411019379,-2.84034210788497,0.03259269,-1.014096525,-0.084899685,0.39676,0.74774,1.2207999999999999,72.0
1774821949.704671,2.0503997802734375e-05,2026-03-29T22:05:49.704,2026-03-29T18:05:49.704,-31750.245,-49630.409999999996,-84966.75,-50299.424999999996,-15566.535,-20498.085,4879.8,-54597.689999999995,1.6622503276640286,-0.4176673581107573,-3.5790976060650004,-3.76698181911125,-3.7526106275164786,-4.824965317810332,-2.6591537390402906,2.3995486266718653,0.03259269,-1.014096525,-0.084899685,0.39676,0.74774,1.2207999999999999,72.0
1774821949.7084007,0.0037298202514648438,2026-03-29T22:05:49.708,2026-03-29T18:05:49.708,-31744.754999999997,-49625.729999999996,-84963.555,-50294.34,-15562.305,-20499.434999999998,4874.4,-54591.119999999995,1.4822110680893115,-0.6080613403703006,-2.6917748650632487,-2.806979812620593,-4.174500701947884,-5.821281603858238,1.5868916507454403,6.5552680630944025,0.03259269,-1.014096525,-0.084899685,0.39676,0.74774,1.2207999999999999,72.0
1774821949.7084148,1.4066696166992188e-05,2026-03-29T22:05:49.708,2026-03-29T18:05:49.708,-31756.77,-49640.085,-84979.62,-50308.83,-15576.3,-20512.755,4869.855,-54597.329999999994,0.6699649110348342,-0.4275986828104877,-0.3757716651036994,-0.41427622557179994,-2.677701791084821,-4.233784479275479,5.339312843273888,7.814853050864223,0.03259269,-1.014096525,-0.084899685,0.39676,0.74774,1.2207999999999999,72.0
1774821949.7123115,0.0038967132568359375,2026-03-29T22:05:49.712,2026-03-29T18:05:49.712,-31758.164999999997,-49640.22,-84979.17,-50307.03,-15573.195,-20505.555,4875.615,-54602.595,-0.3771349870593259,0.03309823565843455,2.288203370287463,2.379014633572532,0.14916112477641186,-0.6354263397801162,6.9505225540640465,5.663197989228654,0.03259269,-1.014096525,-0.084899685,0.39676,0.74774,1.2207999999999999,72.0
1774821949.7123332,2.1696090698242188e-05,2026-03-29T22:05:49.712,2026-03-29T18:05:49.712,-31746.645,-49627.619999999995,-84966.12,-50295.825,-15563.115,-20500.02,4863.285,-54601.695,-1.1927504652154588,0.5051220542440135,3.967795045369859,4.255492094107576,3.0581213193445933,3.4476649393207737,5.631936176556476,1.0927349363709056,0.03259269,-1.014096525,-0.084899685,0.39676,0.74774,1.2207999999999999,72.0
1774821949.716648,0.004314899444580078,2026-03-29T22:05:49.716,2026-03-29T18:05:49.716,-31745.789999999997,-49624.83,-84964.31999999999,-50294.025,-15563.115,-20506.815,4830.84,-54612.945,-1.4446301490112055,0.700098809482043,3.752387435540971,4.242227465846814,4.697587738251952,6.181797807839396,1.8331980365417262,-3.861448857007996,0.03259269,-1.014096525,-0.084899685,0.39676,0.74774,1.2207999999999999,72.0
1774821949.7166595,1.1444091796875e-05,2026-03-29T22:05:49.716,2026-03-29T18:05:49.716,-31738.77,-49611.869999999995,-84946.86,-50275.485,-15540.255,-20482.515,4836.33,-54623.34,-1.062452798214968,0.4860440356977113,1.6475267411880605,2.2166038666006656,4.245280449416695,6.2509304334330755,-2.903270824432496,-7.040871660712067,0.03259269,-1.014096525,-0.084899685,0.39676,0.74774,1.2207999999999999,72.0
1774821949.7201953,0.003535747528076172,2026-03-29T22:05:49.720,2026-03-29T18:05:49.720,-31733.82,-49608.27,-84942.855,-50272.695,-15535.89,-20473.965,4861.9349999999995,-54613.755,-0.24581322592343388,-0.025831339518950443,-1.3782336335529572,-0.9754929216633571,1.819680260783503,3.4897296711662107,-6.568984242580471,-7.115528714600488,0.03259269,-1.014096525,-0.084899685,0.39676,0.74774,1.2207999999999999,72.0
1774821949.720211,1.5735626220703125e-05,2026-03-29T22:05:49.720,2026-03-29T18:05:49.720,-31736.114999999998,-49613.354999999996,-84953.25,-50289.93,-15558.615,-20492.19,4863.33,-54598.095,0.6382501247013439,-0.5388451337321866,-3.8420882204629536,-3.8738739156781676,-1.5358329998902491,-0.9800970103475414,-7.542363879264836,-4.142769864170169,0.03259269,-1.014096525,-0.084899685,0.39676,0.74774,1.2207999999999999,72.0
1774821949.7247357,0.004524707794189453,2026-03-29T22:05:49.724,2026-03-29T18:05:49.724,-31740.57,-49621.77,-84963.33,-50295.33,-15563.205,-20496.78,4872.42,-54584.369999999995,1.2161130960155984,-0.743391451123286,-4.48234330321373,-5.0821616819440845,-4.30600535928758,-5.200938462553899,-5.305432868772675,0.5029829777274041,0.03320304,-1.01086167,-0.08337381,0.50358,0.6409199999999999,2.01432,72.0
1774821949.7247477,1.1920928955078125e-05,2026-03-29T22:05:49.724,2026-03-29T18:05:49.724,-31738.5,-49624.65,-84962.97,-50290.38,-15556.59,-20490.075,4883.67,-54572.04,1.2583655302552104,-0.5045133203743317,-2.9120529890463747,-3.950289831695183,-5.195387661065575,-7.239631235057402,-0.7082339759359451,4.775885399335101,0.03320304,-1.01086167,-0.08337381,0.50358,0.6409199999999999,2.01432,72.0
1774821949.7289393,0.00419163703918457,2026-03-29T22:05:49.728,2026-03-29T18:05:49.728,-31735.574999999997,-49613.445,-84942.45,-50267.07,-15539.13,-20473.11,4897.26,-54582.57,0.7637489385654928,0.048176944398972694,0.15072364691163403,-0.9234440339199543,-3.739537488779682,-6.078078759542493,4.349762160833455,6.871360533159766,0.03320304,-1.01086167,-0.08337381,0.50358,0.6409199999999999,2.01432,72.0
1774821949.728958,1.8596649169921875e-05,2026-03-29T22:05:49.728,2026-03-29T18:05:49.728,-31747.68,-49620.78,-84945.465,-50268.78,-15542.505,-20476.89,4905.8099999999995,-54590.939999999995,-0.05003196664836381,0.586948429266418,3.2112251794696105,2.629638380765493,-0.5447731863995285,-2.1214980642848267,7.703856522505953,5.992653386713877,0.03320304,-1.01086167,-0.08337381,0.50358,0.6409199999999999,2.01432,72.0
1774821949.7329035,0.003945589065551758,2026-03-29T22:05:49.732,2026-03-29T18:05:49.732,-31751.414999999997,-49622.265,-84945.105,-50267.159999999996,-15542.414999999999,-20475.09,4918.86,-54592.92,-0.8391761988702171,0.7762064514975023,4.73511055891296,5.044977841053098,2.9665633693276874,2.9298252397263007,7.850794979839334,2.64332507022435,0.03320304,-1.01086167,-0.08337381,0.50358,0.6409199999999999,2.01432,72.0
1774821949.732922,1.8596649169921875e-05,2026-03-29T22:05:49.732,2026-03-29T18:05:49.732,-31763.114999999998,-49639.77,-84967.605,-50283.854999999996,-15554.699999999999,-20487.329999999998,4903.245,-54600.345,-1.2722924894109084,0.4780144555766124,3.927709744186598,5.155610302739612,5.197430794201862,6.813431778019358,4.621750867657935,-1.655475337936876,0.03320304,-1.01086167,-0.08337381,0.50358,0.6409199999999999,2.01432,72.0
1774821949.7364707,0.0035486221313476562,2026-03-29T22:05:49.736,2026-03-29T18:05:49.736,-31758.48,-49637.295,-84975.84,-50299.2,-15557.535,-20488.23,4888.71,-54605.924999999996,-1.1625858127565616,-0.15056342103272863,1.1555238510187782,2.864734584663001,5.111171602775328,7.725936349414482,-0.6987930739416637,-5.066171821820434,0.03320304,-1.01086167,-0.08337381,0.50358,0.6409199999999999,2.01432,72.0
1774821949.736483,1.239776611328125e-05,2026-03-29T22:05:49.736,2026-03-29T18:05:49.736,-31749.885,-49626.854999999996,-84973.77,-50306.13,-15557.625,-20487.239999999998,4879.08,-54612.314999999995,-0.5449760992719089,-0.7338268552307298,-2.2162014237556047,-0.7858852920531654,2.717946550066033,5.168214277851613,-5.879513280747746,-6.2259075905101415,0.03320304,-1.01086167,-0.08337381,0.50358,0.6409199999999999,2.01432,72.0
1774821949.740147,0.0036640167236328125,2026-03-29T22:05:49.740,2026-03-29T18:05:49.740,-31750.92,-49626.854999999996,-84972.59999999999,-50299.29,-15557.535,-20490.39,4878.135,-54609.57,0.3318636249326076,-0.8928341166558862,-4.500028824331993,-4.096313960079039,-0.9180895413889915,0.21466233418571506,-8.676888962188501,-4.78407173094655,0.03320304,-1.01086167,-0.08337381,0.50358,0.6409199999999999,2.01432,72.0
1774821949.7401605,1.33514404296875e-05,2026-03-29T22:05:49.740,2026-03-29T18:05:49.740,-31745.024999999998,-49622.895,-84963.645,-50302.89,-15561.09,-20496.105,4891.275,-54594.54,1.0991904682320877,-0.4795731138944354,-4.539971994388151,-5.513147322258875,-4.159188009550916,-4.937788591245491,-7.807784513300838,-1.4782698269792407,0.03320304,-1.01086167,-0.08337381,0.50358,0.6409199999999999,2.01432,72.0
1774821949.7479784,0.007817983627319336,2026-03-29T22:05:49.747,2026-03-29T18:05:49.747,-31740.93,-49620.375,-84956.805,-50304.42,-15564.33,-20498.265,4901.76,-54578.25,1.4162414658434088,0.30995781418353424,-2.306625654371687,-4.371719810868117,-5.541911484482084,-7.952475883336696,-3.5386326608305203,2.245438357898219,0.032653725,-1.0021336650000001,-0.084533475,-2.35004,-0.82404,1.15976,72.0
1774821949.748004,2.5510787963867188e-05,2026-03-29T22:05:49.748,2026-03-29T18:05:49.748,-31749.164999999997,-49627.395,-84953.655,-50299.064999999995,-15565.949999999999,-20500.11,4897.665,-54579.195,1.1171768938830378,1.021694127478212,1.0765413534252948,-1.2152414317694178,-4.446290585600093,-7.42434843846255,2.379225704247383,4.871054794980025,0.032653725,-1.0021336650000001,-0.084533475,-2.35004,-0.82404,1.15976,72.0
1774821949.748028,2.4080276489257812e-05,2026-03-29T22:05:49.748,2026-03-29T18:05:49.748,-31748.67,-49624.604999999996,-84950.37,-50292.314999999995,-15565.005,-20503.755,4888.125,-54584.415,0.2956980105806221,1.1940627501535794,3.8974490064254,2.4656763631982237,-1.3762452408865204,-3.5431834372409163,7.423708988454817,5.42474365490351,0.032653725,-1.0021336650000001,-0.084533475,-2.35004,-0.82404,1.15976,72.0
1774821949.748034,5.9604644775390625e-06,2026-03-29T22:05:49.748,2026-03-29T18:05:49.748,-31745.16,-49618.799999999996,-84945.555,-50291.28,-15568.605,-20513.969999999998,4871.655,-54586.395,-0.7152465919489633,0.6383648152169776,4.727055252760788,4.947377862432427,2.276940430987399,1.9685722544378552,9.377294933469834,3.8162539996213667,0.032653725,-1.0021336650000001,-0.084533475,-2.35004,-0.82404,1.15976,72.0
1774821949.752585,0.004550933837890625,2026-03-29T22:05:49.752,2026-03-29T18:05:49.752,-31726.98,-49600.395,-84924.22499999999,-50270.715,-15548.4,-20487.69,4883.804999999999,-54571.814999999995,-1.4713101664852122,-0.4148294623277825,3.152423631290981,5.094457227775714,4.875155602507856,6.627318975155216,7.305686761434732,0.8021685851835244,0.032653725,-1.0021336650000001,-0.084533475,-2.35004,-0.82404,1.15976,72.0
1774821949.7526097,2.47955322265625e-05,2026-03-29T22:05:49.752,2026-03-29T18:05:49.752,-31736.969999999998,-49614.119999999995,-84944.655,-50283.765,-15550.47,-20479.995,4883.355,-54582.84,-1.6072832237507493,-1.4027679201661234,-0.008430724554733806,2.890350871840037,5.278596402025778,8.320655815358752,2.0067637436931522,-2.3738420041700423,0.032653725,-1.0021336650000001,-0.084533475,-2.35004,-0.82404,1.15976,72.0
1774821949.7566867,0.004076957702636719,2026-03-29T22:05:49.756,2026-03-29T18:05:49.756,-31764.735,-49648.14,-84983.04,-50315.49,-15580.08,-20511.675,4841.054999999999,-54611.055,-1.010984216707226,-1.7232312327013204,-3.125214551678979,-0.5758065287885505,3.3515624786795986,6.278161454411543,-4.286723542207608,-4.490458666593583,0.032653725,-1.0021336650000001,-0.084533475,-2.35004,-0.82404,1.15976,72.0
1774821949.756725,3.838539123535156e-05,2026-03-29T22:05:49.756,2026-03-29T18:05:49.756,-31753.215,-49634.909999999996,-84971.79,-50303.744999999995,-15575.085,-20517.03,4823.235,-54615.24,0.10150969883305225,-1.0832006154824652,-4.595436013553891,-3.6515535795672984,0.0015448672761596534,1.4281592014826503,-8.84598599541459,-4.8011448884014625,0.032653725,-1.0021336650000001,-0.084533475,-2.35004,-0.82404,1.15976,72.0
1774821949.7639003,0.0071752071380615234,2026-03-29T22:05:49.763,2026-03-29T18:05:49.763,-31727.789999999997,-49607.145,-84944.47499999999,-50277.6,-15552.675,-20500.739999999998,4842.764999999999,-54596.07,1.2555150677399902,0.2922972471273148,-3.6730968191086237,-4.920791096855199,-3.2555278546272732,-4.028083039866094,-9.633700469418736,-3.2722857671773666,0.032653725,-1.0021336650000001,-0.084533475,-2.35004,-0.82404,1.15976,72.0
1774821949.763927,2.6702880859375e-05,2026-03-29T22:05:49.763,2026-03-29T18:05:49.763,-31732.335,-49607.145,-84940.69499999999,-50269.455,-15541.83,-20494.53,4873.86,-54596.61,1.9155566266364246,1.7252030937712035,-0.8555825721285484,-3.868599696304357,-4.992508963565625,-7.6279878199935105,-6.222162573728171,-0.547460517493928,0.032653725,-1.0021336650000001,-0.084533475,-2.35004,-0.82404,1.15976,72.0
1774821949.7639475,2.0503997802734375e-05,2026-03-29T22:05:49.763,2026-03-29T18:05:49.763,-31752.045,-49625.189999999995,-84960.09,-50292.63,-15567.164999999999,-20530.305,4853.429999999999,-54615.555,1.7314086905170316,2.4143136195739965,2.374970306611015,-1.0933072719514014,-4.504875202874427,-7.774496042229112,-0.025054165387074622,2.3208764747944493,0.03588858,-0.9940160100000001,-0.08630349,-7.95046,-1.9380199999999999,1.31236,72.0
1774821949.7639534,5.9604644775390625e-06,2026-03-29T22:05:49.763,2026-03-29T18:05:49.763,-31745.43,-49617.765,-84956.44499999999,-50297.625,-15577.695,-20539.125,4838.04,-54620.865,0.720128305560892,1.8709418885862008,4.324517438074686,2.0232263884966346,-2.095511367681153,-4.455093416008368,6.282472890134903,4.261608546754583,0.03588858,-0.9940160100000001,-0.08630349,-7.95046,-1.9380199999999999,1.31236,72.0
1774821949.7710097,0.007056236267089844,2026-03-29T22:05:49.771,2026-03-29T18:05:49.771,-31722.524999999998,-49587.435,-84916.845,-50260.14,-15541.92,-20482.829999999998,4894.155,-54596.295,-0.7095050476114584,0.22745470787385583,3.973408387535406,4.009040979862576,1.104291843871103,0.7760402592679988,9.921388909543271,4.562085117688421,0.03588858,-0.9940160100000001,-0.08630349,-7.95046,-1.9380199999999999,1.31236,72.0
1774821949.7710352,2.5510787963867188e-05,2026-03-29T22:05:49.771,2026-03-29T18:05:49.771,-31725.0,-49592.115,-84915.09,-50242.005,-15510.824999999999,-20439.719999999998,4934.25,-54578.7,-1.9171674958190221,-1.7647651549668217,1.5130902449129382,4.008955014302383,3.6753166695812745,5.534588274574947,9.242692604577032,3.1135904526910947,0.03588858,-0.9940160100000001,-0.08630349,-7.95046,-1.9380199999999999,1.31236,72.0
1774821949.77106,2.47955322265625e-05,2026-03-29T22:05:49.771,2026-03-29T18:05:49.771,-31763.52,-49638.6,-84961.44,-50272.515,-15527.97,-20450.835,4925.25,-54590.13,-2.315923099554153,-3.0766421343377583,-1.7503801919332753,2.160340643368009,4.550119125038285,7.708372217127232,4.48581998861452,0.45092952610763115,0.03588858,-0.9940160100000001,-0.08630349,-7.95046,-1.9380199999999999,1.31236,72.0
1774821949.7710664,6.4373016357421875e-06,2026-03-29T22:05:49.771,2026-03-29T18:05:49.771,-31756.364999999998,-49630.32,-84953.43,-50268.735,-15526.664999999999,-20453.94,4912.335,-54594.585,-1.6558029925823878,-2.927737536083957,-4.079959346110324,-0.5309088356530897,3.4587344799779913,6.4084325370291415,-2.2923351738632647,-2.4282620275242732,0.03588858,-0.9940160100000001,-0.08630349,-7.95046,-1.9380199999999999,1.31236,72.0
1774821949.777948,0.0068814754486083984,2026-03-29T22:05:49.777,2026-03-29T18:05:49.777,-31745.295,-49618.89,-84942.54,-50269.68,-15532.38,-20457.809999999998,4910.3099999999995,-54589.77,-0.1692614327368014,-1.2298019434217384,-4.2237020846024915,-2.7296607683786487,0.9929095273537076,2.3339393595489986,-8.106334808025117,-4.413933485680949,0.03588858,-0.9940160100000001,-0.08630349,-7.95046,-1.9380199999999999,1.31236,72.0
1774821949.7779677,1.9788742065429688e-05,2026-03-29T22:05:49.777,2026-03-29T18:05:49.777,-31753.305,-49629.6,-84958.605,-50286.78,-15550.019999999999,-20476.215,4903.695,-54599.895,1.5028356739460647,1.2977501156460813,-2.0830589648887576,-3.439848808395667,-1.713262063566697,-2.5998438324455417,-10.365994491443873,-4.695202232799524,0.03588858,-0.9940160100000001,-0.08630349,-7.95046,-1.9380199999999999,1.31236,72.0
1774821949.7799437,0.00197601318359375,2026-03-29T22:05:49.779,2026-03-29T18:05:49.779,-31746.735,-49623.84,-84957.705,-50289.525,-15557.355,-20483.594999999998,4901.67,-54598.005,2.586115371243966,3.4298764384125864,1.2215995196974516,-2.464788206082744,-3.5147698203298443,-6.174155122577005,-8.044501819499958,-3.090556536093175,0.03588858,-0.9940160100000001,-0.08630349,-7.95046,-1.9380199999999999,1.31236,72.0
1774821949.7799587,1.5020370483398438e-05,2026-03-29T22:05:49.779,2026-03-29T18:05:49.779,-31748.039999999997,-49624.064999999995,-84958.155,-50292.09,-15555.599999999999,-20483.505,4896.45,-54600.119999999995,2.531151547156546,4.030013519287945,3.9300606584069024,-0.4426919315557748,-3.7457070952013543,-6.8793882328475435,-2.1576163974320646,-0.16313408111750463,0.03588858,-0.9940160100000001,-0.08630349,-7.95046,-1.9380199999999999,1.31236,72.0
1774821949.78451,0.0045511722564697266,2026-03-29T22:05:49.784,2026-03-29T18:05:49.784,-31749.93,-49625.64,-84958.47,-50286.33,-15548.49,-20483.055,4890.915,-54601.695,1.289213878297604,2.647363035876733,4.568885837214019,1.5353047034997438,-2.4553504996113418,-4.558426838400525,4.675634788405196,2.950151368372805,0.0378417,-0.99145254,-0.085021755,-11.03298,-2.27374,1.3428799999999999,72.0
1774821949.784526,1.621246337890625e-05,2026-03-29T22:05:49.784,2026-03-29T18:05:49.784,-31746.465,-49626.63,-84958.47,-50286.104999999996,-15551.055,-20485.395,4892.804999999999,-54597.555,-0.6323883330397284,-0.19387464752438263,2.741386143795682,2.506932730008172,-0.3123150206660885,-0.4034385953236619,9.403979736997107,4.961721787479496,0.0378417,-0.99145254,-0.085021755,-11.03298,-2.27374,1.3428799999999999,72.0
1774821949.7889316,0.004405498504638672,2026-03-29T22:05:49.788,2026-03-29T18:05:49.788,-31744.754999999997,-49629.869999999995,-84959.595,-50288.22,-15550.064999999999,-20480.625,4895.595,-54596.025,-2.375805781787946,-3.1854531309753806,-0.6384752196585033,2.112754043323442,1.7442684102398416,3.657850001171172,9.920922676309202,4.962437567599256,0.0378417,-0.99145254,-0.085021755,-11.03298,-2.27374,1.3428799999999999,72.0
1774821949.7889552,2.3603439331054688e-05,2026-03-29T22:05:49.788,2026-03-29T18:05:49.788,-31748.895,-49633.74,-84960.98999999999,-50289.84,-15551.865,-20482.38,4891.995,-54600.255,-3.11659067917621,-4.841073454561239,-3.8016905996587615,0.7264337786593045,2.923798113105565,5.869753273299163,6.019832391666273,2.8415557744817947,0.0378417,-0.99145254,-0.085021755,-11.03298,-2.27374,1.3428799999999999,72.0
1774821949.7927475,0.003792285919189453,2026-03-29T22:05:49.792,2026-03-29T18:05:49.792,-31746.78,-49626.494999999995,-84958.47,-50290.56,-15555.375,-20488.364999999998,4890.0599999999995,-54601.515,-2.4534833981595194,-4.234630141203194,-5.042342974605856,-0.8044133948460495,2.8828954059456904,5.416576078816892,-0.5138245299468759,-0.6004659764517218,0.0378417,-0.99145254,-0.085021755,-11.03298,-2.27374,1.3428799999999999,72.0
1774821949.7927651,1.7642974853515625e-05,2026-03-29T22:05:49.792,2026-03-29T18:05:49.792,-31742.145,-49613.22,-84953.79,-50290.064999999995,-15557.355,-20490.795,4887.54,-54603.63,-0.6193660409204137,-1.5034242911773879,-3.624110987566907,-1.6471972212020805,1.7937186032170436,2.710495465581321,-6.719779285559084,-3.9321017598766432,0.0378417,-0.99145254,-0.085021755,-11.03298,-2.27374,1.3428799999999999,72.0
1774821949.7990189,0.006253719329833984,2026-03-29T22:05:49.799,2026-03-29T18:05:49.799,-31736.789999999997,-49605.93,-84951.135,-50287.32,-15555.06,-20490.66,4886.91,-54605.07,1.595487339283735,2.152132848976939,-0.19805367741594948,-1.4306960222813854,0.19139641667174925,-0.894778334091985,-9.816059261842527,-5.67960311391493,0.0378417,-0.99145254,-0.085021755,-11.03298,-2.27374,1.3428799999999999,72.0
1774821949.799046,2.7179718017578125e-05,2026-03-29T22:05:49.799,2026-03-29T18:05:49.799,-31734.405,-49607.595,-84949.92,-50284.665,-15552.045,-20489.445,4891.32,-54601.515,3.1853726140942356,5.000416197966513,3.4988126035612246,-0.4119387542521439,-1.2937299680280079,-3.78614694814125,-8.464253466453588,-4.98627571613092,0.0378417,-0.99145254,-0.085021755,-11.03298,-2.27374,1.3428799999999999,72.0
1774821949.799065,1.9073486328125e-05,2026-03-29T22:05:49.799,2026-03-29T18:05:49.799,-31735.35,-49609.665,-84948.61499999999,-50281.47,-15550.244999999999,-20488.995,4887.99,-54600.93,3.3874267470822694,5.604053517962877,5.5232148870548246,0.7128685273918928,-2.183167033977359,-4.823067912351759,-3.3630572636088116,-2.0439034323248655,0.0378417,-0.99145254,-0.085021755,-11.03298,-2.27374,1.3428799999999999,72.0
1774821949.799072,6.9141387939453125e-06,2026-03-29T22:05:49.799,2026-03-29T18:05:49.799,-31734.18,-49606.155,-84938.31,-50273.64,-15546.15,-20486.204999999998,4880.745,-54599.85,2.0463272750835824,3.542630557952134,4.737890713807186,1.2338593711373362,-2.2802388328438448,-3.782254836437191,3.1007138373817154,1.9254906711469557,0.0378417,-0.99145254,-0.085021755,-11.03298,-2.27374,1.3428799999999999,72.0
1774821949.8052113,0.006139278411865234,2026-03-29T22:05:49.805,2026-03-29T18:05:49.805,-31737.105,-49609.08,-84940.065,-50278.68,-15554.07,-20494.079999999998,4878.315,-54599.31,-0.28865162257441973,-0.330185934259929,1.4321095376296884,0.8441957819705247,-1.6634546467634292,-1.3446082791832203,7.9740961398577594,5.167117084050708,0.03881826,-0.99047598,-0.085021755,-12.75736,-0.97664,1.70912,72.0
1774821949.8052328,2.1457672119140625e-05,2026-03-29T22:05:49.805,2026-03-29T18:05:49.805,-31742.145,-49617.99,-84952.845,-50288.445,-15562.529999999999,-20505.329999999998,4868.505,-54603.945,-2.589386641989221,-4.242250981838512,-2.7817968905675214,-0.18657890207996894,-0.591336588735279,1.3158430820789613,9.103386088553949,6.173443882220848,0.03881826,-0.99047598,-0.085021755,-12.75736,-0.97664,1.70912,72.0
1774821949.807918,0.0026853084564208984,2026-03-29T22:05:49.807,2026-03-29T18:05:49.807,-31744.26,-49626.045,-84960.045,-50286.645,-15558.164999999999,-20501.864999999998,4864.23,-54604.619999999995,-3.804036833295866,-6.321805355643953,-5.760413811266811,-1.1777873196856044,0.6089293463797498,3.1038275500394388,6.104250696433891,4.398139086505753,0.03881826,-0.99047598,-0.085021755,-12.75736,-0.97664,1.70912,72.0
1774821949.807956,3.790855407714844e-05,2026-03-29T22:05:49.807,2026-03-29T18:05:49.807,-31742.37,-49621.905,-84956.535,-50282.325,-15553.215,-20497.545,4858.11,-54607.545,-3.338703620483543,-5.497205014683086,-5.917947933828046,-1.446172111932622,1.6195932637336805,3.454038806352792,0.4907449461847849,0.5600079392302177,0.03881826,-0.99047598,-0.085021755,-12.75736,-0.97664,1.70912,72.0
1774821949.8124113,0.0044553279876708984,2026-03-29T22:05:49.812,2026-03-29T18:05:49.812,-31725.0,-49603.455,-84942.045,-50272.29,-15551.595,-20512.17,4835.385,-54604.665,-1.3445383473447574,-2.0428063307556195,-3.0587517111814555,-0.7249737118883443,2.1733181049702166,2.4757113159089217,-5.0805915846739715,-3.6340313685189507,0.03881826,-0.99047598,-0.085021755,-12.75736,-0.97664,1.70912,72.0
1774821949.8124404,2.9087066650390625e-05,2026-03-29T22:05:49.812,2026-03-29T18:05:49.812,-31717.485,-49591.665,-84928.05,-50259.78,-15544.394999999999,-20513.79,4812.66,-54620.369999999995,1.3272089369488627,2.504815854517596,1.47933782450445,0.6482385201635005,2.0860638228470663,0.7767776446179288,-8.077436106698464,-6.2485124795818825,0.03881826,-0.99047598,-0.085021755,-12.75736,-0.97664,1.70912,72.0
1774821949.8168168,0.004376411437988281,2026-03-29T22:05:49.816,2026-03-29T18:05:49.816,-31722.57,-49596.57,-84925.53,-50253.615,-15529.545,-20480.13,4838.715,-54624.689999999995,3.4908142974521805,6.0386898320578775,5.460139864057572,1.8913115401910159,1.3083456079406266,-0.892174469235392,-7.260991219009186,-6.023424293362253,0.03881826,-0.99047598,-0.085021755,-12.75736,-0.97664,1.70912,72.0
1774821949.8168375,2.0742416381835938e-05,2026-03-29T22:05:49.816,2026-03-29T18:05:49.816,-31740.57,-49611.869999999995,-84938.895,-50274.54,-15552.539999999999,-20490.524999999998,4859.19,-54625.454999999994,4.154052795248255,6.865622561167819,6.856942943744472,2.2083340916478416,-0.012838793484246583,-1.9729147484167358,-3.209521191046472,-2.995344090771122,0.03881826,-0.99047598,-0.085021755,-12.75736,-0.97664,1.70912,72.0
1774821949.8210783,0.004240751266479492,2026-03-29T22:05:49.821,2026-03-29T18:05:49.821,-31746.914999999997,-49615.92,-84945.555,-50272.424999999996,-15544.755,-20476.17,4904.73,-54606.689999999995,2.9725735757099563,4.519179091647603,4.881328068090415,1.259345267161619,-1.5073137835147015,-2.2624470814464956,2.0314174971384764,1.4764798095968454,0.03881826,-0.99047598,-0.085021755,-12.75736,-0.97664,1.70912,72.0
1774821949.8211136,3.528594970703125e-05,2026-03-29T22:05:49.821,2026-03-29T18:05:49.821,-31744.98,-49616.955,-84949.47,-50270.49,-15538.5,-20468.655,4937.4,-54585.63,0.4229909520092635,0.010244134913370697,0.4115800273922181,-0.595633483180711,-2.6453389005267973,-1.871630265816451,5.976549834746728,5.316742400967306,0.03881826,-0.99047598,-0.085021755,-12.75736,-0.97664,1.70912,72.0
1774821949.8248096,0.003695964813232422,2026-03-29T22:05:49.824,2026-03-29T18:05:49.824,-31758.39,-49638.465,-84975.48,-50291.82,-15553.529999999999,-20484.945,4921.11,-54592.515,-2.390044886405512,-4.615039727581782,-4.406407834710241,-2.4304962521763493,-2.9107429746509914,-1.0613113480340086,6.891935024192357,6.704445900278028,0.03613272,-0.993344625,-0.08593728,-12.528459999999999,-3.8607799999999997,2.7468,72.0
1774821949.824841,3.147125244140625e-05,2026-03-29T22:05:49.824,2026-03-29T18:05:49.824,-31761.18,-49641.705,-84980.565,-50293.665,-15551.55,-20484.495,4907.745,-54598.545,-4.214106691304047,-7.213167270690394,-7.200180207032123,-3.2163772390243186,-2.0357993976363624,-0.08433101435116647,4.57314210895311,4.949777005970886,0.03613272,-0.993344625,-0.08593728,-12.528459999999999,-3.8607799999999997,2.7468,72.0
1774821949.828723,0.0038819313049316406,2026-03-29T22:05:49.828,2026-03-29T18:05:49.828,-31761.539999999997,-49638.6,-84973.77,-50293.395,-15552.449999999999,-20486.295,4892.58,-54610.74,-4.207037302316687,-6.542673470796742,-6.543825568317529,-2.3821304048291156,-0.19053718673148373,0.8759141316082079,0.353517246620157,0.8491103462102063,0.03613272,-0.993344625,-0.08593728,-12.528459999999999,-3.8607799999999997,2.7468,72.0
1774821949.8287525,2.956390380859375e-05,2026-03-29T22:05:49.828,2026-03-29T18:05:49.828,-31755.059999999998,-49631.625,-84963.465,-50294.295,-15554.519999999999,-20488.77,4887.36,-54613.439999999995,-2.324181180287351,-2.856422496179381,-2.6808424026998847,-0.17263074847727883,1.99105948743027,1.6676502340278727,-3.6276799281458643,-3.6693504178221557,0.03613272,-0.993344625,-0.08593728,-12.528459999999999,-3.8607799999999997,2.7468,72.0
1774821949.833276,0.004523515701293945,2026-03-29T22:05:49.833,2026-03-29T18:05:49.833,-31744.17,-49622.67,-84953.06999999999,-50283.945,-15551.82,-20487.105,4899.105,-54602.82,0.6422671933160057,2.195237066704916,2.5678708782299244,2.4038727507605593,3.6074507710232155,2.1080212070815376,-5.507324478382983,-6.455113614409582,0.03613272,-0.993344625,-0.08593728,-12.528459999999999,-3.8607799999999997,2.7468,72.0
1774821949.8333015,2.5510787963867188e-05,2026-03-29T22:05:49.833,2026-03-29T18:05:49.833,-31743.899999999998,-49619.564999999995,-84949.425,-50278.77,-15549.84,-20487.96,4903.065,-54604.665,3.3969831073627854,6.311945027633829,6.674646012393871,4.041170660307838,3.8608120867445104,1.9857543270058113,-4.584171019557608,-6.1695273889962,0.03613272,-0.993344625,-0.08593728,-12.528459999999999,-3.8607799999999997,2.7468,72.0
1774821949.8365896,0.0032880306243896484,2026-03-29T22:05:49.836,2026-03-29T18:05:49.836,-31746.105,-49620.645,-84952.75499999999,-50280.165,-15548.445,-20487.465,4896.179999999999,-54607.77,4.707574677846134,7.598807514689924,7.632539185741615,3.7960023469619855,2.450955568731784,1.1649716001422166,-1.5810297578537271,-2.9421499435391367,0.03613272,-0.993344625,-0.08593728,-12.528459999999999,-3.8607799999999997,2.7468,72.0
1774821949.8366232,3.361701965332031e-05,2026-03-29T22:05:49.836,2026-03-29T18:05:49.836,-31748.625,-49623.84,-84956.67,-50283.09,-15551.46,-20491.515,4887.855,-54608.805,3.9557703654094767,5.442149318247896,4.939197126002278,1.6106750647710653,-0.20272333729940156,-0.26199028842123057,1.8158717790658903,1.6783454049745323,0.03613272,-0.993344625,-0.08593728,-12.528459999999999,-3.8607799999999997,2.7468,72.0
1774821949.840806,0.0041828155517578125,2026-03-29T22:05:49.840,2026-03-29T18:05:49.840,-31746.015,-49621.229999999996,-84954.105,-50281.11,-15548.805,-20490.03,4888.53,-54608.49,1.4277349954707905,0.799562990106794,-0.14647547106460643,-1.584604289166137,-3.0520371450955857,-1.8860800712669785,3.87291723337299,5.465631031042555,0.03613272,-0.993344625,-0.08593728,-12.528459999999999,-3.8607799999999997,2.7468,72.0
1774821949.8408377,3.170967102050781e-05,2026-03-29T22:05:49.840,2026-03-29T18:05:49.840,-31748.579999999998,-49624.695,-84957.435,-50285.205,-15554.609999999999,-20497.905,4883.445,-54611.82,-1.7919653535737587,-4.231415541163231,-5.203337289584362,-4.2706130085489455,-4.827689077936469,-3.058955553766385,3.6937228135388085,6.595028113053896,0.03613272,-0.993344625,-0.08593728,-12.528459999999999,-3.8607799999999997,2.7468,72.0
1774821949.844806,0.003968238830566406,2026-03-29T22:05:49.844,2026-03-29T18:05:49.844,-31746.914999999997,-49622.31,-84954.42,-50282.729999999996,-15552.945,-20496.78,4882.995,-54612.045,-4.285026519140587,-7.368736767099255,-7.812938941326365,-5.0667005633882605,-4.608678266579078,-3.150818693370486,1.620939206821004,4.534113274692797,0.032653725,-0.997861215,-0.09106422,-11.10928,-3.0977799999999998,0.8087799999999999,72.0
1774821949.8448224,1.6450881958007812e-05,2026-03-29T22:05:49.844,2026-03-29T18:05:49.844,-31742.864999999998,-49616.64,-84947.895,-50277.33,-15548.13,-20493.855,4882.275,-54610.965,-4.924352055397068,-7.186867349658526,-6.7246270695936685,-3.4365139946242955,-2.296189103331803,-1.8864868609244787,-1.0304372783729148,0.3045652372429523,0.032653725,-0.997861215,-0.09106422,-11.10928,-3.0977799999999998,0.8087799999999999,72.0
1774821949.8483808,0.0035583972930908203,2026-03-29T22:05:49.848,2026-03-29T18:05:49.848,-31739.219999999998,-49609.305,-84937.5,-50270.22,-15541.74,-20487.239999999998,4878.63,-54611.505,-3.384416309114447,-3.7663395574992053,-2.456109490738423,-0.013006226954683052,1.250286655135871,0.4187164774018897,-2.739758140087468,-4.018440944510182,0.032653725,-0.997861215,-0.09106422,-11.10928,-3.0977799999999998,0.8087799999999999,72.0
1774821949.8483942,1.33514404296875e-05,2026-03-29T22:05:49.848,2026-03-29T18:05:49.848,-31745.024999999998,-49614.299999999996,-84941.45999999999,-50275.215,-15547.365,-20492.46,4869.36,-54618.03,-0.3060027432291055,1.3444706967155384,2.9591527629248424,3.6428342938544467,4.518676203159381,2.8835607629447986,-2.6215605257433876,-6.326290202970568,0.032653725,-0.997861215,-0.09106422,-11.10928,-3.0977799999999998,0.8087799999999999,72.0
1774821949.8525865,0.004192352294921875,2026-03-29T22:05:49.852,2026-03-29T18:05:49.852,-31738.5,-49608.99,-84936.95999999999,-50272.064999999995,-15545.744999999999,-20498.219999999998,4869.855,-54612.045,2.96757618481172,5.835829935473231,6.951619673018424,5.759861160295,5.990869726732622,4.389680122057645,-0.8866413963953336,-5.51377734976766,0.032653725,-0.997861215,-0.09106422,-11.10928,-3.0977799999999998,0.8087799999999999,72.0
1774821949.852598,1.1444091796875e-05,2026-03-29T22:05:49.852,2026-03-29T18:05:49.852,-31735.754999999997,-49611.555,-84940.65,-50274.27,-15547.095,-20501.64,4875.21,-54602.28,4.976060867289072,7.686723520169423,7.645797468839027,5.218532090797713,4.852832494075498,4.096160518656514,1.317621819287272,-2.018851457626635,0.032653725,-0.997861215,-0.09106422,-11.10928,-3.0977799999999998,0.8087799999999999,72.0
1774821949.8567352,0.004137277603149414,2026-03-29T22:05:49.856,2026-03-29T18:05:49.856,-31754.565,-49638.869999999995,-84975.84,-50298.39,-15565.185,-20513.969999999998,4850.235,-54614.655,4.795300141395598,6.0788545116199035,4.7475267379750585,2.136091020193133,1.4340760536261312,1.8998605714445422,2.5895358386770693,2.403248985422721,0.032653725,-0.997861215,-0.09106422,-11.10928,-3.0977799999999998,0.8087799999999999,72.0
1774821949.8567667,3.147125244140625e-05,2026-03-29T22:05:49.856,2026-03-29T18:05:49.856,-31749.03,-49629.509999999995,-84964.635,-50291.415,-15564.555,-20511.54,4816.26,-54625.545,2.4655035497041453,1.759755038137026,-0.33364728421884654,-2.127571831469213,-2.8565438900649993,-1.4067879095603377,2.0952800628945005,5.558780523485362,0.032653725,-0.997861215,-0.09106422,-11.10928,-3.0977799999999998,0.8087799999999999,72.0
1774821949.8608897,0.00412297248840332,2026-03-29T22:05:49.860,2026-03-29T18:05:49.860,-31722.57,-49601.88,-84937.36499999999,-50273.729999999996,-15560.64,-20516.625,4799.385,-54615.015,-1.0049230579167514,-3.3063648241479644,-5.176331130433433,-5.573233441102196,-6.108721250124022,-4.404571392811827,0.07075554437227874,5.908016082744167,0.032653725,-0.997861215,-0.09106422,-11.10928,-3.0977799999999998,0.8087799999999999,72.0
1774821949.8609025,1.2874603271484375e-05,2026-03-29T22:05:49.860,2026-03-29T18:05:49.860,-31701.195,-49582.305,-84918.105,-50251.545,-15540.255,-20498.445,4845.33,-54589.59,-4.073457489086453,-6.836353966440272,-7.51113113795299,-6.505753623374765,-6.766723494232318,-5.661542113026733,-2.284750198595291,3.3251313355116827,0.032653725,-0.997861215,-0.09106422,-11.10928,-3.0977799999999998,0.8087799999999999,72.0
1774821949.868312,0.007409334182739258,2026-03-29T22:05:49.868,2026-03-29T18:05:49.868,-31726.125,-49604.04,-84940.065,-50254.29,-15530.939999999999,-20479.545,4891.7699999999995,-54603.27,-5.350422384086359,-7.262666712591045,-6.293120141327187,-4.370208209288862,-4.377648484644193,-4.424223232297222,-3.478370571275996,-0.8536920582842711,0.0292968,-0.999448125,-0.09472632,-11.1398,-5.4936,1.58704,72.0
1774821949.8684,8.821487426757812e-05,2026-03-29T22:05:49.868,2026-03-29T18:05:49.868,-31757.625,-49630.229999999996,-84965.76,-50264.145,-15528.24,-20470.41,4926.195,-54615.015,-4.2328875141671505,-4.434101792660323,-2.17267151464508,-0.06796074693759724,0.12938727279775564,-1.0493842440255507,-2.5966566297263043,-4.514754605082858,0.0292968,-0.999448125,-0.09472632,-11.1398,-5.4936,1.58704,72.0
1774821949.8684464,4.6253204345703125e-05,2026-03-29T22:05:49.868,2026-03-29T18:05:49.868,-31764.195,-49631.58,-84966.3,-50272.83,-15525.72,-20465.415,4910.76,-54627.03,-1.1945923433439571,0.3321720095469107,2.8484615504274484,4.421841996638136,4.794923232134954,3.063593826681964,0.10531172787796736,-5.835794721282835,0.0292968,-0.999448125,-0.09472632,-11.1398,-5.4936,1.58704,72.0
1774821949.8684602,1.3828277587890625e-05,2026-03-29T22:05:49.868,2026-03-29T18:05:49.868,-31745.34,-49609.89,-84937.14,-50279.715,-15537.24,-20476.395,4870.485,-54637.155,2.409849086190554,4.864480012094629,6.395157009453148,6.957500017678765,7.483886929039065,6.0526799266687075,3.248999493496693,-4.198471017041635,0.0292968,-0.999448125,-0.09472632,-11.1398,-5.4936,1.58704,72.0
1774821949.873112,0.004651784896850586,2026-03-29T22:05:49.873,2026-03-29T18:05:49.873,-31707.18,-49575.869999999995,-84902.22,-50248.215,-15513.93,-20455.739999999998,4888.53,-54609.525,4.9487021231228825,7.130498555205006,6.851054896049531,6.261735411734391,6.869468393613756,6.445244129289779,5.026434329614747,-0.48468611283368446,0.0292968,-0.999448125,-0.09472632,-11.1398,-5.4936,1.58704,72.0
1774821949.8731408,2.8848648071289062e-05,2026-03-29T22:05:49.873,2026-03-29T18:05:49.873,-31723.335,-49596.165,-84926.52,-50262.884999999995,-15523.785,-20461.68,4928.985,-54594.765,5.256433136245873,6.154983009337123,4.101888443752926,2.5662320004348067,3.090083999267676,3.8883107755958117,4.19785087485777,3.3887329891555793,0.0292968,-0.999448125,-0.09472632,-11.1398,-5.4936,1.58704,72.0
1774821949.8766696,0.0035288333892822266,2026-03-29T22:05:49.876,2026-03-29T18:05:49.876,-31746.645,-49620.645,-84951.315,-50282.189999999995,-15544.755,-20485.44,4935.195,-54594.405,3.1762372868373334,2.444586441480555,-0.4543025960599423,-2.451374400275236,-2.2463555791619596,-0.606682742065308,0.8575372207721514,5.455176366584692,0.0292968,-0.999448125,-0.09472632,-11.1398,-5.4936,1.58704,72.0
1774821949.8766923,2.2649765014648438e-05,2026-03-29T22:05:49.876,2026-03-29T18:05:49.876,-31763.879999999997,-49641.03,-84970.98,-50302.17,-15568.019999999999,-20514.285,4907.88,-54600.03,-0.354085851268441,-2.2675959567589747,-4.6154517498048335,-6.430436859006357,-6.7448447172543435,-5.056520452350851,-3.475964602947764,4.698331220200156,0.0292968,-0.999448125,-0.09472632,-11.1398,-5.4936,1.58704,72.0
1774821949.8809812,0.004288911819458008,2026-03-29T22:05:49.880,2026-03-29T18:05:49.880,-31757.895,-49635.945,-84968.19,-50301.225,-15567.615,-20514.285,4887.855,-54610.604999999996,-3.722118254002058,-5.83202940514149,-6.444463190790802,-7.44288827680258,-8.30381867327923,-7.387756968032522,-6.550143102148174,1.5575729804132663,0.0292968,-0.999448125,-0.09472632,-11.1398,-5.4936,1.58704,72.0
1774821949.8810024,2.1219253540039062e-05,2026-03-29T22:05:49.881,2026-03-29T18:05:49.881,-31743.495,-49617.63,-84948.3,-50279.895,-15545.25,-20492.684999999998,4893.12,-54610.064999999995,-5.380390645281448,-6.6690264946185795,-5.178299358082364,-4.932609318864069,-6.1041477623218565,-6.4123857169716025,-6.536347513399684,-2.315377311798478,0.0292968,-0.999448125,-0.09472632,-11.1398,-5.4936,1.58704,72.0
1774821949.884621,0.003618478775024414,2026-03-29T22:05:49.884,2026-03-29T18:05:49.884,-31741.379999999997,-49615.56,-84945.78,-50274.09,-15538.14,-20486.114999999998,4895.01,-54608.579999999994,-4.565258151963977,-4.476757264980985,-1.5478021664445873,-0.019316507386810962,-1.038484649387403,-2.434649298275766,-3.065517523716604,-4.917987424989211,0.024841245,-0.9981663900000001,-0.095885985,-10.956679999999999,-9.430679999999999,1.8159399999999999,72.0
1774821949.884642,2.09808349609375e-05,2026-03-29T22:05:49.884,2026-03-29T18:05:49.884,-31744.35,-49618.979999999996,-84950.64,-50274.945,-15536.88,-20479.184999999998,4896.36,-54609.299999999996,-1.6576896570227313,-0.3402514666790385,2.6261011424192753,4.997733216277284,4.643060792619104,2.820935856794945,2.426635887469875,-4.929950410439777,0.024841245,-0.9981663900000001,-0.095885985,-10.956679999999999,-9.430679999999999,1.8159399999999999,72.0
1774821949.8910077,0.006365776062011719,2026-03-29T22:05:49.891,2026-03-29T18:05:49.891,-31729.364999999998,-49600.395,-84933.36,-50261.22,-15530.4,-20482.2,4889.25,-54605.97,1.9886858266238314,3.798770204818239,5.342780964455166,7.717924411090515,8.334638172657721,6.959199210855346,7.286955236415759,-2.3855022372571852,0.024841245,-0.9981663900000001,-0.095885985,-10.956679999999999,-9.430679999999999,1.8159399999999999,72.0
1774821949.8910334,2.574920654296875e-05,2026-03-29T22:05:49.891,2026-03-29T18:05:49.891,-31729.23,-49600.08,-84935.34,-50263.56,-15535.574999999999,-20489.355,4883.3099999999995,-54606.869999999995,4.6777534338206594,6.05522663630439,5.384985289153255,6.793155006083344,8.2771474971537,8.014890074790046,8.928855004831105,1.3586582301718453,0.024841245,-0.9981663900000001,-0.095885985,-10.956679999999999,-9.430679999999999,1.8159399999999999,72.0
1774821949.892403,0.001369476318359375,2026-03-29T22:05:49.892,2026-03-29T18:05:49.892,-31734.989999999998,-49607.46,-84945.51,-50274.225,-15546.465,-20496.375,4871.565,-54609.39,5.166199750378266,5.46718718432337,2.8696008453870725,2.601034997255747,4.4038047391558734,5.3947055649866975,6.191232867362971,4.338620242561457,0.024841245,-0.9981663900000001,-0.095885985,-10.956679999999999,-9.430679999999999,1.8159399999999999,72.0
1774821949.8924203,1.7404556274414062e-05,2026-03-29T22:05:49.892,2026-03-29T18:05:49.892,-31721.895,-49592.205,-84930.48,-50263.515,-15536.43,-20483.594999999998,4873.005,-54606.735,3.2483022128018213,2.4139845173857437,-0.8650898787392147,-2.900335781421125,-1.5803273678754046,0.205892724809837,0.06546684851271216,5.00774387070993,0.024841245,-0.9981663900000001,-0.095885985,-10.956679999999999,-9.430679999999999,1.8159399999999999,72.0
1774821949.897122,0.0047016143798828125,2026-03-29T22:05:49.897,2026-03-29T18:05:49.897,-31715.37,-49582.395,-84915.045,-50240.835,-15509.025,-20457.585,4895.19,-54602.954999999994,-0.14932482752651563,-1.5998110526208498,-3.957765218247225,-7.085273284897135,-6.946516127487693,-5.207980974584448,-6.6366081912042585,3.038031083827495,0.024841245,-0.9981663900000001,-0.095885985,-10.956679999999999,-9.430679999999999,1.8159399999999999,72.0
1774821949.897145,2.3126602172851562e-05,2026-03-29T22:05:49.897,2026-03-29T18:05:49.897,-31741.739999999998,-49610.924999999996,-84938.12999999999,-50258.79,-15521.535,-20465.19,4893.615,-54613.935,-3.410855519055811,-4.679977993704375,-4.9486167835731845,-7.916427513108667,-9.191381461959962,-8.331371933672704,-10.57968545434277,-0.516468536800952,0.024841245,-0.9981663900000001,-0.095885985,-10.956679999999999,-9.430679999999999,1.8159399999999999,72.0
1774821949.9034512,0.006306171417236328,2026-03-29T22:05:49.903,2026-03-29T18:05:49.903,-31767.84,-49640.67,-84965.94,-50287.994999999995,-15552.18,-20499.885,4850.37,-54636.884999999995,-5.002359364906591,-5.4407458089217675,-3.472244660762734,-4.9421107730233835,-7.213317727199365,-7.65536681580484,-9.566606024906216,-3.7768639419380627,0.024841245,-0.9981663900000001,-0.095885985,-10.956679999999999,-9.430679999999999,1.8159399999999999,72.0
1774821949.9034708,1.9550323486328125e-05,2026-03-29T22:05:49.903,2026-03-29T18:05:49.903,-31759.695,-49632.615,-84954.87,-50282.189999999995,-15551.144999999999,-20505.149999999998,4829.535,-54644.13,-4.201757972707479,-3.6380155008470054,-0.38870343990321254,0.4551061831546063,-1.8601337904681148,-3.4143580634774566,-3.736434823614505,-5.025310661011567,0.024841245,-0.9981663900000001,-0.095885985,-10.956679999999999,-9.430679999999999,1.8159399999999999,72.0
1774821949.904486,0.0010151863098144531,2026-03-29T22:05:49.904,2026-03-29T18:05:49.904,-31743.765,-49617.765,-84935.06999999999,-50250.78,-15521.805,-20485.485,4863.554999999999,-54632.52,-1.436467157354015,-0.24393064474463091,2.6920770369083793,5.6956832309610945,4.426799834957188,2.481698761071003,4.344266477236756,-3.6050291295299,0.02246088,-1.00024158,-0.09509253,-9.33912,-12.63528,2.35004,72.0
1774821949.9045012,1.52587890625e-05,2026-03-29T22:05:49.904,2026-03-29T18:05:49.904,-31735.44,-49607.009999999995,-84928.77,-50235.705,-15503.894999999999,-20468.655,4918.455,-54606.42,1.9338342302106424,3.0590539733566917,4.237913524584155,8.235002165486678,8.726530837405075,7.308876603321816,10.813829938725751,-0.2648271299280271,0.02246088,-1.00024158,-0.09509253,-9.33912,-12.63528,2.35004,72.0
1774821949.9085977,0.004096508026123047,2026-03-29T22:05:49.908,2026-03-29T18:05:49.908,-31731.704999999998,-49596.93,-84932.955,-50242.095,-15506.73,-20463.75,4931.73,-54592.155,4.282880866261387,4.707956704467337,3.5534417394068667,6.802060209901131,9.002350888846305,8.79549134106305,12.371566857760785,3.232207474630618,0.02246088,-1.00024158,-0.09509253,-9.33912,-12.63528,2.35004,72.0
1774821949.9086192,2.1457672119140625e-05,2026-03-29T22:05:49.908,2026-03-29T18:05:49.908,-31743.539999999997,-49609.485,-84956.08499999999,-50272.695,-15535.439999999999,-20479.905,4906.755,-54606.555,4.507082414671573,4.005382912908225,1.0958971840778582,2.0408267781583787,5.076014100053171,6.201065142538965,7.961202364251343,5.032633263850219,0.02246088,-1.00024158,-0.09509253,-9.33912,-12.63528,2.35004,72.0
1774821949.9123597,0.003740549087524414,2026-03-29T22:05:49.912,2026-03-29T18:05:49.912,-31748.85,-49619.655,-84962.745,-50285.205,-15543.63,-20482.649999999998,4898.385,-54607.005,2.5532453352642435,1.4229949253768917,-1.7968871421902493,-3.7711467242194323,-1.2574380310023228,0.6915211109554179,-0.5765456977710253,4.1675263707293615,0.02246088,-1.00024158,-0.09509253,-9.33912,-12.63528,2.35004,72.0
1774821949.9123764,1.6689300537109375e-05,2026-03-29T22:05:49.912,2026-03-29T18:05:49.912,-31743.405,-49612.409999999996,-84949.245,-50286.869999999995,-15543.09,-20477.61,4900.005,-54601.064999999995,-0.5717387320729983,-1.6741514338044154,-3.6140227390692825,-7.807845772776251,-7.046331387828694,-5.18165909951808,-9.264991459165266,1.0683776264265192,0.02246088,-1.00024158,-0.09509253,-9.33912,-12.63528,2.35004,72.0
1774821949.9165933,0.004216909408569336,2026-03-29T22:05:49.916,2026-03-29T18:05:49.916,-31741.92,-49610.655,-84941.45999999999,-50282.189999999995,-15552.135,-20493.09,4893.929999999999,-54599.715,-3.3105921642818377,-3.732785184665155,-3.4478035769470083,-8.068432664711203,-9.56091955740037,-8.66712470269133,-13.85605877888277,-2.6484761458374613,0.02246088,-1.00024158,-0.09509253,-9.33912,-12.63528,2.35004,72.0
1774821949.9166093,1.5974044799804688e-05,2026-03-29T22:05:49.916,2026-03-29T18:05:49.916,-31740.344999999998,-49608.765,-84941.81999999999,-50278.409999999996,-15553.305,-20496.105,4887.63,-54605.655,-4.330041210068945,-3.7878159720677558,-1.4446931599728783,-4.37184181207572,-7.58884339833808,-8.111404708186852,-11.919001648647717,-5.0208809092904705,0.02246088,-1.00024158,-0.09509253,-9.33912,-12.63528,2.35004,72.0
1774821949.9207454,0.004136085510253906,2026-03-29T22:05:49.920,2026-03-29T18:05:49.920,-31741.965,-49611.465,-84946.41,-50280.525,-15552.09,-20491.739999999998,4886.325,-54609.299999999996,-3.1752028487050654,-1.922759662207938,1.2919402512721678,1.52319630168165,-2.0292568921320213,-3.7527973319860157,-4.121379210583727,-4.769169700827374,0.02246088,-1.00024158,-0.09509253,-9.33912,-12.63528,2.35004,72.0
1774821949.9207768,3.147125244140625e-05,2026-03-29T22:05:49.920,2026-03-29T18:05:49.920,-31744.17,-49614.299999999996,-84950.64,-50283.99,-15552.99,-20492.145,4879.125,-54610.47,-0.480361806104845,0.8090763181536653,3.289610092755682,6.748855432461202,4.509376150290201,2.3737215475185476,5.970227592080566,-1.977646122493558,0.02246088,-1.00024158,-0.09509253,-9.33912,-12.63528,2.35004,72.0
1774821949.924682,0.003905057907104492,2026-03-29T22:05:49.924,2026-03-29T18:05:49.924,-31735.079999999998,-49604.805,-84940.33499999999,-50272.38,-15543.945,-20490.255,4874.445,-54605.204999999994,2.365243870967299,2.9521119576322854,3.4788606019383086,8.719787584453504,8.931595721865175,7.386442465455924,13.530858618239911,1.9302844534140737,0.02148432,-1.007138535,-0.09728979,-9.491719999999999,-13.505099999999999,2.47212,72.0
1774821949.9246955,1.3589859008789062e-05,2026-03-29T22:05:49.924,2026-03-29T18:05:49.924,-31725.09,-49593.869999999995,-84929.67,-50257.53,-15529.5,-20479.005,4885.5599999999995,-54599.85,3.9253395164277727,3.408214113775295,1.752131910118422,6.411558406574621,9.125257037583882,8.918248506622902,14.800528202737963,4.917927229819009,0.02148432,-1.007138535,-0.09728979,-9.491719999999999,-13.505099999999999,2.47212,72.0
1774821949.9286427,0.003947257995605469,2026-03-29T22:05:49.928,2026-03-29T18:05:49.928,-31733.954999999998,-49604.895,-84939.97499999999,-50261.49,-15528.555,-20473.829999999998,4901.4,-54602.28,3.440343237694581,1.9977300040275374,-0.977717893541903,0.8937961382909384,4.979283234595695,6.243552108964556,8.964325532740633,5.391635044153558,0.02148432,-1.007138535,-0.09728979,-9.491719999999999,-13.505099999999999,2.47212,72.0
1774821949.9286659,2.3126602172851562e-05,2026-03-29T22:05:49.928,2026-03-29T18:05:49.928,-31750.245,-49618.439999999995,-84948.525,-50268.915,-15538.185,-20485.755,4885.785,-54616.049999999996,1.2023902234285888,-0.46435517352165795,-3.250143837310248,-5.1595592771628445,-1.5453988390499769,0.6303022431641291,-1.3551861048021516,3.041562426948265,0.02148432,-1.007138535,-0.09728979,-9.491719999999999,-13.505099999999999,2.47212,72.0
1774821949.9337876,0.005121707916259766,2026-03-29T22:05:49.933,2026-03-29T18:05:49.933,-31746.285,-49609.08,-84933.72,-50259.284999999996,-15534.81,-20488.32,4866.885,-54618.435,-1.6058140260300693,-2.612708012512962,-3.819686424056751,-8.761407249106867,-7.338017792611003,-5.257202480350074,-11.279878145551656,-0.9731951493031102,0.02148432,-1.007138535,-0.09728979,-9.491719999999999,-13.505099999999999,2.47212,72.0
1774821949.9338052,1.7642974853515625e-05,2026-03-29T22:05:49.933,2026-03-29T18:05:49.933,-31737.195,-49595.22,-84921.25499999999,-50257.89,-15534.99,-20488.815,4866.48,-54612.045,-3.524000233262997,-3.263001724321438,-2.3171801108143057,-8.08223717246249,-9.621775285303508,-8.624971841491107,-15.9983014295469,-4.600048795987083,0.02148432,-1.007138535,-0.09728979,-9.491719999999999,-13.505099999999999,2.47212,72.0
1774821949.9382758,0.0044705867767333984,2026-03-29T22:05:49.938,2026-03-29T18:05:49.938,-31740.12,-49601.475,-84933.54,-50275.755,-15551.369999999999,-20499.57,4870.53,-54610.74,-3.565648904151233,-2.047456769807326,0.5340800695976942,-3.3772223573081463,-7.291017180989273,-7.882099065807903,-13.115404245688502,-5.941333689222107,0.02148432,-1.007138535,-0.09728979,-9.491719999999999,-13.505099999999999,2.47212,72.0
1774821949.9382923,1.6450881958007812e-05,2026-03-29T22:05:49.938,2026-03-29T18:05:49.938,-31737.375,-49598.28,-84930.56999999999,-50268.555,-15544.17,-20493.989999999998,4872.554999999999,-54607.905,-1.7237399503419277,0.3805274227707769,3.266914783728278,3.0995687155445624,-1.4549996434392505,-3.4006597877204365,-3.874585092213741,-4.2402085552337185,0.02148432,-1.007138535,-0.09728979,-9.491719999999999,-13.505099999999999,2.47212,72.0
1774821949.9406476,0.002355337142944336,2026-03-29T22:05:49.940,2026-03-29T18:05:49.940,-31738.725,-49603.814999999995,-84939.795,-50264.009999999995,-15535.71,-20485.35,4896.09,-54607.59,1.027983695046331,2.685352895188617,4.415494016594126,8.171638705347103,5.082815925388487,2.664016779815932,7.374037103716934,-0.29435359725102234,0.02148432,-1.007138535,-0.09728979,-9.491719999999999,-13.505099999999999,2.47212,72.0
1774821949.9406688,2.1219253540039062e-05,2026-03-29T22:05:49.940,2026-03-29T18:05:49.940,-31742.1,-49611.015,-84947.94,-50266.259999999995,-15536.07,-20481.165,4906.125,-54610.38,3.2396694481451127,3.560453309610044,3.282414447953052,9.29439997278735,9.168637172905846,7.408496246155808,15.234349895963001,3.923803011405874,0.02148432,-1.007138535,-0.09728979,-9.491719999999999,-13.505099999999999,2.47212,72.0
1774821949.9450924,0.004423618316650391,2026-03-29T22:05:49.945,2026-03-29T18:05:49.945,-31739.219999999998,-49608.18,-84943.89,-50268.15,-15533.414999999999,-20475.045,4905.405,-54604.395,3.7379460810537797,2.441214701927232,0.33313070112939547,5.827755103444648,8.822080680708005,8.57494916071265,15.871781338011981,6.256656090784712,0.02294916,-1.013486175,-0.10034154,-10.666739999999999,-14.37492,1.09872,72.0
1774821949.9451115,1.9073486328125e-05,2026-03-29T22:05:49.945,2026-03-29T18:05:49.945,-31739.129999999997,-49609.755,-84943.395,-50271.479999999996,-15538.14,-20483.864999999998,4875.3,-54605.79,2.239668140651542,-0.16005994174444235,-2.9961379908106647,-0.6084730382603961,4.20212763897724,5.632383305581496,8.898948873231001,5.462401079777036,0.02294916,-1.013486175,-0.10034154,-10.666739999999999,-14.37492,1.09872,72.0
1774821949.9527135,0.00760197639465332,2026-03-29T22:05:49.952,2026-03-29T18:05:49.952,-31730.67,-49603.77,-84942.405,-50271.255,-15543.449999999999,-20497.77,4837.23,-54606.015,-0.49130655514851607,-2.8869635652177963,-4.997459404667835,-6.890332971696714,-2.4587891907685195,0.02432294729878908,-2.3945123822503493,1.8663094112232639,0.02294916,-1.013486175,-0.10034154,-10.666739999999999,-14.37492,1.09872,72.0
1774821949.9527338,2.0265579223632812e-05,2026-03-29T22:05:49.952,2026-03-29T18:05:49.952,-31724.37,-49597.02,-84935.25,-50266.935,-15538.5,-20492.954999999998,4845.24,-54603.674999999996,-3.029810509509783,-4.234919461791086,-4.557209943104768,-9.904691733670877,-7.9290054327133035,-5.535462992139187,-12.601563047139097,-2.775667138684418,0.02294916,-1.013486175,-0.10034154,-10.666739999999999,-14.37492,1.09872,72.0
1774821949.9527535,1.9788742065429688e-05,2026-03-29T22:05:49.952,2026-03-29T18:05:49.952,-31727.699999999997,-49597.47,-84931.245,-50260.229999999996,-15529.814999999999,-20480.309999999998,4868.865,-54609.345,-4.024194273648524,-3.357418011859722,-1.753837000542457,-8.088798295090886,-9.54494211545326,-8.376954022397708,-16.80370032356609,-6.141741964534385,0.02294916,-1.013486175,-0.10034154,-10.666739999999999,-14.37492,1.09872,72.0
1774821949.9527607,7.152557373046875e-06,2026-03-29T22:05:49.952,2026-03-29T18:05:49.952,-31743.27,-49606.02,-84928.545,-50258.924999999996,-15535.935,-20489.265,4854.42,-54624.96,-2.9044800473208685,-0.5588135591340885,2.1259095730765547,-2.2337196178913845,-6.511099237817715,-7.160536083997871,-12.959230840597048,-6.508078030889017,0.02294916,-1.013486175,-0.10034154,-10.666739999999999,-14.37492,1.09872,72.0
1774821949.9574208,0.004660129547119141,2026-03-29T22:05:49.957,2026-03-29T18:05:49.957,-31750.965,-49617.36,-84940.02,-50264.685,-15547.32,-20506.364999999998,4853.7,-54619.695,-0.19670658844520306,2.8012119847441066,5.1821465389667445,4.85934440495131,-0.29637330522948296,-2.5138594502674017,-2.905868724963993,-3.626699703486995,0.02294916,-1.013486175,-0.10034154,-10.666739999999999,-14.37492,1.09872,72.0
1774821949.957456,3.528594970703125e-05,2026-03-29T22:05:49.957,2026-03-29T18:05:49.957,-31736.879999999997,-49597.47,-84916.575,-50233.994999999995,-15514.65,-20472.795,4911.3,-54609.119999999995,2.7259431830867773,4.9681878980857475,5.831392260670532,9.72142453984497,6.073032361834916,3.2865504873231863,8.519301304549014,1.1278972538948866,0.02294916,-1.013486175,-0.10034154,-10.666739999999999,-14.37492,1.09872,72.0
1774821949.9608364,0.003380298614501953,2026-03-29T22:05:49.960,2026-03-29T18:05:49.960,-31747.32,-49601.564999999995,-84916.215,-50228.729999999996,-15506.279999999999,-20453.67,4946.94,-54612.134999999995,4.336896233575187,4.697676632846532,3.6161172544767752,9.912409503988469,9.485466922232618,7.42952047984516,15.820059274032928,5.424025816705547,0.02294916,-1.013486175,-0.10034154,-10.666739999999999,-14.37492,1.09872,72.0
1774821949.9608583,2.193450927734375e-05,2026-03-29T22:05:49.960,2026-03-29T18:05:49.960,-31764.78,-49623.93,-84946.00499999999,-50255.729999999996,-15530.805,-20479.274999999998,4928.625,-54618.345,3.7451874779915566,1.9418426445014008,-0.515504545253032,5.241475003924375,8.264856698481351,7.933998771212744,15.503005943766821,7.123453445757985,0.02294916,-1.013486175,-0.10034154,-10.666739999999999,-14.37492,1.09872,72.0
1774821949.9650984,0.0042400360107421875,2026-03-29T22:05:49.965,2026-03-29T18:05:49.965,-31754.52,-49616.729999999996,-84946.905,-50262.57,-15529.814999999999,-20479.184999999998,4896.2699999999995,-54620.954999999994,1.174710839582353,-2.0516343582796144,-4.61900638738199,-2.098137637969299,2.9963176447197855,4.600195055203968,7.76357637214617,5.346126926277888,0.025695735,-1.019223465,-0.100890855,-11.1398,-15.977219999999999,2.01432,72.0
1774821949.9651227,2.4318695068359375e-05,2026-03-29T22:05:49.965,2026-03-29T18:05:49.965,-31742.37,-49605.255,-84937.185,-50272.695,-15525.224999999999,-20469.645,4896.764999999999,-54613.17,-2.1196386964937806,-5.3090434849023795,-6.6740022942964545,-8.564137590276006,-3.751944126198076,-0.911780864876877,-3.624200104417823,0.9182273246408847,0.025695735,-1.019223465,-0.100890855,-11.1398,-15.977219999999999,2.01432,72.0
1774821949.9687748,0.0036520957946777344,2026-03-29T22:05:49.968,2026-03-29T18:05:49.968,-31740.48,-49604.805,-84937.095,-50283.314999999995,-15537.869999999999,-20480.265,4890.375,-54610.424999999996,-4.46816731651903,-6.106878550303144,-5.577847502028794,-10.979368556867689,-8.67959067989314,-5.906769877827839,-13.155026890326068,-4.021677519121785,0.025695735,-1.019223465,-0.100890855,-11.1398,-15.977219999999999,2.01432,72.0
1774821949.9688053,3.0517578125e-05,2026-03-29T22:05:49.968,2026-03-29T18:05:49.968,-31744.305,-49602.96,-84925.70999999999,-50259.06,-15533.055,-20479.364999999998,4882.86,-54621.765,-4.630860930142562,-3.8715929088877346,-1.7243302695283125,-8.093258252440446,-9.368795820256448,-7.973618858526487,-16.268900125116645,-7.065984311134779,0.025695735,-1.019223465,-0.100890855,-11.1398,-15.977219999999999,2.01432,72.0
1774821949.975777,0.006971597671508789,2026-03-29T22:05:49.975,2026-03-29T18:05:49.975,-31742.504999999997,-49598.82,-84922.155,-50246.909999999996,-15522.974999999999,-20474.37,4884.345,-54626.13,-2.443435195495802,0.46256430768114065,3.1317041529501997,-1.2222971939965492,-5.471754062278631,-6.151821544559965,-11.548361265297387,-6.717003182664512,0.025695735,-1.019223465,-0.100890855,-11.1398,-15.977219999999999,2.01432,72.0
1774821949.9758046,2.765655517578125e-05,2026-03-29T22:05:49.975,2026-03-29T18:05:49.975,-31738.545,-49597.56,-84929.58,-50256.314999999995,-15526.619999999999,-20473.695,4891.815,-54622.17,1.0687899816284412,4.845984631903842,6.680805481293287,6.3563637736965815,1.1134286699786038,-1.379458476697941,-1.3704202422950535,-3.1214802912687007,0.025695735,-1.019223465,-0.100890855,-11.1398,-15.977219999999999,2.01432,72.0
1774821949.9758325,2.7894973754882812e-05,2026-03-29T22:05:49.975,2026-03-29T18:05:49.975,-31727.34,-49589.595,-84929.84999999999,-50258.25,-15527.16,-20475.27,4891.724999999999,-54612.27,4.178453559211632,7.091016313133695,7.162835429034639,10.976490523736388,7.168071980552695,3.987584513276061,9.289769815815802,1.998753106358706,0.025695735,-1.019223465,-0.100890855,-11.1398,-15.977219999999999,2.01432,72.0
1774821949.9758449,1.239776611328125e-05,2026-03-29T22:05:49.975,2026-03-29T18:05:49.975,-31704.48,-49564.89,-84902.355,-50233.77,-15507.539999999999,-20466.09,4883.535,-54600.57,5.310385557137199,5.964771196751446,4.2384003760151625,10.36201114764027,9.728082754666723,7.339711105796351,15.301139932513282,6.183236283240424,0.025695735,-1.019223465,-0.100890855,-11.1398,-15.977219999999999,2.01432,72.0
1774821949.9805532,0.004708290100097656,2026-03-29T22:05:49.980,2026-03-29T18:05:49.980,-31699.754999999997,-49558.049999999996,-84888.94499999999,-50227.155,-15499.98,-20458.665,4895.415,-54593.729999999996,3.8379608216572314,1.850887720687276,-0.8031531374083106,4.747499766176289,7.5368339371314566,7.085013735317397,13.860837008926257,7.424617531145051,0.025695735,-1.019223465,-0.100890855,-11.1398,-15.977219999999999,2.01432,72.0
1774821949.980585,3.1948089599609375e-05,2026-03-29T22:05:49.980,2026-03-29T18:05:49.980,-31734.675,-49599.585,-84930.075,-50268.915,-15525.314999999999,-20468.295,4906.9349999999995,-54605.115,0.4192060262040093,-3.36970295717831,-5.6181425638738975,-3.2120163739809855,1.6621468856422914,3.406881794863127,5.810714563857556,5.134055519380542,0.025695735,-1.019223465,-0.100890855,-11.1398,-15.977219999999999,2.01432,72.0
1774821949.9846737,0.004088640213012695,2026-03-29T22:05:49.984,2026-03-29T18:05:49.984,-31766.399999999998,-49635.63,-84965.84999999999,-50302.665,-15558.93,-20491.875,4875.705,-54635.67,-3.3041320916260957,-7.189102877485047,-7.906931614934547,-9.707040596859823,-5.026286462881295,-1.853970459566444,-4.836696471463643,0.41478188766379215,0.02941887,-1.025937315,-0.09631323,-10.1479,-15.519419999999998,4.51696,72.0
1774821949.9846966,2.288818359375e-05,2026-03-29T22:05:49.984,2026-03-29T18:05:49.984,-31764.96,-49628.115,-84956.44499999999,-50295.104999999996,-15562.394999999999,-20496.059999999998,4861.485,-54654.525,-5.503893228412019,-7.686682519755976,-6.517778023281076,-11.607213710258119,-9.262689217655122,-6.121990430485717,-12.90213164654494,-4.480503203306213,0.02941887,-1.025937315,-0.09631323,-10.1479,-15.519419999999998,4.51696,72.0
1774821949.9902818,0.005585193634033203,2026-03-29T22:05:49.990,2026-03-29T18:05:49.990,-31744.62,-49601.79,-84928.23,-50262.165,-15529.185,-20470.86,4872.96,-54641.88,-5.06812256786535,-4.495185220119212,-2.0238894168928887,-7.9752158568548674,-8.983701545669557,-7.350865258564567,-14.570358217985811,-7.236468889175428,0.02941887,-1.025937315,-0.09631323,-10.1479,-15.519419999999998,4.51696,72.0
1774821949.990299,1.71661376953125e-05,2026-03-29T22:05:49.990,2026-03-29T18:05:49.990,-31737.015,-49593.42,-84919.095,-50249.159999999996,-15514.83,-20460.149999999998,4889.385,-54626.13,-2.161025016741685,0.9676831852631295,3.5146081955032016,-0.526092982859239,-4.334984526530334,-5.007019467974439,-9.205537855014693,-6.576548667159644,0.02941887,-1.025937315,-0.09631323,-10.1479,-15.519419999999998,4.51696,72.0
1774821949.9928632,0.0025641918182373047,2026-03-29T22:05:49.992,2026-03-29T18:05:49.992,-31734.315,-49587.39,-84909.69,-50241.24,-15509.025,-20456.235,4909.139999999999,-54610.2,1.8411929325568634,6.13769079526202,7.504312629488384,7.192282591684853,2.40650267085884,-0.29829251006824076,0.4176968230622534,-2.852070929355541,0.02941887,-1.025937315,-0.09631323,-10.1479,-15.519419999999998,4.51696,72.0
1774821949.9928813,1.811981201171875e-05,2026-03-29T22:05:49.992,2026-03-29T18:05:49.992,-31745.295,-49601.744999999995,-84928.995,-50260.5,-15527.025,-20473.29,4905.675,-54608.22,5.01209743634164,8.521133176581627,8.04234982974974,11.50194548092311,7.953020596129053,4.448922057400144,9.544700587864876,2.151517548406946,0.02941887,-1.025937315,-0.09631323,-10.1479,-15.519419999999998,4.51696,72.0
1774821949.996954,0.004072666168212891,2026-03-29T22:05:49.996,2026-03-29T18:05:49.996,-31731.75,-49590.99,-84924.81,-50256.314999999995,-15523.064999999999,-20474.91,4892.085,-54606.509999999995,5.8117146199327285,6.906917389407178,4.828708897998698,10.3578553675886,9.615849398624109,6.9429318299561436,13.796818396080898,6.082179031150944,0.02941887,-1.025937315,-0.09631323,-10.1479,-15.519419999999998,4.51696,72.0
1774821949.9969733,1.9311904907226562e-05,2026-03-29T22:05:49.996,2026-03-29T18:05:49.996,-31721.489999999998,-49582.755,-84916.34999999999,-50248.619999999995,-15517.26,-20474.37,4878.585,-54604.53,3.8385172789378834,1.9803830395408795,-0.6724630422666571,4.321298170107093,6.613150754761299,6.036868798124864,11.28195052376057,7.135746923323259,0.02941887,-1.025937315,-0.09631323,-10.1479,-15.519419999999998,4.51696,72.0
1774821950.0033183,0.006345033645629883,2026-03-29T22:05:50.003,2026-03-29T18:05:50.003,-31724.145,-49587.119999999995,-84915.18,-50251.59,-15516.72,-20469.96,4894.0199999999995,-54606.915,0.027573449365335827,-3.9718414902298074,-5.9073309285745745,-3.721275522188039,0.4372716197685762,2.2558688224856973,3.4375041382035865,4.885239032177809,0.02941887,-1.025937315,-0.09631323,-10.1479,-15.519419999999998,4.51696,72.0
1774821950.003337,1.8596649169921875e-05,2026-03-29T22:05:50.003,2026-03-29T18:05:50.003,-31744.844999999998,-49609.935,-84932.86499999999,-50274.314999999995,-15534.72,-20481.39,4907.79,-54616.59,-3.80166507871064,-8.136816880629741,-8.428635548706394,-9.95102762696034,-5.891405843520271,-2.5012161168152316,-5.770238333562535,0.4435391361553072,0.02941887,-1.025937315,-0.09631323,-10.1479,-15.519419999999998,4.51696,72.0
1774821950.0033526,1.5735626220703125e-05,2026-03-29T22:05:50.003,2026-03-29T18:05:50.003,-31765.364999999998,-49634.64,-84954.105,-50290.515,-15558.75,-20512.26,4891.41,-54625.049999999996,-5.825280420694277,-8.51859742689333,-7.048662157380611,-11.443693335367016,-9.309492018174412,-5.91901407522996,-11.852252847580406,-4.0959713609761454,0.035217195,-1.02868389,-0.090881115,-5.234179999999999,-12.55898,8.49982,72.0
1774821950.0033586,5.9604644775390625e-06,2026-03-29T22:05:50.003,2026-03-29T18:05:50.003,-31755.239999999998,-49615.875,-84935.34,-50275.215,-15554.744999999999,-20518.38,4875.66,-54623.655,-5.0919980902310185,-4.902124337284882,-2.4017378100250775,-7.550618891189222,-8.200985776761708,-6.39778081594345,-11.992960399782195,-6.6557442167731855,0.035217195,-1.02868389,-0.090881115,-5.234179999999999,-12.55898,8.49982,72.0
1774821950.0089827,0.005624055862426758,2026-03-29T22:05:50.008,2026-03-29T18:05:50.008,-31748.309999999998,-49596.479999999996,-84921.165,-50267.744999999995,-15551.189999999999,-20514.825,4863.195,-54627.795,-1.9719443838682236,1.0311078505702354,3.351531285819415,-0.1777825912880394,-3.16436505863187,-3.804433680533515,-6.358162645764738,-6.128747209318464,0.035217195,-1.02868389,-0.090881115,-5.234179999999999,-12.55898,8.49982,72.0
1774821950.0090027,2.002716064453125e-05,2026-03-29T22:05:50.009,2026-03-29T18:05:50.009,-31746.375,-49597.875,-84936.375,-50280.345,-15553.484999999999,-20507.175,4880.565,-54634.5,2.035363358387391,6.495959074017991,7.538530920982157,7.155797515360255,3.309514087295254,0.511389905829595,2.09509591050959,-2.8512778095168434,0.035217195,-1.02868389,-0.090881115,-5.234179999999999,-12.55898,8.49982,72.0
1774821950.0132196,0.004216909408569336,2026-03-29T22:05:50.013,2026-03-29T18:05:50.013,-31741.92,-49596.93,-84934.125,-50271.795,-15537.375,-20483.145,4908.195,-54626.985,5.032195605599326,8.926170962743859,8.226952449832122,11.011700002175552,8.07632170500965,4.420474854357274,9.162659061539335,1.6043619649667549,0.035217195,-1.02868389,-0.090881115,-5.234179999999999,-12.55898,8.49982,72.0
1774821950.013241,2.1457672119140625e-05,2026-03-29T22:05:50.013,2026-03-29T18:05:50.013,-31740.57,-49599.405,-84934.305,-50266.53,-15526.845,-20470.364999999998,4887.2699999999995,-54627.975,5.631818124431523,7.191659909864447,5.123489411707522,9.656594432355849,8.874960227037473,6.070016063163416,11.488008266281783,5.192756780208365,0.035217195,-1.02868389,-0.090881115,-5.234179999999999,-12.55898,8.49982,72.0
1774821950.0168178,0.0035767555236816406,2026-03-29T22:05:50.016,2026-03-29T18:05:50.016,-31736.43,-49596.255,-84931.69499999999,-50262.84,-15523.244999999999,-20468.925,4869.675,-54626.715,3.6054298945732057,2.1276709991780827,-0.30221305806260057,3.8445907986350796,5.406854295525447,4.766308473404246,8.161816374695915,6.339810264655476,0.035217195,-1.02868389,-0.090881115,-5.234179999999999,-12.55898,8.49982,72.0
1774821950.0168521,3.4332275390625e-05,2026-03-29T22:05:50.016,2026-03-29T18:05:50.016,-31739.489999999998,-49600.034999999996,-84935.205,-50269.455,-15529.5,-20467.934999999998,4881.554999999999,-54625.545,-0.0373025441781544,-3.87355700675014,-5.520169103491306,-3.597094439589473,-0.5605865160392349,1.261447337139134,1.0612791131973336,4.63033689942167,0.035217195,-1.02868389,-0.090881115,-5.234179999999999,-12.55898,8.49982,72.0
1774821950.0214138,0.004561662673950195,2026-03-29T22:05:50.021,2026-03-29T18:05:50.021,-31745.385,-49604.445,-84934.665,-50264.145,-15521.805,-20457.27,4896.495,-54624.329999999994,-3.5580692893653607,-8.006220003458317,-8.13036811354683,-9.153932727049554,-6.097373527237563,-2.671725839706966,-6.187755015668852,0.9405165685699486,0.035217195,-1.02868389,-0.090881115,-5.234179999999999,-12.55898,8.49982,72.0
1774821950.021438,2.4080276489257812e-05,2026-03-29T22:05:50.021,2026-03-29T18:05:50.021,-31744.8,-49603.994999999995,-84935.97,-50272.604999999996,-15535.529999999999,-20477.43,4886.73,-54622.079999999994,-5.329829107125463,-8.376882881588134,-6.975991200300222,-10.297698444960787,-8.558642523736188,-5.140030785006486,-10.060473094225053,-3.014939878819794,0.035217195,-1.02868389,-0.090881115,-5.234179999999999,-12.55898,8.49982,72.0
1774821950.0249078,0.0034699440002441406,2026-03-29T22:05:50.024,2026-03-29T18:05:50.024,-31739.67,-49599.27,-84933.36,-50270.805,-15539.31,-20487.87,4863.285,-54622.439999999995,-4.596365591454456,-4.879936353736086,-2.6589251635791573,-6.644930345059876,-6.8575362800547905,-5.046969557810892,-8.851496898392027,-5.485361747633784,0.039245505,-1.0278294000000001,-0.08374002,0.56462,-12.63528,13.32198,72.0
1774821950.0249295,2.1696090698242188e-05,2026-03-29T22:05:50.024,2026-03-29T18:05:50.024,-31733.145,-49591.799999999996,-84925.215,-50259.465,-15529.23,-20482.29,4860.945,-54627.84,-1.793487407046016,0.7857362114559647,2.773428266774832,-0.06579630151683899,-1.9464278968528914,-2.579585889605643,-3.4219591177293736,-5.45829408152757,0.039245505,-1.0278294000000001,-0.08374002,0.56462,-12.63528,13.32198,72.0
1774821950.0292635,0.004333972930908203,2026-03-29T22:05:50.029,2026-03-29T18:05:50.029,-31734.449999999997,-49587.84,-84918.645,-50248.665,-15516.135,-20467.53,4891.365,-54638.189999999995,1.7034296869114816,5.950520606893736,6.807359692360373,6.274392510469722,3.707231266039266,0.9507927451572095,3.3498964164862697,-3.0637864915198905,0.039245505,-1.0278294000000001,-0.08374002,0.56462,-12.63528,13.32198,72.0
1774821950.0292747,1.1205673217773438e-05,2026-03-29T22:05:50.029,2026-03-29T18:05:50.029,-31740.39,-49589.28,-84917.79,-50245.695,-15511.185,-20459.34,4915.17,-54641.88,4.261914560414749,8.245268744384399,7.636083460264428,9.44956239883868,7.365784255587128,3.803421253623454,8.084508997740784,0.5461254709441421,0.039245505,-1.0278294000000001,-0.08374002,0.56462,-12.63528,13.32198,72.0
1774821950.0335295,0.004254817962646484,2026-03-29T22:05:50.033,2026-03-29T18:05:50.033,-31740.84,-49591.89,-84920.58,-50247.494999999995,-15512.939999999999,-20465.64,4918.635,-54633.375,4.762959008301205,6.698597385287171,4.974839628832709,8.134508246719129,7.356908082251427,4.671476163148828,8.588914763057723,3.755787342484466,0.039245505,-1.0278294000000001,-0.08374002,0.56462,-12.63528,13.32198,72.0
1774821950.033558,2.8371810913085938e-05,2026-03-29T22:05:50.033,2026-03-29T18:05:50.033,-31750.515,-49608.314999999995,-84939.84,-50271.705,-15539.355,-20495.07,4899.195,-54628.2,3.092174927934295,2.1473334398207404,0.14747602492144787,3.155268173580364,3.8440384150218314,3.283576044876569,4.872925695078136,5.209746099232956,0.039245505,-1.0278294000000001,-0.08374002,0.56462,-12.63528,13.32198,72.0
1774821950.0367827,0.0032248497009277344,2026-03-29T22:05:50.036,2026-03-29T18:05:50.036,-31747.995,-49605.57,-84940.47,-50280.345,-15552.045,-20506.725,4863.51,-54636.93,0.13542446720433077,-3.2125719282077903,-4.574594513783463,-2.9985979770767957,-1.325977973743137,0.4654040866867893,-0.9774831825406433,4.377820648556682,0.039245505,-1.0278294000000001,-0.08374002,0.56462,-12.63528,13.32198,72.0
1774821950.0368228,4.00543212890625e-05,2026-03-29T22:05:50.036,2026-03-29T18:05:50.036,-31729.59,-49582.755,-84919.86,-50263.02,-15539.13,-20494.665,4842.179999999999,-54639.99,-2.6906247561848042,-6.894989582402797,-7.049898276128837,-7.422577056740169,-5.590249525057313,-2.3353671081599625,-5.949406429278433,1.7303674079952234,0.039245505,-1.0278294000000001,-0.08374002,0.56462,-12.63528,13.32198,72.0
1774821950.0407443,0.0039215087890625,2026-03-29T22:05:50.040,2026-03-29T18:05:50.040,-31724.414999999997,-49577.265,-84913.875,-50249.97,-15520.904999999999,-20469.735,4860.585,-54645.165,-4.12440294516621,-7.287837856187396,-6.245818110852078,-8.17897197606088,-6.9471616080433565,-3.7937306517229525,-7.650290354235314,-1.5224507347325853,0.039245505,-1.0278294000000001,-0.08374002,0.56462,-12.63528,13.32198,72.0
1774821950.040761,1.6689300537109375e-05,2026-03-29T22:05:50.040,2026-03-29T18:05:50.040,-31725.539999999997,-49576.409999999996,-84907.08,-50242.275,-15506.144999999999,-20443.725,4904.955,-54642.15,-3.626600249025151,-4.362437213858492,-2.6679268070193323,-5.149913581781452,-4.904256781941437,-3.338273298577631,-5.460306880626657,-3.9849497658021886,0.039245505,-1.0278294000000001,-0.08374002,0.56462,-12.63528,13.32198,72.0
1774821950.044762,0.00400090217590332,2026-03-29T22:05:50.044,2026-03-29T18:05:50.044,-31745.699999999997,-49589.64,-84919.41,-50267.744999999995,-15535.755,-20466.809999999998,4906.349999999999,-54655.47,-1.571954630190211,0.3855507110139925,1.9378531770275182,0.01559202774527782,-0.6441700321515506,-1.3662572340465655,-0.7342646989994939,-4.669639354436431,0.044128305,-1.0299045900000001,-0.083190705,5.5699,-7.553699999999999,15.73306,72.0
1774821950.0447783,1.6450881958007812e-05,2026-03-29T22:05:50.044,2026-03-29T18:05:50.044,-31745.699999999997,-49593.6,-84926.87999999999,-50268.42,-15537.015,-20480.399999999998,4890.42,-54657.72,0.9956206372885488,4.701443891358555,5.441556396100569,4.78559881533037,3.639389610309948,1.0327095724946505,3.997000447977674,-3.3810326741749472,0.044128305,-1.0299045900000001,-0.083190705,5.5699,-7.553699999999999,15.73306,72.0
1774821950.0485716,0.0037932395935058594,2026-03-29T22:05:50.048,2026-03-29T18:05:50.048,-31730.039999999997,-49580.775,-84913.875,-50241.555,-15512.039999999999,-20470.32,4898.5199999999995,-54643.77,2.895482178032385,6.651101878625028,6.322088609156274,6.991696408414773,5.870482689809759,2.6702996859684784,6.369435414780444,-0.7477195038312198,0.044128305,-1.0299045900000001,-0.083190705,5.5699,-7.553699999999999,15.73306,72.0
1774821950.0485969,2.5272369384765625e-05,2026-03-29T22:05:50.048,2026-03-29T18:05:50.048,-31735.17,-49590.0,-84926.16,-50244.39,-15517.08,-20475.719999999998,4904.099999999999,-54643.994999999995,3.3578882479846683,5.493891392543775,4.330382486800426,5.822249644449963,5.104161237526297,2.8504598280342663,5.365310301177039,2.083756592839352,0.044128305,-1.0299045900000001,-0.083190705,5.5699,-7.553699999999999,15.73306,72.0
1774821950.0527132,0.0041162967681884766,2026-03-29T22:05:50.052,2026-03-29T18:05:50.052,-31742.37,-49595.085,-84928.41,-50247.54,-15521.085,-20470.545,4913.1449999999995,-54649.215,2.3307949395727316,1.9524093590218248,0.5325140894898737,2.1043413415172814,1.9265627486575627,1.663002466774033,1.741618606362621,3.9444893836894224,0.044128305,-1.0299045900000001,-0.083190705,5.5699,-7.553699999999999,15.73306,72.0
1774821950.0527284,1.52587890625e-05,2026-03-29T22:05:50.052,2026-03-29T18:05:50.052,-31747.545,-49602.825,-84931.605,-50261.354999999996,-15536.88,-20482.155,4908.825,-54650.204999999994,0.42667856159288375,-2.2121771448390364,-3.253890135572516,-2.2134090648534874,-1.9271622570220968,-0.14249781698055203,-2.468183309931853,4.11637678905647,0.044128305,-1.0299045900000001,-0.083190705,5.5699,-7.553699999999999,15.73306,72.0
1774821950.057,0.004271507263183594,2026-03-29T22:05:50.056,2026-03-29T18:05:50.056,-31750.289999999997,-49608.18,-84939.435,-50264.189999999995,-15536.925,-20482.11,4896.585,-54652.409999999996,-1.42855634458643,-5.078507525224962,-5.334750888674436,-5.073866452525421,-4.506561890509872,-1.602380132047727,-5.073218048658495,2.5969380343406288,0.044128305,-1.0299045900000001,-0.083190705,5.5699,-7.553699999999999,15.73306,72.0
1774821950.0570164,1.6450881958007812e-05,2026-03-29T22:05:50.057,2026-03-29T18:05:50.057,-31748.355,-49606.11,-84938.48999999999,-50258.475,-15532.019999999999,-20483.954999999998,4889.34,-54653.805,-2.4484702719729516,-5.457881176494749,-4.902611443425799,-5.296946707354551,-4.63414925805722,-2.0487977910191266,-4.857802439596936,0.0654833455124577,0.044128305,-1.0299045900000001,-0.083190705,5.5699,-7.553699999999999,15.73306,72.0
1774821950.0612066,0.004190206527709961,2026-03-29T22:05:50.061,2026-03-29T18:05:50.061,-31742.594999999998,-49600.35,-84934.035,-50256.27,-15531.93,-20485.395,4896.179999999999,-54653.04,-2.318214728815008,-3.3839426728680326,-2.3417595900946533,-3.0633946300060884,-2.447112631877179,-1.4159830414889598,-2.145163361469213,-2.4178367637634772,0.044128305,-1.0299045900000001,-0.083190705,5.5699,-7.553699999999999,15.73306,72.0
1774821950.0612285,2.193450927734375e-05,2026-03-29T22:05:50.061,2026-03-29T18:05:50.061,-31738.545,-49593.375,-84925.53,-50250.375,-15526.8,-20483.594999999998,4898.61,-54654.03,-1.2666407643312487,0.00034632483562010573,1.0351754843780652,0.299471849157495,0.7584387293688561,-0.2023596598866946,1.4671564961576535,-3.8485214333565834,0.044128305,-1.0299045900000001,-0.083190705,5.5699,-7.553699999999999,15.73306,72.0
1774821950.0646896,0.003461122512817383,2026-03-29T22:05:50.064,2026-03-29T18:05:50.064,-31731.93,-49585.005,-84916.935,-50243.13,-15517.89,-20479.995,4901.535,-54654.165,0.11987789925330185,3.0599767952923296,3.657092539139006,3.06992506872221,3.2645067532531638,0.8603090557246097,4.018271738505738,-3.674546592990202,0.05029284,-1.02856182,-0.08557107,13.291459999999999,-2.8383599999999998,16.99964,72.0
1774821950.0647051,1.5497207641601562e-05,2026-03-29T22:05:50.064,2026-03-29T18:05:50.064,-31733.414999999997,-49585.365,-84917.97,-50245.604999999996,-15520.32,-20482.785,4903.335,-54658.53,1.2170375160351659,4.460714467774243,4.430124097471493,4.008376157637185,3.8414050129675066,1.228335421502213,4.233121997641261,-2.0022846268225862,0.05029284,-1.02856182,-0.08557107,13.291459999999999,-2.8383599999999998,16.99964,72.0
1774821950.070172,0.005466938018798828,2026-03-29T22:05:50.070,2026-03-29T18:05:50.070,-31732.559999999998,-49583.564999999995,-84917.745,-50248.439999999995,-15523.605,-20477.204999999998,4899.465,-54662.67,1.6442866587088716,3.7518364903653185,3.1926922386553356,2.91411371731143,2.3530172126521878,0.8225844237749542,2.1544891686389174,0.4614085043652454,0.05029284,-1.02856182,-0.08557107,13.291459999999999,-2.8383599999999998,16.99964,72.0
1774821950.0701995,2.7418136596679688e-05,2026-03-29T22:05:50.070,2026-03-29T18:05:50.070,-31731.93,-49579.74,-84914.055,-50246.82,-15523.38,-20471.895,4886.19,-54671.354999999996,1.3815226779066396,1.4842586411964631,0.7015640733528845,0.611607466983104,-0.24146763055930756,0.020278360842548103,-0.9530755309811589,2.701917722720948,0.05029284,-1.02856182,-0.08557107,13.291459999999999,-2.8383599999999998,16.99964,72.0
1774821950.0734231,0.0032236576080322266,2026-03-29T22:05:50.073,2026-03-29T18:05:50.073,-31736.295,-49586.895,-84920.44499999999,-50250.689999999995,-15523.92,-20469.285,4885.65,-54674.549999999996,0.6951458693876716,-1.14840565430167,-1.8039852488013643,-1.577770189410425,-2.4608602280927827,-0.6116544357082592,-3.3420328791075584,3.8068964456413514,0.05029284,-1.02856182,-0.08557107,13.291459999999999,-2.8383599999999998,16.99964,72.0
1774821950.0734549,3.170967102050781e-05,2026-03-29T22:05:50.073,2026-03-29T18:05:50.073,-31744.62,-49599.854999999996,-84934.305,-50263.695,-15535.035,-20478.465,4890.78,-54675.18,-0.0527007221841286,-2.9305516203699744,-3.218023187071564,-2.5655214386890606,-3.122216806302284,-0.6730423170880747,-3.743104786405675,3.3324618119806577,0.05029284,-1.02856182,-0.08557107,13.291459999999999,-2.8383599999999998,16.99964,72.0
1774821950.078369,0.004914045333862305,2026-03-29T22:05:50.078,2026-03-29T18:05:50.078,-31741.92,-49596.84,-84931.605,-50261.445,-15531.074999999999,-20476.755,4896.585,-54676.395,-0.5916802998508247,-3.187211063915025,-3.0581452623490963,-2.0343650513435314,-1.9629758578024505,-0.16615621055411947,-2.028519574475229,1.481406685216259,0.05029284,-1.02856182,-0.08557107,13.291459999999999,-2.8383599999999998,16.99964,72.0
1774821950.0783892,2.0265579223632812e-05,2026-03-29T22:05:50.078,2026-03-29T18:05:50.078,-31738.5,-49590.945,-84924.405,-50254.604999999996,-15522.615,-20467.575,4895.6849999999995,-54680.895,-0.831997434026619,-2.027882865879216,-1.612060145518198,-0.5202115884408041,0.25895902707531804,0.5221871399563703,0.7648926173487394,-0.9785191607732627,0.05029284,-1.02856182,-0.08557107,13.291459999999999,-2.8383599999999998,16.99964,72.0
1774821950.081391,0.0030019283294677734,2026-03-29T22:05:50.081,2026-03-29T18:05:50.081,-31744.44,-49587.795,-84918.42,-50250.96,-15522.119999999999,-20470.094999999998,4893.21,-54696.735,-0.8311899219252112,-0.19078364195155137,0.2925466572510515,0.9693846671159803,2.222623995065577,0.8744968563473131,3.0418747750400215,-3.0264940357454106,0.05029284,-1.02856182,-0.08557107,13.291459999999999,-2.8383599999999998,16.99964,72.0
1774821950.0814133,2.2172927856445312e-05,2026-03-29T22:05:50.081,2026-03-29T18:05:50.081,-31750.065,-49591.619999999995,-84918.105,-50250.104999999996,-15523.154999999999,-20472.165,4891.365,-54696.42,-0.6899669262711785,1.3912747261041738,1.7438343436284685,1.561276455726251,2.7950656935575604,0.5777650277323471,3.537890850866119,-3.807881625241532,0.05029284,-1.02856182,-0.08557107,13.291459999999999,-2.8383599999999998,16.99964,72.0
1774821950.0850737,0.003660440444946289,2026-03-29T22:05:50.085,2026-03-29T18:05:50.085,-31751.145,-49595.22,-84924.135,-50253.39,-15523.65,-20474.73,4883.13,-54701.235,-0.4613491891503908,2.0596080281421485,2.1827150547546594,1.002331439800984,1.660907841316964,-0.26162260961610023,2.004099618524727,-2.9910142312312282,0.054626325,-1.0266087,-0.08850075,19.4565,3.26564,16.67918,72.0
1774821950.0850985,2.47955322265625e-05,2026-03-29T22:05:50.085,2026-03-29T18:05:50.085,-31748.309999999998,-49593.915,-84925.8,-50253.525,-15524.324999999999,-20475.855,4881.96,-54703.53,-0.13467739291506278,1.6995407998739538,1.61155565470368,-0.23653023777783708,-0.5109119321391903,-1.1556306956576146,-0.6762845083358924,-0.9121387201906427,0.054626325,-1.0266087,-0.08850075,19.4565,3.26564,16.67918,72.0
1774821950.0902743,0.00517582893371582,2026-03-29T22:05:50.090,2026-03-29T18:05:50.090,-31741.559999999998,-49588.424999999996,-84921.97499999999,-50249.97,-15522.255,-20473.785,4890.42,-54698.759999999995,0.3037238280991619,0.7036947911981387,0.5008337066592347,-1.2779788470105409,-2.4487832594118406,-1.5114004921335376,-2.990672598767345,1.5574177110291187,0.054626325,-1.0266087,-0.08850075,19.4565,3.26564,16.67918,72.0
1774821950.0902936,1.9311904907226562e-05,2026-03-29T22:05:50.090,2026-03-29T18:05:50.090,-31735.98,-49585.365,-84922.02,-50252.805,-15525.045,-20475.54,4905.495,-54688.5,0.788500155426891,-0.31215608945205425,-0.5210455542190129,-1.3829263900769848,-2.995344911664915,-0.9928191403839084,-3.635565680482063,3.3728819508609416,0.054626325,-1.0266087,-0.08850075,19.4565,3.26564,16.67918,72.0
1774821950.093967,0.0036733150482177734,2026-03-29T22:05:50.093,2026-03-29T18:05:50.093,-31739.625,-49589.909999999996,-84924.18,-50254.515,-15526.394999999999,-20477.655,4907.115,-54691.064999999995,1.1450827758196145,-0.8621330218932053,-1.0093667736108294,-0.4059733548051283,-1.7651972523156454,0.24329732462413298,-2.2321176508152147,3.7583512834646977,0.054626325,-1.0266087,-0.08850075,19.4565,3.26564,16.67918,72.0
1774821950.093991,2.4080276489257812e-05,2026-03-29T22:05:50.093,2026-03-29T18:05:50.093,-31745.925,-49595.85,-84924.72,-50254.604999999996,-15528.51,-20481.48,4895.595,-54706.59,1.1520167332284497,-0.8187915206597552,-0.8954990871862358,1.099655233587603,0.6189517523906813,1.5839363565594555,0.4668993134151895,2.542103404939167,0.054626325,-1.0266087,-0.08850075,19.4565,3.26564,16.67918,72.0
1774821950.0974028,0.0034117698669433594,2026-03-29T22:05:50.097,2026-03-29T18:05:50.097,-31742.28,-49590.72,-84921.795,-50251.14,-15525.9,-20481.48,4887.72,-54722.115,0.6732144040767066,-0.41165482811728393,-0.4477835764386698,2.1904037947139807,2.8463802434939844,2.2679525613821525,2.986352608193478,0.23765339546541184,0.054626325,-1.0266087,-0.08850075,19.4565,3.26564,16.67918,72.0
1774821950.0974393,3.647804260253906e-05,2026-03-29T22:05:50.097,2026-03-29T18:05:50.097,-31739.265,-49587.03,-84920.22,-50248.08,-15522.435,-20480.67,4886.505,-54729.405,-0.21697923667115898,-0.025784401462886394,-0.05153116360055038,2.0839747671012687,3.6281244463117432,1.8089092793996357,3.929942910664651,-2.1701757890224713,0.054626325,-1.0266087,-0.08850075,19.4565,3.26564,16.67918,72.0
1774821950.1067147,0.009275436401367188,2026-03-29T22:05:50.106,2026-03-29T18:05:50.106,-31739.175,-49588.47,-84922.73999999999,-50251.994999999995,-15528.06,-20489.219999999998,4883.985,-54737.415,-1.2032902270714432,0.06247106475388904,0.04697516805764231,0.6445584555793971,2.416112280097187,0.3014678854902607,2.7405483539832596,-3.6467190596988726,0.054626325,-1.0266087,-0.08850075,19.4565,3.26564,16.67918,72.0
1774821950.1067352,2.0503997802734375e-05,2026-03-29T22:05:50.106,2026-03-29T18:05:50.106,-31739.625,-49589.415,-84923.01,-50253.75,-15531.57,-20498.76,4882.86,-54746.189999999995,-1.8365557481631876,-0.14765949059233016,-0.1200291409608031,-1.4782501223050246,-0.260159741030219,-1.5696283068019632,0.011106029372766278,-3.5556143409866405,0.054626325,-1.0266087,-0.08850075,19.4565,3.26564,16.67918,72.0
1774821950.1067555,2.0265579223632812e-05,2026-03-29T22:05:50.106,2026-03-29T18:05:50.106,-31744.934999999998,-49593.465,-84925.305,-50254.155,-15532.47,-20498.715,4876.605,-54759.78,-1.7440312954185198,-0.4041991759950644,-0.29336366537981357,-3.1523103698255373,-3.0326691712008502,-2.845937601877203,-2.821052909351573,-1.9373265805715556,0.060729825,-1.02441144,-0.09191871,28.70406,10.78882,15.47364,72.0
1774821950.1067653,9.775161743164062e-06,2026-03-29T22:05:50.106,2026-03-29T18:05:50.106,-31746.824999999997,-49596.615,-84927.825,-50255.46,-15531.345,-20486.07,4866.03,-54770.534999999996,-0.8415325898754475,-0.39107173036704407,-0.18792713699685074,-3.361651293036988,-4.39781282550968,-2.78832842144851,-4.234607700986146,0.5063960343386443,0.060729825,-1.02441144,-0.09191871,28.70406,10.78882,15.47364,72.0
1774821950.1087313,0.0019659996032714844,2026-03-29T22:05:50.108,2026-03-29T18:05:50.108,-31744.664999999997,-49595.265,-84923.64,-50251.545,-15527.789999999999,-20478.87,4857.4349999999995,-54779.13,0.5708101923270049,0.03886610519143884,0.28655221424016636,-1.7862212262638708,-3.520540286239125,-1.2923067583347772,-3.4360187258808152,2.7176766494540323,0.060729825,-1.02441144,-0.09191871,28.70406,10.78882,15.47364,72.0
1774821950.1087549,2.3603439331054688e-05,2026-03-29T22:05:50.108,2026-03-29T18:05:50.108,-31742.28,-49592.79,-84921.12,-50246.64,-15521.715,-20477.34,4860.945,-54792.18,1.8992195802609864,0.7327637880015496,0.9259735537053939,0.9561496264951163,-0.7138403326922578,1.0028054286297976,-0.7919924599663304,3.744052318562843,0.060729825,-1.02441144,-0.09191871,28.70406,10.78882,15.47364,72.0
1774821950.117792,0.009037017822265625,2026-03-29T22:05:50.117,2026-03-29T18:05:50.117,-31733.19,-49584.24,-84917.295,-50247.27,-15522.21,-20482.605,4895.1449999999995,-54795.329999999994,2.51100033056018,1.2949660139056753,1.323390203748538,3.557220642059142,2.6714684176469716,2.9897649699810542,2.3479839733716843,3.1529089699462345,0.060729825,-1.02441144,-0.09191871,28.70406,10.78882,15.47364,72.0
1774821950.1178105,1.8596649169921875e-05,2026-03-29T22:05:50.117,2026-03-29T18:05:50.117,-31737.69,-49588.56,-84923.55,-50253.21,-15527.925,-20485.395,4913.595,-54810.18,2.0410805674094328,1.3084519262733239,1.1083837111955748,4.652685412961028,4.907987797328772,3.633908476828582,4.348681405411762,1.2159982692882765,0.060729825,-1.02441144,-0.09191871,28.70406,10.78882,15.47364,72.0
1774821950.117898,8.749961853027344e-05,2026-03-29T22:05:50.117,2026-03-29T18:05:50.117,-31739.94,-49591.53,-84926.565,-50251.455,-15520.859999999999,-20473.38,4909.86,-54822.915,0.5993380025998847,0.5980964320514949,0.1995413992303402,3.5312013128051456,4.775499854750042,2.5117465954584905,4.142431666561482,-1.2160251979507568,0.060729825,-1.02441144,-0.09191871,28.70406,10.78882,15.47364,72.0
1774821950.1179116,1.3589859008789062e-05,2026-03-29T22:05:50.117,2026-03-29T18:05:50.117,-31738.004999999997,-49590.854999999996,-84924.98999999999,-50249.07,-15517.439999999999,-20470.005,4907.61,-54830.79,-1.2355084179798563,-0.6179778308253965,-1.082394791344442,0.5519542309868044,2.2141187161800326,0.06761247006403459,1.793062964328063,-3.0908208587214356,0.060729825,-1.02441144,-0.09191871,28.70406,10.78882,15.47364,72.0
1774821950.1225245,0.004612922668457031,2026-03-29T22:05:50.122,2026-03-29T18:05:50.122,-31735.664999999997,-49585.68,-84915.495,-50250.06,-15530.715,-20481.524999999998,4888.575,-54853.244999999995,-2.6511674052585095,-1.7881805147742849,-2.1244903536521917,-2.961093292542681,-1.598142391164346,-2.559850716511131,-1.5247628355734961,-3.6140276658677037,0.060729825,-1.02441144,-0.09191871,28.70406,10.78882,15.47364,72.0
1774821950.1225402,1.5735626220703125e-05,2026-03-29T22:05:50.122,2026-03-29T18:05:50.122,-31742.73,-49589.235,-84919.77,-50255.28,-15538.68,-20488.59,4890.195,-54879.119999999995,-2.968512493179115,-2.28512191166147,-2.3180232403201573,-5.321480587247762,-4.799763719219442,-4.074851885927178,-4.12229026243585,-2.5881152333716884,0.060729825,-1.02441144,-0.09191871,28.70406,10.78882,15.47364,72.0
1774821950.1252081,0.0026679039001464844,2026-03-29T22:05:50.125,2026-03-29T18:05:50.125,-31747.004999999997,-49595.13,-84930.39,-50261.22,-15541.154999999999,-20494.44,4891.86,-54897.075,-1.9705393139442209,-1.7370956543400817,-1.3962889592519494,-5.298342531315288,-5.765382097802771,-3.6688928082520005,-4.662334271653985,-0.48448115704671524,0.06884748,-1.01696517,-0.090514905,32.519059999999996,18.73928,11.0635,72.0
1774821950.1252315,2.3365020751953125e-05,2026-03-29T22:05:50.125,2026-03-29T18:05:50.125,-31740.524999999998,-49590.045,-84923.325,-50254.515,-15534.045,-20487.645,4892.58,-54908.055,-0.032683442004443765,-0.2599731539312571,0.3677932447702457,-2.7496810906350344,-3.931849292386446,-1.4499082330630981,-2.847850373232955,1.7761477374280958,0.06884748,-1.01696517,-0.090514905,32.519059999999996,18.73928,11.0635,72.0
1774821950.1290717,0.003840208053588867,2026-03-29T22:05:50.129,2026-03-29T18:05:50.129,-31742.145,-49592.159999999996,-84924.045,-50250.195,-15525.72,-20477.52,4901.22,-54927.314999999995,2.0185993152178274,1.5431346853958905,2.226833089626605,1.2518779712501649,-0.11048303247726159,1.570442679477901,0.4208464683677701,3.2311352571641154,0.06884748,-1.01696517,-0.090514905,32.519059999999996,18.73928,11.0635,72.0
1774821950.1290946,2.288818359375e-05,2026-03-29T22:05:50.129,2026-03-29T18:05:50.129,-31746.42,-49593.195,-84921.56999999999,-50240.79,-15517.98,-20474.73,4897.26,-54956.43,3.2650194378782,2.8342427154205123,3.2806305685085935,4.8823043170930545,3.882114237150012,3.9428912625529855,3.500767010076801,3.2884578882781823,0.06884748,-1.01696517,-0.090514905,32.519059999999996,18.73928,11.0635,72.0
1774821950.133108,0.0040132999420166016,2026-03-29T22:05:50.133,2026-03-29T18:05:50.133,-31745.114999999998,-49590.72,-84921.56999999999,-50238.27,-15517.125,-20484.989999999998,4883.58,-54976.905,3.1136582230960737,2.9356038127744877,2.9130958936214255,6.412088473905858,6.101718838229793,4.483107928590485,4.839649509261603,1.966045842397094,0.06884748,-1.01696517,-0.090514905,32.519059999999996,18.73928,11.0635,72.0
1774821950.1331308,2.288818359375e-05,2026-03-29T22:05:50.133,2026-03-29T18:05:50.133,-31738.905,-49584.195,-84920.12999999999,-50237.055,-15515.64,-20492.19,4885.155,-54990.854999999996,1.5796277478276937,1.6786113616783935,1.131729356388045,5.035880674187641,5.4324643921326095,2.867178144993598,3.7623018570525084,-0.13799960425872798,0.06884748,-1.01696517,-0.090514905,32.519059999999996,18.73928,11.0635,72.0
1774821950.137545,0.00441431999206543,2026-03-29T22:05:50.137,2026-03-29T18:05:50.137,-31747.86,-49595.805,-84933.9,-50255.055,-15533.505,-20500.965,4867.11,-55020.015,-0.7008529717311799,-0.4705479231602751,-1.3705843079999211,1.285351098023992,2.147224535419823,-0.18089654427085125,0.810239080916582,-2.1199067577582604,0.06884748,-1.01696517,-0.090514905,32.519059999999996,18.73928,11.0635,72.0
1774821950.137572,2.6941299438476562e-05,2026-03-29T22:05:50.137,2026-03-29T18:05:50.137,-31755.015,-49602.465,-84938.31,-50260.814999999995,-15534.765,-20491.605,4847.67,-55046.43,-2.739844988248194,-2.5847800316713827,-3.4859516760259517,-3.182283300714876,-2.208722649137236,-3.2154366133378476,-2.5354280344776896,-3.161385236577861,0.06884748,-1.01696517,-0.090514905,32.519059999999996,18.73928,11.0635,72.0
1774821950.1467173,0.009145259857177734,2026-03-29T22:05:50.146,2026-03-29T18:05:50.146,-31736.25,-49584.195,-84923.775,-50258.61,-15532.47,-20479.23,4855.7699999999995,-55047.06,-3.6323076633338816,-3.6831457410614603,-4.187451248162434,-6.331918826130565,-5.558205949238573,-4.761210180795543,-4.603725640726212,-2.8665479949571075,0.06884748,-1.01696517,-0.090514905,32.519059999999996,18.73928,11.0635,72.0
1774821950.146738,2.0742416381835938e-05,2026-03-29T22:05:50.146,2026-03-29T18:05:50.146,-31705.605,-49553.369999999995,-84890.06999999999,-50229.54,-15512.984999999999,-20458.755,4894.155,-55031.445,-2.961366852924352,-3.1887059596424203,-3.0259657854612727,-6.689718313710514,-6.295937412502831,-4.037373367309372,-4.373899550038454,-1.406427094985844,0.06884748,-1.01696517,-0.090514905,32.519059999999996,18.73928,11.0635,72.0
1774821950.1467571,1.9073486328125e-05,2026-03-29T22:05:50.146,2026-03-29T18:05:50.146,-31715.145,-49561.784999999996,-84892.905,-50222.52,-15511.769999999999,-20466.989999999998,4913.28,-55038.24,-0.9911128715957475,-1.2222877657384936,-0.388102193848058,-4.03489516550559,-4.064809481494378,-1.355298899104936,-1.9814736835581752,0.5780481220917717,0.07458477,-1.00378161,-0.091369395,28.307299999999998,24.660159999999998,5.1121,72.0
1774821950.1467645,7.3909759521484375e-06,2026-03-29T22:05:50.146,2026-03-29T18:05:50.146,-31725.18,-49570.515,-84904.73999999999,-50226.795,-15514.244999999999,-20474.954999999998,4882.59,-55074.78,1.4412396801651004,1.413841023980661,2.6240939698937504,0.4813832727290701,0.07353845493218504,2.0135094665000355,1.361131971924726,2.2603090699283244,0.07458477,-1.00378161,-0.091369395,28.307299999999998,24.660159999999998,5.1121,72.0
1774821950.1499789,0.0032143592834472656,2026-03-29T22:05:50.149,2026-03-29T18:05:50.149,-31726.305,-49567.14,-84901.635,-50220.494999999995,-15507.72,-20469.78,4869.2699999999995,-55110.735,3.2872744776483733,3.568445388900604,4.6581974054555895,4.848680703298764,4.154189145376012,4.444369286034483,3.9829874683469013,2.972088173704397,0.07458477,-1.00378161,-0.091369395,28.307299999999998,24.660159999999998,5.1121,72.0
1774821950.1500099,3.0994415283203125e-05,2026-03-29T22:05:50.150,2026-03-29T18:05:50.150,-31729.184999999998,-49567.634999999995,-84902.805,-50223.465,-15505.244999999999,-20463.03,4876.155,-55136.07,3.7436729086908187,4.2491353807962975,4.722444016383553,7.106514890762957,6.255614481567027,4.749744803725486,4.594935194429485,2.4642446029389733,0.07458477,-1.00378161,-0.091369395,28.307299999999998,24.660159999999998,5.1121,72.0
1774821950.173458,0.02344822883605957,2026-03-29T22:05:50.173,2026-03-29T18:05:50.173,-31729.274999999998,-49571.64,-84908.79,-50233.275,-15512.58,-20467.17,4897.26,-55137.284999999996,2.602181361027464,3.0791783560054,2.6649356268350917,6.232299262162212,5.415514602238981,2.765722670532573,2.9273191827988745,0.9854819008361594,0.07458477,-1.00378161,-0.091369395,28.307299999999998,24.660159999999998,5.1121,72.0
1774821950.1734805,2.2411346435546875e-05,2026-03-29T22:05:50.173,2026-03-29T18:05:50.173,-31726.125,-49560.975,-84890.11499999999,-50216.445,-15499.439999999999,-20453.265,4910.355,-55143.99,0.34082228669824477,0.49339397987260963,-0.7087405231573971,2.602447632141317,2.074643313160338,-0.5574965716521637,-0.1515712428699082,-0.840401262431324,0.07458477,-1.00378161,-0.091369395,28.307299999999998,24.660159999999998,5.1121,72.0
1774821950.1735299,4.935264587402344e-05,2026-03-29T22:05:50.173,2026-03-29T18:05:50.173,-31741.289999999997,-49571.1,-84890.87999999999,-50212.845,-15495.525,-20446.695,4928.3099999999995,-55158.704999999994,-2.0815493910810967,-2.4241989020933925,-3.9517846961418885,-2.1799775784486415,-2.1572316086363346,-3.61166538314273,-3.0877340560557625,-2.277688751613379,0.07458477,-1.00378161,-0.091369395,28.307299999999998,24.660159999999998,5.1121,72.0
1774821950.1735413,1.1444091796875e-05,2026-03-29T22:05:50.173,2026-03-29T18:05:50.173,-31763.295,-49601.295,-84926.295,-50242.994999999995,-15523.244999999999,-20472.21,4925.16,-55176.119999999995,-3.6361709605189847,-4.399192223535421,-5.601277695961971,-6.00697141871028,-5.287884100687619,-4.913788379725068,-4.428675457511834,-2.77151288598522,0.07458477,-1.00378161,-0.091369395,28.307299999999998,24.660159999999998,5.1121,72.0
1774821950.173553,1.1682510375976562e-05,2026-03-29T22:05:50.173,2026-03-29T18:05:50.173,-31762.53,-49602.465,-84932.19,-50250.195,-15530.984999999999,-20479.545,4902.75,-55195.155,-3.6625022859979324,-4.525670586582379,-4.839798257683135,-7.205215581783838,-5.892672312022444,-3.833061967568458,-3.545774065682024,-2.156045109486352,0.07458477,-1.00378161,-0.091369395,28.307299999999998,24.660159999999998,5.1121,72.0
1774821950.1735623,9.298324584960938e-06,2026-03-29T22:05:50.173,2026-03-29T18:05:50.173,-31748.895,-49584.555,-84912.61499999999,-50236.65,-15521.58,-20469.375,4907.385,-55202.759999999995,-2.1465998898762884,-2.67933517561695,-1.8937167537393285,-5.270102448058792,-3.7697714734691536,-0.9022878961536018,-0.9312161433162338,-0.7036553636056694,0.07458477,-1.00378161,-0.091369395,28.307299999999998,24.660159999999998,5.1121,72.0
1774821950.1735737,1.1444091796875e-05,2026-03-29T22:05:50.173,2026-03-29T18:05:50.173,-31745.475,-49581.854999999996,-84910.095,-50231.159999999996,-15518.564999999999,-20471.94,4909.679999999999,-55205.505,0.2760672497200568,0.4020882777450099,2.023138435675199,-1.0715186096792555,0.003652332367443135,2.442372664890432,2.071434759913974,0.9953848573448031,0.077575485,-0.99047598,-0.09094215,23.24098,27.30014,-0.6409199999999999,72.0
1774821950.1735823,8.58306884765625e-06,2026-03-29T22:05:50.173,2026-03-29T18:05:50.173,-31733.19,-49569.975,-84896.415,-50216.22,-15507.539999999999,-20464.739999999998,4913.28,-55205.055,2.5907967903210642,3.415489143572235,5.212500956288614,3.548466914649355,3.6220688796430593,4.5671555127751216,3.9573171069447546,2.2698501844494863,0.077575485,-0.99047598,-0.09094215,23.24098,27.30014,-0.6409199999999999,72.0
1774821950.1735933,1.0967254638671875e-05,2026-03-29T22:05:50.173,2026-03-29T18:05:50.173,-31733.774999999998,-49568.58,-84889.98,-50208.345,-15502.275,-20457.135,4910.58,-55214.729999999996,3.8299694188685196,5.045590290120081,6.23135558805896,6.594622390919676,5.4258216714363225,4.444251496961161,3.8167844887885236,2.628042852858349,0.077575485,-0.99047598,-0.09094215,23.24098,27.30014,-0.6409199999999999,72.0
1774821950.173602,8.821487426757812e-06,2026-03-29T22:05:50.173,2026-03-29T18:05:50.173,-31742.19,-49579.74,-84904.92,-50221.215,-15515.64,-20467.62,4902.525,-55234.305,3.475920715606275,4.5391206971642415,4.544719716168096,6.78511718667322,4.6712129727617695,2.1555731494134456,1.7772973337741695,1.9436518927470743,0.077575485,-0.99047598,-0.09094215,23.24098,27.30014,-0.6409199999999999,72.0
1774821950.1736124,1.0251998901367188e-05,2026-03-29T22:05:50.173,2026-03-29T18:05:50.173,-31740.12,-49578.119999999995,-84906.27,-50219.369999999995,-15513.255,-20465.954999999998,4900.815,-55244.97,1.6738524807700756,2.049747630286016,0.7965013855430303,4.0873813747263394,1.8353066689567643,-1.153018829650627,-1.085089974291859,0.498932596855722,0.077575485,-0.99047598,-0.09094215,23.24098,27.30014,-0.6409199999999999,72.0
1774821950.1736214,9.059906005859375e-06,2026-03-29T22:05:50.173,2026-03-29T18:05:50.173,-31739.76,-49576.77,-84910.5,-50223.42,-15516.404999999999,-20476.71,4895.505,-55256.715,-0.830669791896293,-1.4024494247716122,-3.4349462354859375,-0.2982793925544937,-1.6680736964850436,-3.8439034066913806,-3.3094385755014923,-1.1291290477807958,0.077575485,-0.99047598,-0.09094215,23.24098,27.30014,-0.6409199999999999,72.0
1774821950.1768384,0.003216981887817383,2026-03-29T22:05:50.176,2026-03-29T18:05:50.176,-31736.61,-49574.34,-84915.54,-50226.345,-15512.4,-20484.0,4892.535,-55266.165,-3.0010534623658716,-4.349426324978347,-6.304137061863291,-4.48215451675766,-4.197961385829177,-4.601083213182848,-3.795177574159863,-2.295572826760996,0.077575485,-0.99047598,-0.09094215,23.24098,27.30014,-0.6409199999999999,72.0
1774821950.176859,2.0503997802734375e-05,2026-03-29T22:05:50.176,2026-03-29T18:05:50.176,-31743.315,-49581.99,-84921.435,-50247.854999999996,-15523.74,-20493.495,4886.054999999999,-55285.244999999995,-3.937173997752217,-5.499853908799733,-6.505333508854559,-6.7051893681099335,-4.663240951928651,-3.079439477164925,-2.3490620399816953,-2.5404517347794173,0.077575485,-0.99047598,-0.09094215,23.24098,27.30014,-0.6409199999999999,72.0
1774821950.1809635,0.0041046142578125,2026-03-29T22:05:50.180,2026-03-29T18:05:50.180,-31748.265,-49585.229999999996,-84920.04,-50253.705,-15532.74,-20491.92,4890.96,-55304.189999999995,-3.2458992032377907,-4.304556379164817,-3.86561264870712,-6.07730649862124,-2.995475229191132,-0.06701533502931045,0.23883375937800522,-1.7703212392270213,0.077575485,-0.99047598,-0.09094215,23.24098,27.30014,-0.6409199999999999,72.0
1774821950.1809804,1.6927719116210938e-05,2026-03-29T22:05:50.180,2026-03-29T18:05:50.180,-31747.094999999998,-49582.575,-84911.265,-50229.36,-15516.765,-20465.954999999998,4897.71,-55313.055,-1.20400744728255,-1.215831832882888,0.5444686420380287,-2.925416798620488,-0.1119443148114591,2.918368481598159,2.6194084844194307,-0.2963035118144799,0.077575485,-0.99047598,-0.09094215,23.24098,27.30014,-0.6409199999999999,72.0
1774821950.1850893,0.004108905792236328,2026-03-29T22:05:50.185,2026-03-29T18:05:50.185,-31742.73,-49580.28,-84913.11,-50229.585,-15514.74,-20462.805,4904.91,-55311.03,1.3526138370698284,2.4804479599140574,4.8452574574741645,1.3797283627156833,2.581199432788566,4.393437248596138,3.5841285282664246,1.2885993082508647,0.0781248,-0.97753656,-0.086364525,10.3005,25.8657,-5.70724,72.0
1774821950.185142,5.269050598144531e-05,2026-03-29T22:05:50.185,2026-03-29T18:05:50.185,-31744.079999999998,-49580.055,-84912.795,-50229.72,-15514.064999999999,-20464.245,4908.465,-55317.15,3.3691340749860537,5.199405686995535,7.151089660592779,5.0250356877876055,3.8793161665922398,3.6497949428926906,2.6787779586912053,2.3466619160839226,0.0781248,-0.97753656,-0.086364525,10.3005,25.8657,-5.70724,72.0
1774821950.189644,0.004502058029174805,2026-03-29T22:05:50.189,2026-03-29T18:05:50.189,-31743.0,-49579.74,-84913.605,-50225.895,-15510.465,-20464.829999999998,4907.205,-55323.18,4.0042458844210005,5.737034213181434,6.398374062976548,6.518578525882397,3.3221719126784435,1.0990945725936943,0.4197317060863494,2.4531929807137023,0.0781248,-0.97753656,-0.086364525,10.3005,25.8657,-5.70724,72.0
1774821950.189665,2.09808349609375e-05,2026-03-29T22:05:50.189,2026-03-29T18:05:50.189,-31743.809999999998,-49583.205,-84921.25499999999,-50233.634999999995,-15520.545,-20475.63,4897.98,-55332.81,2.9795119231972595,3.804182799206452,2.834827601801711,5.29424078990975,1.3429886724478448,-1.9474751597196047,-1.9912479357113866,1.5699428632598529,0.0781248,-0.97753656,-0.086364525,10.3005,25.8657,-5.70724,72.0
1774821950.1950984,0.005433320999145508,2026-03-29T22:05:50.195,2026-03-29T18:05:50.195,-31739.579999999998,-49576.634999999995,-84911.805,-50229.45,-15519.105,-20474.46,4893.165,-55341.72,0.7017543582355834,0.17781131627559105,-2.0543821090204624,1.916322990913216,-1.0155474573755034,-3.949925075196068,-3.299634247255882,0.06135246129713507,0.0781248,-0.97753656,-0.086364525,10.3005,25.8657,-5.70724,72.0
1774821950.1951387,4.029273986816406e-05,2026-03-29T22:05:50.195,2026-03-29T18:05:50.195,-31743.945,-49580.415,-84916.08,-50227.695,-15513.885,-20468.295,4893.21,-55354.005,-1.8953654346627067,-3.608108889001525,-6.165908590145978,-2.183592086512733,-2.6464059810445093,-3.9184153134057813,-2.84794037758864,-1.4551918651916642,0.0781248,-0.97753656,-0.086364525,10.3005,25.8657,-5.70724,72.0
1774821950.198357,0.003218412399291992,2026-03-29T22:05:50.198,2026-03-29T18:05:50.198,-31746.96,-49584.645,-84922.92,-50228.865,-15513.21,-20466.585,4895.37,-55365.39,-3.730766818454704,-5.911154846633541,-7.68484316702127,-5.313398339124315,-2.9009282593974857,-1.905889269778548,-0.9074857587156064,-2.364171114491859,0.0781248,-0.97753656,-0.086364525,10.3005,25.8657,-5.70724,72.0
1774821950.1983697,1.2636184692382812e-05,2026-03-29T22:05:50.198,2026-03-29T18:05:50.198,-31750.92,-49589.729999999996,-84928.185,-50232.15,-15516.494999999999,-20472.344999999998,4890.33,-55374.704999999994,-4.024327461702632,-5.695039575255677,-5.887545784454343,-6.214105604043885,-1.8409543448981776,1.0324839268171044,1.4757824035528178,-2.3054540639611725,0.0781248,-0.97753656,-0.086364525,10.3005,25.8657,-5.70724,72.0
1774821950.2018764,0.0035066604614257812,2026-03-29T22:05:50.201,2026-03-29T18:05:50.201,-31745.34,-49582.665,-84918.555,-50221.89,-15505.56,-20467.934999999998,4884.525,-55378.125,-2.6295240223322818,-2.9988335805573194,-1.4851644228893084,-4.559195293047142,-0.12595186713557102,3.3877183714284613,3.0368674612318873,-1.319783771475279,0.0781248,-0.97753656,-0.086364525,10.3005,25.8657,-5.70724,72.0
1774821950.2018952,1.8835067749023438e-05,2026-03-29T22:05:50.201,2026-03-29T18:05:50.201,-31744.17,-49584.24,-84920.535,-50220.945,-15507.585,-20472.84,4888.845,-55376.369999999995,-0.1082050528303479,1.0528504092735338,3.654653367957031,-1.066055815951539,1.372348969281236,3.9700327414704457,2.956932436893906,0.17455753239439023,0.0781248,-0.97753656,-0.086364525,10.3005,25.8657,-5.70724,72.0
1774821950.2052207,0.0033254623413085938,2026-03-29T22:05:50.205,2026-03-29T18:05:50.205,-31746.645,-49588.83,-84921.885,-50223.825,-15510.824999999999,-20473.875,4896.945,-55375.064999999995,2.491298111137565,4.716861706212594,7.300740693965922,2.8142431919774893,2.0107820714073332,2.51095925628433,1.2909847710381523,1.5620337850373167,0.07824687,-0.97875726,-0.074401665,-2.39582,28.932959999999998,-7.721559999999999,72.0
1774821950.2052515,3.075599670410156e-05,2026-03-29T22:05:50.205,2026-03-29T18:05:50.205,-31745.699999999997,-49584.33,-84919.68,-50226.57,-15516.135,-20474.91,4895.595,-55382.805,4.0678115409148665,6.383393328634634,7.8295604916687305,5.495261954023747,1.6488501670760753,-0.21096530342439004,-1.0644836623874638,2.2879928004812684,0.07824687,-0.97875726,-0.074401665,-2.39582,28.932959999999998,-7.721559999999999,72.0
1774821950.2107935,0.00554203987121582,2026-03-29T22:05:50.210,2026-03-29T18:05:50.210,-31750.155,-49591.979999999996,-84927.23999999999,-50215.905,-15510.105,-20473.965,4884.21,-55394.505,3.934914792995801,5.288046486809205,4.951090365218065,5.897810035332258,0.64051806892825,-2.780918108856029,-2.846426216437305,2.083728191737002,0.07824687,-0.97875726,-0.074401665,-2.39582,28.932959999999998,-7.721559999999999,72.0
1774821950.210813,1.9550323486328125e-05,2026-03-29T22:05:50.210,2026-03-29T18:05:50.210,-31756.364999999998,-49599.18,-84930.48,-50207.13,-15506.73,-20480.399999999998,4877.46,-55402.965,2.1236869111426873,1.8671327458129932,-0.1361821355850697,3.8803884836754188,-0.417310997027775,-3.88012250934579,-3.0941761298396195,1.0648848015178856,0.07824687,-0.97875726,-0.074401665,-2.39582,28.932959999999998,-7.721559999999999,72.0
1774821950.213503,0.002689838409423828,2026-03-29T22:05:50.213,2026-03-29T18:05:50.213,-31757.129999999997,-49597.29,-84932.55,-50218.29,-15518.385,-20491.559999999998,4879.845,-55409.04,-0.614704523564802,-2.411101480887079,-5.242536233305979,0.2882705324760698,-1.0212861402652236,-2.9617815871713646,-1.6615711096981924,-0.33269059480235397,0.07824687,-0.97875726,-0.074401665,-2.39582,28.932959999999998,-7.721559999999999,72.0
1774821950.2135224,1.9550323486328125e-05,2026-03-29T22:05:50.213,2026-03-29T18:05:50.213,-31753.89,-49589.415,-84917.34,-50222.159999999996,-15519.869999999999,-20482.559999999998,4882.455,-55411.604999999996,-3.1170864811463685,-5.677220567256493,-8.131508551350239,-3.3956869520108484,-0.9989996777972542,-0.524158698312401,0.6982796405402113,-1.5446048325353121,0.07824687,-0.97875726,-0.074401665,-2.39582,28.932959999999998,-7.721559999999999,72.0
