unix_time_s,dt_s,UTC,LOCAL,EMG1_Raw,EMG2_Raw,EMG3_Raw,EMG4_Raw,EMG5_Raw,EMG6_Raw,EMG7_Raw,EMG8_Raw,EMG1_Filtered,EMG2_Filtered,EMG3_Filtered,EMG4_Filtered,EMG5_Filtered,EMG6_Filtered,EMG7_Filtered,EMG8_Filtered,Accel1_Raw,Accel2_Raw,Accel3_Raw,Gyro1_Raw,Gyro2_Raw,Gyro3_Raw,Battery
1774821848.7692077,,2026-03-29T22:04:08.769,2026-03-29T18:04:08.769,-31778.145,-50275.125,-85798.305,-50394.645,-15965.369999999999,-20937.51,4364.775,-49624.875,-1.9169899874901661,-3.4981653843132645,-2.987469602738805,-0.8162589076812637,-1.4112599506766186,-0.6286792485805728,0.05288104841313329,-1.8958966079985307,0.126647625,-0.90405042,0.44640999000000003,-8.9271,5.7988,-1.4497,72.0
1774821848.7692232,1.5497207641601562e-05,2026-03-29T22:04:08.769,2026-03-29T18:04:08.769,-31771.44,-50248.935,-85751.28,-50339.34,-15947.73,-20917.215,4380.75,-49620.24,-2.820846237114916,1.8587605388943462,12.308371619294558,16.01575156804852,-0.5196949356875302,-0.37611740979507974,1.0347271232856659,-4.919710946408891,0.126647625,-0.90405042,0.44640999000000003,-8.9271,5.7988,-1.4497,72.0
1774821848.773878,0.004654884338378906,2026-03-29T22:04:08.773,2026-03-29T18:04:08.773,-31728.105,-50207.67,-85692.78,-50265.045,-15910.38,-20892.69,4445.595,-49540.455,-3.0820320779110513,5.800031065421178,20.852763920367572,25.114063898678626,0.4898277598560305,0.013590332789543646,1.4303070751801545,-5.693075484091996,0.126647625,-0.90405042,0.44640999000000003,-8.9271,5.7988,-1.4497,72.0
1774821848.7739544,7.62939453125e-05,2026-03-29T22:04:08.773,2026-03-29T18:04:08.773,-31703.805,-50201.82,-85703.715,-50270.265,-15901.965,-20887.785,4423.455,-49505.759999999995,-2.286249256664363,6.788010818532455,18.98161525652452,22.574870785553614,1.35948356424111,0.6535886206973465,1.170660229202142,-3.6037334159720205,0.126647625,-0.90405042,0.44640999000000003,-8.9271,5.7988,-1.4497,72.0
1774821848.7777495,0.003795146942138672,2026-03-29T22:04:08.777,2026-03-29T18:04:08.777,-31728.51,-50237.865,-85751.325,-50284.395,-15901.289999999999,-20885.76,4388.8949999999995,-49537.845,-0.33548078417833904,4.808876064608867,8.27689185238801,9.930621098663341,1.8557375280660058,1.425697145615863,0.48516363444455435,0.5086645000359821,0.126647625,-0.90405042,0.44640999000000003,-8.9271,5.7988,-1.4497,72.0
1774821848.777771,2.1457672119140625e-05,2026-03-29T22:04:08.777,2026-03-29T18:04:08.777,-31780.44,-50280.03,-85807.305,-50310.585,-15916.724999999999,-20897.684999999998,4377.6449999999995,-49577.715,2.2897075584451496,1.1722196506822047,-5.5050436651899615,-6.733393096367833,1.8004930818554297,1.955146882687494,-0.25322357540468626,4.689055770287071,0.126647625,-0.90405042,0.44640999000000003,-8.9271,5.7988,-1.4497,72.0
1774821848.7837398,0.005968809127807617,2026-03-29T22:04:08.783,2026-03-29T18:04:08.783,-31761.315,-50269.77,-85835.16,-50339.52,-15937.154999999999,-20916.54,4358.16,-49604.58,4.556398595593657,-2.2922382697549013,-15.506736736916409,-19.7262294644615,1.13210698368041,1.7944394597429143,-0.7239715741403768,6.811712573164998,0.126647625,-0.90405042,0.44640999000000003,-8.9271,5.7988,-1.4497,72.0
1774821848.7837703,3.0517578125e-05,2026-03-29T22:04:08.783,2026-03-29T18:04:08.783,-31741.515,-50255.595,-85825.44,-50344.155,-15940.845,-20917.934999999998,4375.755,-49594.814999999995,5.275444551449052,-4.168901110007681,-17.21104673826227,-23.324364108638843,-0.022438321532718325,0.7255079854102576,-0.7955346316578845,5.670351239029397,0.126647625,-0.90405042,0.44640999000000003,-8.9271,5.7988,-1.4497,72.0
1774821848.7837992,2.8848648071289062e-05,2026-03-29T22:04:08.783,2026-03-29T18:04:08.783,-31786.245,-50281.29,-85822.65,-50346.134999999995,-15947.505,-20922.12,4410.36,-49573.395,3.7219541669519147,-4.0388527345183,-10.51012820703736,-16.299105538545703,-1.3195905543462592,-1.0052433313388007,-0.5456460663309467,1.6507001904056091,0.126647625,-0.90405042,0.44640999000000003,-8.9271,5.7988,-1.4497,72.0
1774821848.7838109,1.1682510375976562e-05,2026-03-29T22:04:08.783,2026-03-29T18:04:08.783,-31779.629999999997,-50298.525,-85830.165,-50358.06,-15974.01,-20951.415,4384.9349999999995,-49551.165,0.15712334642865383,-2.4690669619157664,0.5588974406236397,-2.2809854167591,-2.27085333903474,-2.6909958219045844,-0.17531770815622005,-3.3851226568071073,0.126647625,-0.90405042,0.44640999000000003,-8.9271,5.7988,-1.4497,72.0
1774821848.7936473,0.009836435317993164,2026-03-29T22:04:08.793,2026-03-29T18:04:08.793,-31746.375,-50282.82,-85812.705,-50328.27,-15969.51,-20953.575,4315.41,-49582.53,-4.081048066110575,-0.5088024231955334,10.140424829320361,12.108112904395055,-2.422479359332727,-3.4561237220174488,0.12067956680172566,-6.978050633456266,0.12097137000000001,-0.90771252,0.44140512,-4.3338399999999995,3.90656,0.09156,72.0
1774821848.793674,2.6702880859375e-05,2026-03-29T22:04:08.793,2026-03-29T18:04:08.793,-31757.895,-50254.515,-85774.545,-50241.78,-15911.55,-20901.69,4282.605,-49655.79,-7.060759028546237,0.956315375306047,13.643523088520535,20.394160792014564,-1.5804130036129493,-2.71411839415432,0.2510149613664875,-7.293073109027643,0.12097137000000001,-0.90771252,0.44140512,-4.3338399999999995,3.90656,0.09156,72.0
1774821848.7936945,2.0503997802734375e-05,2026-03-29T22:04:08.793,2026-03-29T18:04:08.793,-31775.355,-50258.564999999995,-85819.36499999999,-50270.174999999996,-15909.705,-20887.245,4336.29,-49664.564999999995,-7.150727846054655,1.6126496603531433,9.962462017477563,19.166194624142445,0.034064073539330476,-0.5515086730949478,0.2458887342655093,-4.067188142004127,0.12097137000000001,-0.90771252,0.44140512,-4.3338399999999995,3.90656,0.09156,72.0
1774821848.7937007,6.198883056640625e-06,2026-03-29T22:04:08.793,2026-03-29T18:04:08.793,-31724.28,-50266.395,-85892.58,-50324.939999999995,-15910.965,-20873.88,4431.42,-49557.06,-3.9053007814309484,1.6974067803801622,1.7512394100794126,9.454364838885176,1.804995556128926,2.195358043311053,0.20015383256932018,1.209892548840822,0.12097137000000001,-0.90771252,0.44140512,-4.3338399999999995,3.90656,0.09156,72.0
1774821848.7974124,0.003711700439453125,2026-03-29T22:04:08.797,2026-03-29T18:04:08.797,-31711.905,-50270.759999999995,-85915.035,-50378.939999999995,-15917.894999999999,-20878.605,4440.105,-49506.93,1.5375772623050237,1.635859053952791,-6.2624161496,-3.9686494165604773,2.950141828272607,4.2610092954555965,0.18823218930694924,5.9965681456176645,0.12097137000000001,-0.90771252,0.44140512,-4.3338399999999995,3.90656,0.09156,72.0
1774821848.7974524,4.00543212890625e-05,2026-03-29T22:04:08.797,2026-03-29T18:04:08.797,-31730.175,-50249.97,-85826.61,-50340.915,-15893.955,-20876.13,4397.94,-49538.52,6.823419585018669,1.6263024006819333,-9.91742883476976,-14.928563199923833,2.8773586901539208,4.548349525895608,0.20882231481390168,7.946892544636928,0.12097137000000001,-0.90771252,0.44140512,-4.3338399999999995,3.90656,0.09156,72.0
1774821848.8014576,0.0040051937103271484,2026-03-29T22:04:08.801,2026-03-29T18:04:08.801,-31722.57,-50240.564999999995,-85774.00499999999,-50333.58,-15894.494999999999,-20883.465,4392.72,-49518.494999999995,9.415521883172078,1.469936373978754,-7.766851226261704,-18.683056460814516,1.502393801682562,2.715061736600107,0.19331576326316682,6.082883128400667,0.12097137000000001,-0.90771252,0.44140512,-4.3338399999999995,3.90656,0.09156,72.0
1774821848.8014743,1.6689300537109375e-05,2026-03-29T22:04:08.801,2026-03-29T18:04:08.801,-31719.239999999998,-50233.545,-85796.91,-50365.979999999996,-15930.675,-20915.73,4400.91,-49549.005,7.834721142086461,0.7613045465972712,-1.628153101210815,-13.949762737064637,-0.6459443195391424,-0.5652886819958093,0.06870989211605522,1.2964705995190726,0.12097137000000001,-0.90771252,0.44140512,-4.3338399999999995,3.90656,0.09156,72.0
1774821848.8160715,0.014597177505493164,2026-03-29T22:04:08.816,2026-03-29T18:04:08.816,-31740.3,-50241.825,-85803.525,-50341.32,-15934.724999999999,-20927.25,4418.28,-49621.365,2.4883361855908,-0.6979259945834642,4.658023687239292,-3.2760658354510177,-2.6186719427945704,-3.839615261050829,-0.16997508461073016,-4.081294796249978,0.12097137000000001,-0.90771252,0.44140512,-4.3338399999999995,3.90656,0.09156,72.0
1774821848.8160927,2.1219253540039062e-05,2026-03-29T22:04:08.816,2026-03-29T18:04:08.816,-31787.055,-50282.1,-85836.465,-50380.244999999995,-15987.24,-20961.765,4373.73,-49647.104999999996,-4.371380432253761,-2.5633845371502395,7.486432861479299,8.306637743320895,-3.4746305245600073,-5.53359708169912,-0.42986395353032253,-7.434377188869146,0.12097137000000001,-0.90771252,0.44140512,-4.3338399999999995,3.90656,0.09156,72.0
1774821848.816111,1.8358230590820312e-05,2026-03-29T22:04:08.816,2026-03-29T18:04:08.816,-31789.62,-50288.85,-85846.00499999999,-50386.409999999996,-16002.359999999999,-20959.739999999998,4366.755,-49612.049999999996,-9.609039817646678,-3.9620415236835758,5.480563488031117,15.639216197176296,-2.7475628562099295,-4.727795854661331,-0.5592144602544631,-7.160271630842126,0.121886895,-0.90673596,0.437559915,-6.2566,2.88414,0.42728,72.0
1774821848.8161187,7.62939453125e-06,2026-03-29T22:04:08.816,2026-03-29T18:04:08.816,-31779.809999999998,-50281.83,-85823.73,-50323.365,-15943.275,-20905.515,4444.335,-49549.77,-10.671475001006865,-3.914796078886634,0.14301671524422824,15.702867191908283,-0.7138080362226149,-1.661704934215302,-0.4377713695464794,-3.4578432768128624,0.121886895,-0.90673596,0.437559915,-6.2566,2.88414,0.42728,72.0
1774821848.8161275,8.821487426757812e-06,2026-03-29T22:04:08.816,2026-03-29T18:04:08.816,-31752.899999999998,-50272.47,-85820.535,-50325.795,-15939.81,-20898.045,4443.03,-49522.185,-6.856727060722747,-1.95649627717728,-5.135353069229903,8.817597649222986,1.6962965452366576,2.3114823828931566,-0.06548412776491298,1.7919836649525547,0.121886895,-0.90673596,0.437559915,-6.2566,2.88414,0.42728,72.0
1774821848.816134,6.4373016357421875e-06,2026-03-29T22:04:08.816,2026-03-29T18:04:08.816,-31778.73,-50298.479999999996,-85834.75499999999,-50339.744999999995,-15971.805,-20929.77,4373.73,-49560.659999999996,0.25528933695028433,1.4193843031442266,-7.094016339929961,-1.676805335906572,3.3265263194046337,5.331611582402954,0.40870748992431605,5.987358423124028,0.121886895,-0.90673596,0.437559915,-6.2566,2.88414,0.42728,72.0
1774821848.818567,0.0024330615997314453,2026-03-29T22:04:08.818,2026-03-29T18:04:08.818,-31847.399999999998,-50351.4,-85907.745,-50398.92,-16019.099999999999,-20967.795,4300.92,-49664.97,7.464601098276729,4.808446554325959,-4.490090305573993,-11.022369192870977,3.365315062888543,5.924322178001443,0.7459925490221992,7.115202728438187,0.121886895,-0.90673596,0.437559915,-6.2566,2.88414,0.42728,72.0
1774821848.8185945,2.7418136596679688e-05,2026-03-29T22:04:08.818,2026-03-29T18:04:08.818,-31795.065,-50313.104999999996,-85893.435,-50391.27,-15988.005,-20935.395,4358.745,-49628.115,11.425139417243553,6.49465733600251,1.198824714149854,-15.164090939921692,1.7716502629175865,3.7428570415686315,0.7420351902025226,4.74232145763214,0.121886895,-0.90673596,0.437559915,-6.2566,2.88414,0.42728,72.0
1774821848.8212287,0.002634286880493164,2026-03-29T22:04:08.821,2026-03-29T18:04:08.821,-31691.34,-50235.525,-85776.20999999999,-50306.67,-15908.175,-20878.695,4409.46,-49531.409999999996,10.235981070316514,5.337567211650269,6.628738337282792,-12.462086917151144,-0.6745417796254192,-0.22248690323815926,0.351243903305011,0.1898107961606607,0.121886895,-0.90673596,0.437559915,-6.2566,2.88414,0.42728,72.0
1774821848.821256,2.7179718017578125e-05,2026-03-29T22:04:08.821,2026-03-29T18:04:08.821,-31682.61,-50247.63,-85753.035,-50296.994999999995,-15926.039999999999,-20895.57,4412.115,-49525.92,4.375327394719561,1.4809328184348063,8.502881050069439,-4.2984950979097345,-2.7449747407404708,-4.094222708060728,-0.26292255023399336,-4.183970413365817,0.121886895,-0.90673596,0.437559915,-6.2566,2.88414,0.42728,72.0
1774821848.8257403,0.004484415054321289,2026-03-29T22:04:08.825,2026-03-29T18:04:08.825,-31734.945,-50268.284999999996,-85752.135,-50324.85,-15942.06,-20900.114999999998,4404.69,-49568.445,-3.4918520259357284,-3.5381101742182888,5.467444628245088,5.617429431430954,-3.384906691074284,-6.013146165162963,-0.7914571166908003,-6.208889750975039,0.121886895,-0.90673596,0.437559915,-6.2566,2.88414,0.42728,72.0
1774821848.8257601,1.9788742065429688e-05,2026-03-29T22:04:08.825,2026-03-29T18:04:08.825,-31822.11,-50284.17,-85754.025,-50342.759999999995,-15939.585,-20907.855,4394.835,-49596.57,-9.75584560363525,-7.411156568079903,-1.0674877198205044,12.898945621928311,-2.2683749062115535,-5.056625049732649,-0.9355505450829263,-4.998804533342416,0.121886895,-0.90673596,0.437559915,-6.2566,2.88414,0.42728,72.0
1774821848.8293684,0.003608226776123047,2026-03-29T22:04:08.829,2026-03-29T18:04:08.829,-31828.184999999998,-50284.034999999996,-85811.12999999999,-50417.729999999996,-15975.224999999999,-20955.015,4365.855,-49598.009999999995,-11.561280717100386,-8.154922231587843,-7.639785835626932,14.36897078384853,0.01097121240271513,-1.7065009079122797,-0.5768064309278962,-1.3571153488843855,0.12158172,-0.890683755,0.44238168,-16.587619999999998,4.07442,-1.2971,72.0
1774821848.829388,1.9550323486328125e-05,2026-03-29T22:04:08.829,2026-03-29T18:04:08.829,-31719.329999999998,-50194.619999999995,-85763.52,-50314.77,-15905.25,-20905.92,4381.83,-49560.659999999996,-8.143602647135879,-5.145057386886251,-10.5954387639453,9.401066587285372,2.2319092059472156,2.379929716616349,0.13388215621715321,2.701276649872988,0.12158172,-0.890683755,0.44238168,-16.587619999999998,4.07442,-1.2971,72.0
1774821848.8347976,0.005409717559814453,2026-03-29T22:04:08.834,2026-03-29T18:04:08.834,-31652.82,-50145.345,-85693.095,-50231.88,-15842.295,-20840.175,4461.03,-49491.27,-1.1607366162496884,0.4592364358244624,-8.087274042892881,0.17371701960514907,3.185629240529631,5.1927068662319344,0.8297674776446539,5.042460778501527,0.12158172,-0.890683755,0.44238168,-16.587619999999998,4.07442,-1.2971,72.0
1774821848.8348193,2.1696090698242188e-05,2026-03-29T22:04:08.834,2026-03-29T18:04:08.834,-31702.949999999997,-50221.979999999996,-85760.685,-50292.854999999996,-15909.615,-20889.135,4437.585,-49508.325,6.128449690354212,6.163957456185487,-1.129218748636806,-9.256847291765258,2.3338552178051444,5.376666924336629,1.1111026214067434,4.535660995569981,0.12158172,-0.890683755,0.44238168,-16.587619999999998,4.07442,-1.2971,72.0
1774821848.8370423,0.0022230148315429688,2026-03-29T22:04:08.837,2026-03-29T18:04:08.837,-31724.774999999998,-50250.869999999995,-85782.42,-50304.15,-15925.5,-20897.235,4391.55,-49541.445,10.424576143613269,9.28731971521879,6.86637867711039,-14.684747259971262,0.12813748904851208,2.9119203191427863,0.7691856255015204,1.6151004984756887,0.12158172,-0.890683755,0.44238168,-16.587619999999998,4.07442,-1.2971,72.0
1774821848.837056,1.3589859008789062e-05,2026-03-29T22:04:08.837,2026-03-29T18:04:08.837,-31712.265,-50248.125,-85806.09,-50320.619999999995,-15936.615,-20907.225,4387.455,-49557.104999999996,9.922003167419804,8.259791438010032,11.828714939012704,-13.57622860885894,-2.201226612551765,-0.8847691240601924,-0.07084940979730177,-2.0034155880115003,0.12158172,-0.890683755,0.44238168,-16.587619999999998,4.07442,-1.2971,72.0
1774821848.842368,0.0053119659423828125,2026-03-29T22:04:08.842,2026-03-29T18:04:08.842,-31723.515,-50257.665,-85838.04,-50364.27,-15971.31,-20936.385,4342.455,-49593.24,5.084142789590898,3.4291099682986625,11.130424848154686,-6.22415816214002,-3.298645169967767,-4.04446970326216,-0.9798189552669243,-4.284622953199978,0.12158172,-0.890683755,0.44238168,-16.587619999999998,4.07442,-1.2971,72.0
1774821848.8423839,1.5974044799804688e-05,2026-03-29T22:04:08.842,2026-03-29T18:04:08.842,-31794.48,-50291.145,-85835.025,-50383.17,-15967.98,-20930.04,4319.235,-49661.28,-1.6817155651586406,-3.049728864126382,4.9530718211739435,4.277363183348832,-2.4429377923305915,-4.967486313387788,-1.4316116881380314,-3.989432286253196,0.12158172,-0.890683755,0.44238168,-16.587619999999998,4.07442,-1.2971,72.0
1774821848.846523,0.0041391849517822266,2026-03-29T22:04:08.846,2026-03-29T18:04:08.846,-31836.914999999997,-50323.86,-85847.12999999999,-50347.53,-15937.244999999999,-20904.84,4373.82,-49653.945,-7.245476287554195,-8.209322399807496,-3.7854213474411904,13.281865137977846,0.001955909987720831,-3.2523075845621348,-1.0926017434867916,-1.3423916300088596,0.12158172,-0.890683755,0.44238168,-16.587619999999998,4.07442,-1.2971,72.0
1774821848.8465388,1.5735626220703125e-05,2026-03-29T22:04:08.846,2026-03-29T18:04:08.846,-31765.41,-50301.854999999996,-85893.93,-50327.28,-15926.175,-20893.14,4451.04,-49544.595,-9.242076818718402,-9.674481488063801,-10.888227913935248,16.589299038152696,2.7165874272862487,0.10379009616591064,-0.039835193230598774,2.1060265113493726,0.12158172,-0.890683755,0.44238168,-16.587619999999998,4.07442,-1.2971,72.0
1774821848.8509684,0.00442957878112793,2026-03-29T22:04:08.850,2026-03-29T18:04:08.850,-31748.039999999997,-50302.845,-85906.75499999999,-50355.63,-15945.48,-20906.82,4428.179999999999,-49531.32,-7.1006393510524495,-6.790697697842842,-12.959477567013042,12.364946019841444,4.104519876510538,3.2437708938755843,1.2248787686522886,4.344770883511432,0.11743134,-0.887998215,0.43469127,-22.737399999999997,2.5179,-1.6633399999999998,72.0
1774821848.850986,1.7642974853515625e-05,2026-03-29T22:04:08.850,2026-03-29T18:04:08.850,-31788.989999999998,-50302.845,-85846.00499999999,-50350.455,-15932.654999999999,-20899.395,4350.465,-49600.935,-2.155064006887225,-0.9240340393957989,-9.047376932027918,2.119951353299548,3.182046721139242,4.450916101537609,2.000041623348083,4.025081205993258,0.11743134,-0.887998215,0.43469127,-22.737399999999997,2.5179,-1.6633399999999998,72.0
1774821848.8534677,0.002481698989868164,2026-03-29T22:04:08.853,2026-03-29T18:04:08.853,-31769.145,-50276.52,-85820.22,-50401.935,-15959.835,-20925.27,4371.885,-49584.78,3.146766277283863,5.208741677535131,-1.046238974933658,-9.758583222947268,0.19911828557767847,3.0810671973908783,1.7540688751421976,1.2296902655937958,0.11743134,-0.887998215,0.43469127,-22.737399999999997,2.5179,-1.6633399999999998,72.0
1774821848.8534884,2.0742416381835938e-05,2026-03-29T22:04:08.853,2026-03-29T18:04:08.853,-31761.629999999997,-50275.755,-85799.565,-50347.575,-15963.93,-20936.565,4393.3949999999995,-49572.314999999995,6.480069298042962,8.841402134113093,7.293972567216903,-17.83010924933349,-3.377253923772926,-0.07599270513844188,0.45156452824809,-2.53632069540446,0.11743134,-0.887998215,0.43469127,-22.737399999999997,2.5179,-1.6633399999999998,72.0
1774821848.8573563,0.0038678646087646484,2026-03-29T22:04:08.857,2026-03-29T18:04:08.857,-31792.094999999998,-50290.335,-85817.34,-50274.134999999995,-15918.48,-20895.614999999998,4455.945,-49567.994999999995,6.690510971808753,8.448003764576715,12.203333411069202,-18.050411559649266,-5.563540829146468,-3.213316648605828,-1.3520257928939792,-5.141446763735555,0.11743134,-0.887998215,0.43469127,-22.737399999999997,2.5179,-1.6633399999999998,72.0
1774821848.8573759,1.9550323486328125e-05,2026-03-29T22:04:08.857,2026-03-29T18:04:08.857,-31790.25,-50295.869999999995,-85851.22499999999,-50302.799999999996,-15922.71,-20904.12,4418.6849999999995,-49563.09,4.166417523257696,4.399963904411226,11.639406109308707,-9.765548292955016,-4.917671674488704,-4.493751252656308,-2.7316668982190966,-4.993423953082042,0.11743134,-0.887998215,0.43469127,-22.737399999999997,2.5179,-1.6633399999999998,72.0
1774821848.861415,0.00403904914855957,2026-03-29T22:04:08.861,2026-03-29T18:04:08.861,-31778.82,-50305.905,-85914.22499999999,-50340.6,-15923.115,-20905.785,4379.04,-49572.27,0.4324543562497134,-1.300766337807536,6.116104394204624,3.722270463976187,-1.4037800457037002,-3.083314622288393,-2.8503840280047097,-1.949798103432384,0.11743134,-0.887998215,0.43469127,-22.737399999999997,2.5179,-1.6633399999999998,72.0
1774821848.8614485,3.361701965332031e-05,2026-03-29T22:04:08.861,2026-03-29T18:04:08.861,-31744.125,-50280.255,-85905.495,-50387.445,-15917.939999999999,-20888.954999999998,4397.535,-49557.195,-2.738667597794436,-6.040460591769387,-1.709305320014401,16.4078319834827,3.4290841423424205,0.3358447746310406,-1.4331759353927622,2.528226226440599,0.11743134,-0.887998215,0.43469127,-22.737399999999997,2.5179,-1.6633399999999998,72.0
1774821848.8659453,0.00449681282043457,2026-03-29T22:04:08.865,2026-03-29T18:04:08.865,-31760.594999999998,-50303.7,-85905.405,-50441.174999999996,-15975.18,-20939.219999999998,4392.855,-49562.46,-4.190419939959875,-7.833833639948442,-8.389525168462974,22.219055430048883,7.1168146833789,3.8770236344014357,1.0003333768027178,6.086914324956998,0.11743134,-0.887998215,0.43469127,-22.737399999999997,2.5179,-1.6633399999999998,72.0
1774821848.8659663,2.09808349609375e-05,2026-03-29T22:04:08.865,2026-03-29T18:04:08.865,-31845.645,-50375.79,-85913.37,-50412.465,-16039.71,-21006.27,4321.26,-49637.52,-3.79119287842782,-6.177834670791088,-11.260342174919948,17.898831468861516,7.515804785920747,5.450646616400721,3.3032510231585697,6.705128154329493,0.11743134,-0.887998215,0.43469127,-22.737399999999997,2.5179,-1.6633399999999998,72.0
1774821848.869393,0.003426790237426758,2026-03-29T22:04:08.869,2026-03-29T18:04:08.869,-31851.989999999998,-50346.09,-85820.22,-50306.895,-16010.324999999999,-20984.04,4299.21,-49686.75,-2.2504943216609954,-2.1403569943628487,-9.489510024465492,4.7736359406424445,3.991548628069506,3.9370851872777566,4.230231347043966,3.79888408235827,0.11242647,-0.90051039,0.42211806,-17.808419999999998,-1.32762,-0.79352,72.0
1774821848.8694224,2.9325485229492188e-05,2026-03-29T22:04:08.869,2026-03-29T18:04:08.869,-31733.774999999998,-50214.509999999995,-85688.595,-50235.075,-15907.005,-20891.7,4350.33,-49640.58,-0.5415780927665006,2.291832388787559,-4.197863895213787,-11.534117706152545,-2.080709490544572,-0.1084468369565604,3.089052243188833,-1.3847322436818477,0.11242647,-0.90051039,0.42211806,-17.808419999999998,-1.32762,-0.79352,72.0
1774821848.8734653,0.004042863845825195,2026-03-29T22:04:08.873,2026-03-29T18:04:08.873,-31660.469999999998,-50155.38,-85697.955,-50339.88,-15861.869999999999,-20836.079999999998,4412.16,-49562.729999999996,0.6810254955448233,5.220398762821618,2.261314479117426,-23.479459615024087,-7.83285857048009,-4.636296376084329,0.18129128851231133,-6.319005715570991,0.11242647,-0.90051039,0.42211806,-17.808419999999998,-1.32762,-0.79352,72.0
1774821848.8734856,2.0265579223632812e-05,2026-03-29T22:04:08.873,2026-03-29T18:04:08.873,-31715.64,-50214.284999999996,-85790.79,-50457.42,-15893.505,-20858.67,4402.125,-49531.634999999995,1.3313011310687393,5.674506926431105,7.406018217992673,-25.07331650887841,-10.256499235086135,-7.125211560942756,-3.2282126857491495,-8.442444737400939,0.11242647,-0.90051039,0.42211806,-17.808419999999998,-1.32762,-0.79352,72.0
1774821848.8772426,0.003756999969482422,2026-03-29T22:04:08.877,2026-03-29T18:04:08.877,-31772.879999999997,-50263.02,-85777.56,-50334.75,-15896.295,-20877.75,4452.84,-49524.345,1.7138371331048994,3.8975977922310543,9.56767381598555,-14.867556921661217,-7.753826298530614,-5.942571870908323,-5.452579466794921,-6.477474306916067,0.11242647,-0.90051039,0.42211806,-17.808419999999998,-1.32762,-0.79352,72.0
1774821848.8772633,2.0742416381835938e-05,2026-03-29T22:04:08.877,2026-03-29T18:04:08.877,-31770.045,-50264.955,-85772.745,-50311.665,-15944.58,-20926.44,4427.955,-49542.75,2.102037972609708,1.0195415167394697,8.321719322901066,3.037462289716324,-1.0940752283976483,-1.3221441033663468,-5.208200797644024,-1.147032471292641,0.11242647,-0.90051039,0.42211806,-17.808419999999998,-1.32762,-0.79352,72.0
1774821848.881048,0.003784656524658203,2026-03-29T22:04:08.881,2026-03-29T18:04:08.881,-31699.98,-50222.7,-85724.73,-50245.65,-15909.029999999999,-20908.44,4425.57,-49502.159999999996,2.401526031513496,-1.62885615006579,4.376376962045981,20.59470752619271,6.769272971671229,4.598937693213684,-2.3233552324433493,5.097413749262723,0.11242647,-0.90051039,0.42211806,-17.808419999999998,-1.32762,-0.79352,72.0
1774821848.8810737,2.574920654296875e-05,2026-03-29T22:04:08.881,2026-03-29T18:04:08.881,-31650.39,-50225.67,-85736.565,-50198.22,-15894.63,-20895.57,4388.445,-49501.439999999995,2.1553055141915536,-3.1544878712707956,-0.8627527163510684,29.425295958243364,12.015693880971382,8.770571459418974,2.0512706931924667,9.22994310332348,0.11242647,-0.90051039,0.42211806,-17.808419999999998,-1.32762,-0.79352,72.0
1774821848.8850958,0.004022121429443359,2026-03-29T22:04:08.885,2026-03-29T18:04:08.885,-31739.355,-50285.34,-85805.055,-50241.78,-15895.664999999999,-20873.43,4413.96,-49546.755,0.9063951673515204,-3.3762189316253,-5.777892885986935,24.824805399769442,11.818942432828239,8.787911130752828,5.889904789730831,9.131187711705802,0.11242647,-0.90051039,0.42211806,-17.808419999999998,-1.32762,-0.79352,72.0
1774821848.8851085,1.2636184692382812e-05,2026-03-29T22:04:08.885,2026-03-29T18:04:08.885,-31792.004999999997,-50276.744999999995,-85822.965,-50345.505,-15927.885,-20896.92,4416.795,-49572.225,-1.3233272107961722,-2.6671963645121295,-8.915357192816373,8.239919996695415,5.842204334255421,4.2249221109394455,7.230396476207747,4.664652560259869,0.11242647,-0.90051039,0.42211806,-17.808419999999998,-1.32762,-0.79352,72.0
1774821848.8892367,0.004128217697143555,2026-03-29T22:04:08.889,2026-03-29T18:04:08.889,-31785.344999999998,-50263.064999999995,-85834.485,-50447.025,-15951.689999999999,-20914.515,4397.67,-49579.155,-3.788210645584852,-1.552934560716689,-9.256655929180917,-13.08066469033583,-3.416053702121721,-2.9799680502420776,5.168685191116841,-2.1952870517734313,0.11584443,-0.91369395,0.41808975,-8.34722,-1.8006799999999998,-0.03052,72.0
1774821848.8892577,2.09808349609375e-05,2026-03-29T22:04:08.889,2026-03-29T18:04:08.889,-31791.285,-50286.195,-85853.52,-50445.27,-15956.055,-20920.14,4381.605,-49587.03,-5.241549268329173,-0.365233856960251,-6.461307394334185,-29.255349483477264,-11.673305952532505,-9.352897103922453,0.4067235926104465,-8.265531599587584,0.11584443,-0.91369395,0.41808975,-8.34722,-1.8006799999999998,-0.03052,72.0
1774821848.8933527,0.0040950775146484375,2026-03-29T22:04:08.893,2026-03-29T18:04:08.893,-31759.11,-50273.145,-85824.98999999999,-50417.549999999996,-15978.824999999999,-20942.37,4397.22,-49574.43,-4.576707348650872,0.8328552700087081,-1.091366568402749,-32.37582598730927,-14.866879885104295,-11.572166870183075,-4.96141775030951,-10.661121749868949,0.11584443,-0.91369395,0.41808975,-8.34722,-1.8006799999999998,-0.03052,72.0
1774821848.8933787,2.5987625122070312e-05,2026-03-29T22:04:08.893,2026-03-29T18:04:08.893,-31775.265,-50278.95,-85785.03,-50370.795,-15978.015,-20942.774999999998,4402.305,-49592.115,-1.5528411989218582,2.0502632321026475,5.310057653001679,-20.391062737431174,-11.162187346393809,-8.188453376460616,-8.376996341278089,-8.180475445196997,0.11584443,-0.91369395,0.41808975,-8.34722,-1.8006799999999998,-0.03052,72.0
1774821848.8978512,0.004472494125366211,2026-03-29T22:04:08.897,2026-03-29T18:04:08.897,-31774.32,-50251.95,-85707.315,-50262.93,-15900.3,-20891.835,4420.17,-49576.455,2.8378004514046578,3.0985375893643265,10.484679517387672,1.648642057830636,-1.9666177933365816,-0.4889083087149811,-8.043900826154628,-1.897380319705375,0.11584443,-0.91369395,0.41808975,-8.34722,-1.8006799999999998,-0.03052,72.0
1774821848.8978622,1.0967254638671875e-05,2026-03-29T22:04:08.897,2026-03-29T18:04:08.897,-31754.385,-50232.104999999996,-85712.805,-50254.335,-15883.38,-20885.715,4400.91,-49558.86,6.653554185064149,3.503704147941901,12.166680819708882,23.711248604509002,8.599839564539653,7.987081281930372,-3.862414157190433,5.328613191004289,0.11584443,-0.91369395,0.41808975,-8.34722,-1.8006799999999998,-0.03052,72.0
1774821848.9016156,0.0037534236907958984,2026-03-29T22:04:08.901,2026-03-29T18:04:08.901,-31745.43,-50240.295,-85754.87999999999,-50285.97,-15891.75,-20886.66,4395.78,-49541.174999999996,7.884534445162547,2.725548584977634,9.072015534551067,35.38489022195496,15.582298894473523,13.102581250009477,2.4141169020827333,10.189048445667353,0.11584443,-0.91369395,0.41808975,-8.34722,-1.8006799999999998,-0.03052,72.0
1774821848.9016433,2.765655517578125e-05,2026-03-29T22:04:08.901,2026-03-29T18:04:08.901,-31765.77,-50264.64,-85774.5,-50296.32,-15896.474999999999,-20883.51,4385.34,-49552.65,5.5210687726205485,0.5813810162744942,1.7404595327564212,30.836199924481782,15.54686947542599,12.162358941360102,7.922718171181283,10.4703895211578,0.11584443,-0.91369395,0.41808975,-8.34722,-1.8006799999999998,-0.03052,72.0
1774821848.9074557,0.005812406539916992,2026-03-29T22:04:08.907,2026-03-29T18:04:08.907,-31772.295,-50264.909999999996,-85784.04,-50323.095,-15907.275,-20887.829999999998,4366.98,-49581.99,0.2379688378757782,-2.409201046058718,-7.283706304052627,11.742945638794419,8.278987754327773,5.321388540654624,10.015516601116,6.071651250773768,0.11584443,-0.91369395,0.41808975,-8.34722,-1.8006799999999998,-0.03052,72.0
1774821848.9074812,2.5510787963867188e-05,2026-03-29T22:04:08.907,2026-03-29T18:04:08.907,-31764.69,-50277.15,-85831.47,-50388.93,-15952.994999999999,-20925.899999999998,4364.1449999999995,-49604.805,-5.731141062846266,-5.046748754326038,-14.230133322078737,-13.283181833836089,-3.0222336317019263,-4.3716808524184705,7.543254126512522,-0.9765391950325062,0.11584443,-0.91369395,0.41808975,-8.34722,-1.8006799999999998,-0.03052,72.0
1774821848.9075048,2.3603439331054688e-05,2026-03-29T22:04:08.907,2026-03-29T18:04:08.907,-31773.78,-50292.0,-85847.355,-50395.545,-15967.17,-20932.829999999998,4386.195,-49608.314999999995,-9.556805986049424,-5.935886868766416,-15.67440028243153,-32.61367864479215,-13.185059732752935,-12.366064641228352,1.4686375301034091,-7.481634337190909,0.125671065,-0.914975685,0.42529188,-5.60042,2.79258,-0.04578,72.0
1774821848.907516,1.1205673217773438e-05,2026-03-29T22:04:08.907,2026-03-29T18:04:08.907,-31812.614999999998,-50319.585,-85850.055,-50370.84,-15960.15,-20924.594999999998,4385.655,-49598.955,-9.190014057994526,-4.235384611117631,-10.253295015492135,-37.065714994141395,-17.477784112662004,-14.785672292304362,-5.513717126746899,-10.571248089904774,0.125671065,-0.914975685,0.42529188,-5.60042,2.79258,-0.04578,72.0
1774821848.9158251,0.008309125900268555,2026-03-29T22:04:08.915,2026-03-29T18:04:08.915,-31799.204999999998,-50312.295,-85846.545,-50370.299999999996,-15976.8,-20945.745,4348.035,-49606.695,-4.467205126409124,-0.267568692845734,0.3469623178653068,-24.317919395017157,-13.846039303426618,-10.33135919857733,-10.198330027147618,-8.983929630179205,0.125671065,-0.914975685,0.42529188,-5.60042,2.79258,-0.04578,72.0
1774821848.915856,3.075599670410156e-05,2026-03-29T22:04:08.915,2026-03-29T18:04:08.915,-31762.754999999997,-50290.2,-85848.795,-50379.345,-15991.965,-20965.95,4303.3949999999995,-49610.79,2.6542200209330904,4.409655539509645,11.773880457406332,-0.1313172306576516,-3.8997626314258564,-0.9630474458804043,-10.364837928874769,-3.5783413176519305,0.125671065,-0.914975685,0.42529188,-5.60042,2.79258,-0.04578,72.0
1774821848.9180412,0.002185344696044922,2026-03-29T22:04:08.918,2026-03-29T18:04:08.918,-31719.87,-50270.805,-85849.605,-50379.255,-15968.025,-20936.7,4329.8099999999995,-49568.265,8.917301563108545,7.610704393856661,18.784393778794293,24.272498019421988,7.828276488413895,8.993406289706288,-5.837773754707803,3.1414781637514855,0.125671065,-0.914975685,0.42529188,-5.60042,2.79258,-0.04578,72.0
1774821848.9180658,2.4557113647460938e-05,2026-03-29T22:04:08.918,2026-03-29T18:04:08.918,-31690.98,-50258.07,-85868.415,-50370.03,-15915.285,-20880.54,4388.535,-49509.09,11.29442689295757,7.576928664539928,17.699403313265094,37.47707050490126,15.999159179956091,14.894296950730075,1.4012533761985584,8.220484690041305,0.125671065,-0.914975685,0.42529188,-5.60042,2.79258,-0.04578,72.0
1774821848.9215412,0.0034754276275634766,2026-03-29T22:04:08.921,2026-03-29T18:04:08.921,-31715.91,-50286.869999999995,-85892.22,-50375.744999999995,-15909.66,-20883.96,4463.595,-49469.805,8.488327526368822,3.9552610741290164,8.367460045588206,33.28464741694199,16.948006813502378,13.988539819550187,8.110217487827493,9.58263771597322,0.125671065,-0.914975685,0.42529188,-5.60042,2.79258,-0.04578,72.0
1774821848.9215615,2.0265579223632812e-05,2026-03-29T22:04:08.921,2026-03-29T18:04:08.921,-31804.289999999997,-50291.729999999996,-85833.045,-50346.54,-15892.83,-20883.239999999998,4482.45,-49549.409999999996,1.6452666001012763,-1.8467601825727558,-5.422214552861362,13.678212949583445,10.35141253639153,6.716789266936202,11.272068970990182,6.884076633606036,0.125671065,-0.914975685,0.42529188,-5.60042,2.79258,-0.04578,72.0
1774821848.9255924,0.004030942916870117,2026-03-29T22:04:08.925,2026-03-29T18:04:08.925,-31784.039999999997,-50254.424999999996,-85762.98,-50295.509999999995,-15883.785,-20903.579999999998,4468.5,-49567.32,-6.112809285822824,-7.1954147818295064,-17.451504986777042,-12.108362501223244,-0.689349920969996,-3.5239178063789827,9.470977373794048,1.5367101008679398,0.125671065,-0.914975685,0.42529188,-5.60042,2.79258,-0.04578,72.0
1774821848.9256148,2.2411346435546875e-05,2026-03-29T22:04:08.925,2026-03-29T18:04:08.925,-31743.765,-50230.89,-85727.43,-50296.14,-15899.849999999999,-20919.555,4468.23,-49542.57,-11.146838229295506,-9.461150777411422,-21.926655497702434,-31.981665921814166,-11.152188943979835,-12.018202558334202,3.520445812314909,-4.0439428242961855,0.125671065,-0.914975685,0.42529188,-5.60042,2.79258,-0.04578,72.0
1774821848.9305968,0.00498199462890625,2026-03-29T22:04:08.930,2026-03-29T18:04:08.930,-31761.045,-50261.805,-85767.705,-50353.74,-15947.46,-20933.64,4394.43,-49575.645,-11.052956659355422,-7.355436629399066,-16.343668035417323,-36.73616099818283,-16.436305672826446,-14.961070758410498,-3.93375906114738,-7.56233334694335,0.130431795,-0.90881115,0.42797742,-13.444059999999999,5.58516,2.8230999999999997,72.0
1774821848.9306183,2.1457672119140625e-05,2026-03-29T22:04:08.930,2026-03-29T18:04:08.930,-31776.164999999997,-50275.215,-85784.265,-50377.994999999995,-15974.91,-20939.355,4329.405,-49605.299999999996,-5.844873245773663,-1.6770988375850246,-2.91779255813708,-24.393468662586024,-14.42291385019409,-11.196818989560288,-9.628865825756797,-7.801072976706409,0.130431795,-0.90881115,0.42797742,-13.444059999999999,5.58516,2.8230999999999997,72.0
1774821848.9335155,0.0028972625732421875,2026-03-29T22:04:08.933,2026-03-29T18:04:08.933,-31802.355,-50272.29,-85753.53,-50333.625,-15948.675,-20916.63,4315.815,-49630.32,2.029898458365485,4.966611239545999,12.245582162354577,-1.0540323997875138,-6.312060006360368,-2.6554097940255854,-11.140468685721824,-5.006874226819052,0.130431795,-0.90881115,0.42797742,-13.444059999999999,5.58516,2.8230999999999997,72.0
1774821848.9335437,2.8133392333984375e-05,2026-03-29T22:04:08.933,2026-03-29T18:04:08.933,-31802.489999999998,-50275.71,-85754.11499999999,-50321.384999999995,-15933.24,-20899.485,4371.255,-49608.72,8.862046986183474,9.383820282388534,21.962162507804564,22.121788665464525,4.088732150248082,6.669479984149887,-7.913633302975392,-0.6034945245840135,0.130431795,-0.90881115,0.42797742,-13.444059999999999,5.58516,2.8230999999999997,72.0
1774821848.9374151,0.003871440887451172,2026-03-29T22:04:08.937,2026-03-29T18:04:08.937,-31761.045,-50255.865,-85755.23999999999,-50288.31,-15911.279999999999,-20873.204999999998,4407.93,-49577.49,11.469717093376147,9.381590239457587,21.454900754612975,34.30865922021231,12.207305111010893,12.648683467493303,-1.4307237027672215,3.551006424514324,0.130431795,-0.90881115,0.42797742,-13.444059999999999,5.58516,2.8230999999999997,72.0
1774821848.937435,1.9788742065429688e-05,2026-03-29T22:04:08.937,2026-03-29T18:04:08.937,-31714.785,-50241.915,-85782.87,-50260.68,-15894.855,-20859.795,4438.845,-49518.27,8.723416274151209,4.903278369015801,10.789385486922287,30.15495171424692,14.764339718668866,12.8935236825735,5.509875853506894,5.969462447667496,0.130431795,-0.90881115,0.42797742,-13.444059999999999,5.58516,2.8230999999999997,72.0
1774821848.9427576,0.005322694778442383,2026-03-29T22:04:08.942,2026-03-29T18:04:08.942,-31742.324999999997,-50272.92,-85833.94499999999,-50310.405,-15913.215,-20884.815,4395.6449999999995,-49550.939999999995,2.056717261566091,-1.8890343304280306,-5.017731414357938,12.189685572426342,11.095421815595396,7.703049193538568,10.034037085646617,6.0439664129930355,0.130431795,-0.90881115,0.42797742,-13.444059999999999,5.58516,2.8230999999999997,72.0
1774821848.942778,2.0503997802734375e-05,2026-03-29T22:04:08.942,2026-03-29T18:04:08.942,-31745.969999999998,-50277.915,-85834.035,-50352.345,-15916.59,-20894.04,4391.865,-49563.314999999995,-5.278461376984191,-7.666094168803629,-18.362320678489095,-10.612565624775236,3.205264235809296,-0.2903808672118998,10.383380669136537,4.097297586362859,0.130431795,-0.90881115,0.42797742,-13.444059999999999,5.58516,2.8230999999999997,72.0
1774821848.9454637,0.002685546875,2026-03-29T22:04:08.945,2026-03-29T18:04:08.945,-31720.59,-50265.765,-85835.7,-50385.78,-15920.055,-20886.57,4442.67,-49511.295,-9.82595776089623,-9.603188444144866,-22.775471600776854,-27.328439134364594,-5.3460283717481705,-7.500427812041543,6.5622601224237265,1.0588224563341542,0.130431795,-0.90881115,0.42797742,-13.444059999999999,5.58516,2.8230999999999997,72.0
1774821848.9454803,1.6689300537109375e-05,2026-03-29T22:04:08.945,2026-03-29T18:04:08.945,-31753.754999999997,-50275.979999999996,-85821.56999999999,-50352.255,-15929.369999999999,-20900.52,4467.285,-49508.189999999995,-9.595566591287856,-6.817020424393396,-16.157044501650365,-30.385626505272356,-11.100908528268848,-11.05137243444259,0.2245083112096504,-1.9987830806123341,0.130431795,-0.90881115,0.42797742,-13.444059999999999,5.58516,2.8230999999999997,72.0
1774821848.950218,0.0047376155853271484,2026-03-29T22:04:08.950,2026-03-29T18:04:08.950,-31753.305,-50246.28,-85782.915,-50340.555,-15929.64,-20907.27,4405.905,-49554.27,-4.963768258451464,-0.8147405608679088,-1.8642316412057567,-19.06570613846124,-12.109200345457557,-9.92803891600871,-6.078221762761536,-4.223107022163658,0.12121551,-0.913632915,0.415099035,-15.839879999999999,1.11398,5.60042,72.0
1774821848.9502325,1.4543533325195312e-05,2026-03-29T22:04:08.950,2026-03-29T18:04:08.950,-31739.85,-50234.534999999996,-85769.37,-50346.765,-15911.369999999999,-20892.195,4375.035,-49566.78,1.616849934437931,5.293069464343287,12.945054619107559,0.44368963569716896,-8.504276337914742,-5.148196993874793,-9.925132829458478,-5.130586730185324,0.12121551,-0.913632915,0.415099035,-15.839879999999999,1.11398,5.60042,72.0
1774821848.9549704,0.00473785400390625,2026-03-29T22:04:08.954,2026-03-29T18:04:08.954,-31738.5,-50238.134999999995,-85747.455,-50308.02,-15883.965,-20871.09,4387.905,-49559.67,6.913497974384128,8.414737859437196,20.91548959277928,18.358772417046822,-2.1359444498404816,0.979488832591225,-9.914899623400272,-4.580691651084999,0.12121551,-0.913632915,0.415099035,-15.839879999999999,1.11398,5.60042,72.0
1774821848.9549823,1.1920928955078125e-05,2026-03-29T22:04:08.954,2026-03-29T18:04:08.954,-31783.094999999998,-50256.585,-85733.37,-50288.22,-15892.83,-20875.364999999998,4400.955,-49620.104999999996,8.53008428629308,7.085595877775836,18.223691022918537,26.22681602440209,4.412619499206423,6.021640015326137,-6.112883911664624,-2.703965514277152,0.12121551,-0.913632915,0.415099035,-15.839879999999999,1.11398,5.60042,72.0
1774821848.9573555,0.002373218536376953,2026-03-29T22:04:08.957,2026-03-29T18:04:08.957,-31821.164999999997,-50290.064999999995,-85760.775,-50279.534999999996,-15904.89,-20884.364999999998,4347.2699999999995,-49704.975,6.023919027032635,2.2094104030711526,6.513234274071429,20.98017936647062,8.888074679208641,8.399243475733497,0.04200043893547354,0.11457957866340142,0.12121551,-0.913632915,0.415099035,-15.839879999999999,1.11398,5.60042,72.0
1774821848.9573677,1.2159347534179688e-05,2026-03-29T22:04:08.957,2026-03-29T18:04:08.957,-31781.969999999998,-50284.439999999995,-85810.31999999999,-50323.814999999995,-15916.859999999999,-20894.399999999998,4379.94,-49607.1,0.9865593320318401,-3.4646492615229643,-7.984737096686351,6.143870280050789,10.062949246438226,7.77686291708112,6.279913779349094,3.2032898587873513,0.12121551,-0.913632915,0.415099035,-15.839879999999999,1.11398,5.60042,72.0
1774821848.9630587,0.005691051483154297,2026-03-29T22:04:08.963,2026-03-29T18:04:08.963,-31730.129999999997,-50277.195,-85878.45,-50419.215,-15974.55,-20942.91,4420.53,-49503.555,-3.8975177789362303,-6.8511653408886,-17.712326616462658,-10.286169234479635,7.899876711671377,4.83914944153606,10.285843815897858,5.630664470219411,0.12121551,-0.913632915,0.415099035,-15.839879999999999,1.11398,5.60042,72.0
1774821848.963076,1.7404556274414062e-05,2026-03-29T22:04:08.963,2026-03-29T18:04:08.963,-31745.61,-50289.615,-85882.36499999999,-50439.645,-15980.715,-20950.469999999998,4391.6849999999995,-49520.97,-6.279097314347414,-6.2094870647187035,-17.740208138105526,-20.08866218007568,3.305574568615732,0.7487441873007777,10.487733097788201,6.408644911933071,0.12121551,-0.913632915,0.415099035,-15.839879999999999,1.11398,5.60042,72.0
1774821848.9658716,0.0027954578399658203,2026-03-29T22:04:08.965,2026-03-29T18:04:08.965,-31804.199999999997,-50319.945,-85882.455,-50414.759999999995,-15967.215,-20943.27,4361.085,-49587.93,-5.299643662534304,-2.0807395125640826,-8.342333184816201,-18.95442830222375,-2.2724796763538,-3.3368515135860135,6.625503216802726,4.8848887151558005,0.12121551,-0.913632915,0.415099035,-15.839879999999999,1.11398,5.60042,72.0
1774821848.9658892,1.7642974853515625e-05,2026-03-29T22:04:08.965,2026-03-29T18:04:08.965,-31850.594999999998,-50363.64,-85927.86,-50394.825,-15959.88,-20930.715,4316.445,-49653.45,-1.8942782319932467,3.0381290862279773,5.182767459870702,-8.422739453392259,-7.213764764989241,-6.473952696551106,-0.0724469018889663,1.1748725598733205,0.12121551,-0.913632915,0.415099035,-15.839879999999999,1.11398,5.60042,72.0
1774821848.9695697,0.0036804676055908203,2026-03-29T22:04:08.969,2026-03-29T18:04:08.969,-31759.965,-50298.075,-85905.09,-50354.145,-15936.345,-20889.719999999998,4354.0199999999995,-49591.575,1.8615775328762612,6.113554039352619,15.373035848450229,5.273459219845162,-10.023351964360362,-7.918122819910094,-7.201605987493693,-3.6245513751764866,0.11822479500000001,-0.92370369,0.403990665,-8.9271,-1.4191799999999999,6.4397199999999994,72.0
1774821848.9695852,1.5497207641601562e-05,2026-03-29T22:04:08.969,2026-03-29T18:04:08.969,-31633.379999999997,-50169.869999999995,-85737.69,-50245.064999999995,-15859.439999999999,-20825.64,4479.3,-49461.57,3.955724376864227,5.309503468578113,16.64250653399762,14.722089577353803,-9.640184422539686,-7.1127778895417855,-11.956754115447072,-7.661870247085921,0.11822479500000001,-0.92370369,0.403990665,-8.9271,-1.4191799999999999,6.4397199999999994,72.0
1774821848.9735825,0.003997325897216797,2026-03-29T22:04:08.973,2026-03-29T18:04:08.973,-31659.3,-50171.265,-85678.47,-50269.095,-15860.295,-20842.649999999998,4503.105,-49476.555,3.5146743554816133,1.067146773234988,8.339465220299152,15.281312631596778,-5.803034712338985,-3.868844786644389,-12.178820749519451,-9.023000350349799,0.11822479500000001,-0.92370369,0.403990665,-8.9271,-1.4191799999999999,6.4397199999999994,72.0
1774821848.9736092,2.6702880859375e-05,2026-03-29T22:04:08.973,2026-03-29T18:04:08.973,-31756.995,-50260.545,-85754.34,-50346.134999999995,-15910.064999999999,-20898.135,4421.43,-49559.939999999995,1.1764231749495264,-4.09633886710924,-4.8473786595316755,7.380247492595385,0.627728611816375,1.2973389425946027,-7.320059275505307,-6.644263099715903,0.11822479500000001,-0.92370369,0.403990665,-8.9271,-1.4191799999999999,6.4397199999999994,72.0
1774821848.9773495,0.0037403106689453125,2026-03-29T22:04:08.977,2026-03-29T18:04:08.977,-31802.129999999997,-50322.195,-85871.925,-50313.689999999995,-15917.805,-20911.32,4388.985,-49569.705,-1.4032792575840622,-6.993869127736669,-15.405366630094315,-3.978702234533575,7.634455548971378,6.937380562709319,1.0937969996424828,-1.0093803673399993,0.11822479500000001,-0.92370369,0.403990665,-8.9271,-1.4191799999999999,6.4397199999999994,72.0
1774821848.9773767,2.7179718017578125e-05,2026-03-29T22:04:08.977,2026-03-29T18:04:08.977,-31802.355,-50337.99,-85966.92,-50359.32,-15945.615,-20927.52,4377.87,-49546.619999999995,-2.5895129944511273,-5.620921020116715,-17.12788628006379,-12.152864624975267,12.51921731445665,10.885219448552602,9.816649639089,5.789593116472584,0.11822479500000001,-0.92370369,0.403990665,-8.9271,-1.4191799999999999,6.4397199999999994,72.0
1774821848.981681,0.004304409027099609,2026-03-29T22:04:08.981,2026-03-29T18:04:08.981,-31763.204999999998,-50276.655,-85841.64,-50327.505,-15908.039999999999,-20899.8,4380.165,-49524.479999999996,-1.7381549051765233,-0.4137126487461042,-8.636198049147136,-12.579843809551114,12.896276002485449,11.039264604316296,15.06258849793725,10.789531473092072,0.11822479500000001,-0.92370369,0.403990665,-8.9271,-1.4191799999999999,6.4397199999999994,72.0
1774821848.9817083,2.7179718017578125e-05,2026-03-29T22:04:08.981,2026-03-29T18:04:08.981,-31740.93,-50245.38,-85776.165,-50363.46,-15893.595,-20876.85,4390.5599999999995,-49545.63,0.4578550701848699,5.837011032330543,5.6620840627062226,-5.255010256512334,7.8656880438710965,6.462963063034309,14.131604502693262,11.45682097847346,0.11822479500000001,-0.92370369,0.403990665,-8.9271,-1.4191799999999999,6.4397199999999994,72.0
1774821848.9854877,0.0037794113159179688,2026-03-29T22:04:08.985,2026-03-29T18:04:08.985,-31754.16,-50244.479999999996,-85774.545,-50396.939999999995,-15902.46,-20892.645,4405.1849999999995,-49559.895,2.431633673638684,9.442380382898667,17.7961232246754,5.357016579709262,-1.2117519918662631,-1.7652375983469477,6.795117137481882,6.977821669367511,0.11822479500000001,-0.92370369,0.403990665,-8.9271,-1.4191799999999999,6.4397199999999994,72.0
1774821848.9855075,1.9788742065429688e-05,2026-03-29T22:04:08.985,2026-03-29T18:04:08.985,-31755.105,-50250.24,-85762.8,-50391.045,-15927.93,-20913.93,4444.514999999999,-49531.545,2.7313790448279667,7.89466213770566,20.537014069509798,12.892930795490088,-10.876553350022052,-10.550150711234545,-4.26687726445009,-1.1195985544831133,0.11822479500000001,-0.92370369,0.403990665,-8.9271,-1.4191799999999999,6.4397199999999994,72.0
1774821848.9896395,0.00413203239440918,2026-03-29T22:04:08.989,2026-03-29T18:04:08.989,-31777.515,-50279.22,-85775.04,-50389.47,-15975.045,-20946.149999999998,4442.8949999999995,-49527.18,0.9479624838267433,1.428221756680078,11.503735461969676,12.711753484579816,-16.826139795739202,-15.874183328806334,-14.347795344233457,-9.421204190204325,0.12414519,-0.925473705,0.40881243,0.21364,2.3653,6.72966,72.0
1774821848.9896517,1.2159347534179688e-05,2026-03-29T22:04:08.989,2026-03-29T18:04:08.989,-31796.954999999998,-50265.765,-85721.44499999999,-50316.84,-15964.019999999999,-20938.454999999998,4379.985,-49592.159999999996,-1.9732863283536204,-6.8565300497212665,-5.198244631783317,4.567825719235683,-15.849402677750358,-14.6467555202827,-18.690876962415967,-14.066846041822993,0.12414519,-0.925473705,0.40881243,0.21364,2.3653,6.72966,72.0
1774821848.993496,0.0038442611694335938,2026-03-29T22:04:08.993,2026-03-29T18:04:08.993,-31785.39,-50250.735,-85710.59999999999,-50314.409999999996,-15937.515,-20906.46,4363.785,-49601.61,-4.238709276637887,-12.478782240238724,-20.82890554435842,-7.147300459007703,-7.563504340838245,-6.453537146440593,-14.748173810725593,-12.570377958059103,0.12414519,-0.925473705,0.40881243,0.21364,2.3653,6.72966,72.0
1774821848.9935126,1.6689300537109375e-05,2026-03-29T22:04:08.993,2026-03-29T18:04:08.993,-31766.625,-50254.784999999996,-85755.915,-50348.744999999995,-15920.685,-20897.145,4375.889999999999,-49573.619999999995,-4.258303823801171,-11.960627067331071,-26.52746988020134,-15.757027082936151,4.986346938587494,5.767511450466788,-3.644616950379625,-5.151475644744553,0.12414519,-0.925473705,0.40881243,0.21364,2.3653,6.72966,72.0
1774821848.9972577,0.0037450790405273438,2026-03-29T22:04:08.997,2026-03-29T18:04:08.997,-31748.489999999998,-50261.67,-85803.93,-50370.255,-15911.865,-20888.91,4373.955,-49546.35,-1.6436106669267343,-4.852873614603199,-18.174770926902337,-15.992290607308908,16.358754113593427,16.679461238415584,9.98080430375783,5.13286856584744,0.12414519,-0.925473705,0.40881243,0.21364,2.3653,6.72966,72.0
1774821848.9972787,2.09808349609375e-05,2026-03-29T22:04:08.997,2026-03-29T18:04:08.997,-31713.12,-50225.939999999995,-85755.105,-50299.47,-15871.859999999999,-20854.98,4420.71,-49509.18,2.440385028212812,5.737731070984231,1.013032484468159,-7.019921265394201,21.087905772309806,20.886857831272273,19.872739297514702,13.634423591505193,0.12414519,-0.925473705,0.40881243,0.21364,2.3653,6.72966,72.0
1774821849.0016484,0.0043697357177734375,2026-03-29T22:04:09.001,2026-03-29T18:04:09.001,-31740.84,-50236.064999999995,-85731.25499999999,-50284.17,-15873.84,-20855.07,4443.525,-49523.22,5.813332969916069,14.516854567870443,21.68805457364601,6.873466704936324,16.358421998192913,15.634887300834388,21.046122576089147,16.238949284614762,0.12414519,-0.925473705,0.40881243,0.21364,2.3653,6.72966,72.0
1774821849.0016675,1.9073486328125e-05,2026-03-29T22:04:09.001,2026-03-29T18:04:09.001,-31747.274999999998,-50241.689999999995,-85750.65,-50314.229999999996,-15912.09,-20889.54,4444.0199999999995,-49547.7,6.4511624877423,16.66015183885343,32.943222100672436,18.385151143223712,3.6546044556346162,2.504270823327643,12.32522078431343,11.389638524941684,0.12414519,-0.925473705,0.40881243,0.21364,2.3653,6.72966,72.0
1774821849.0110774,0.009409904479980469,2026-03-29T22:04:09.011,2026-03-29T18:04:09.011,-31788.405,-50304.915,-85843.62,-50369.67,-15977.295,-20954.745,4383.495,-49603.32,3.659743067435668,10.420165550050646,28.00662122717883,21.032759851912648,-11.568480052643666,-12.902315231619994,-2.7683532012997776,1.0014252633896459,0.12414519,-0.925473705,0.40881243,0.21364,2.3653,6.72966,72.0
1774821849.01111,3.266334533691406e-05,2026-03-29T22:04:09.011,2026-03-29T18:04:09.011,-31823.774999999998,-50350.229999999996,-85920.75,-50430.6,-16009.83,-20986.155,4277.115,-49662.18,-1.4154076306405277,-1.7123323983472651,8.10164005434921,12.708257036869332,-22.224959172898973,-23.34731320826131,-17.37601105375342,-10.2617195220506,0.12414519,-0.925473705,0.40881243,0.21364,2.3653,6.72966,72.0
1774821849.011141,3.0994415283203125e-05,2026-03-29T22:04:09.011,2026-03-29T18:04:09.011,-31761.719999999998,-50278.545,-85832.37,-50366.61,-15932.789999999999,-20917.17,4352.58,-49595.805,-6.27132245299611,-14.000252155319007,-17.661509178282117,-2.967608283505242,-22.95015781095361,-23.407003033570295,-24.424919882448528,-17.094805747586697,0.12512175,-0.91283946,0.42431532,-2.88414,8.20988,4.63904,72.0
1774821849.0111523,1.1205673217773438e-05,2026-03-29T22:04:09.011,2026-03-29T18:04:09.011,-31726.215,-50238.81,-85775.175,-50345.415,-15901.83,-20880.675,4446.045,-49493.115,-8.313631077855367,-20.21373937970842,-36.516564345854746,-18.28556059142141,-12.856220323404548,-12.317789364055407,-20.091194871994187,-16.08786462658312,0.12512175,-0.91283946,0.42431532,-2.88414,8.20988,4.63904,72.0
1774821849.0137904,0.002638101577758789,2026-03-29T22:04:09.013,2026-03-29T18:04:09.013,-31756.68,-50259.33,-85781.16,-50372.549999999996,-15925.005,-20900.16,4414.41,-49518.225,-6.254144245921961,-16.806166542259287,-38.40215911295594,-25.310511985290503,3.7451747287807997,5.2844961695253145,-5.891935260059301,-7.463010626794877,0.12512175,-0.91283946,0.42431532,-2.88414,8.20988,4.63904,72.0
1774821849.013804,1.3589859008789062e-05,2026-03-29T22:04:09.013,2026-03-29T18:04:09.013,-31811.445,-50283.18,-85773.465,-50351.354999999996,-15917.039999999999,-20888.145,4414.635,-49588.47,-0.883749372821621,-4.884636197414341,-21.265157099832933,-20.00285668691767,19.16096912796026,21.278160046711633,11.742792821083544,4.884975643428927,0.12512175,-0.91283946,0.42431532,-2.88414,8.20988,4.63904,72.0
1774821849.017796,0.0039920806884765625,2026-03-29T22:04:09.017,2026-03-29T18:04:09.017,-31790.52,-50272.38,-85774.635,-50341.905,-15904.529999999999,-20870.594999999998,4424.22,-49582.755,5.229602495186288,10.10297664929784,7.470222170845007,-4.452305724028337,25.92448421981532,27.848541120792568,24.37269226799642,15.144655730026095,0.12512175,-0.91283946,0.42431532,-2.88414,8.20988,4.63904,72.0
1774821849.0178168,2.0742416381835938e-05,2026-03-29T22:04:09.017,2026-03-29T18:04:09.017,-31752.809999999998,-50239.305,-85730.58,-50288.22,-15870.195,-20846.88,4448.79,-49537.17,9.004729868360414,20.908041828259083,34.183883777330294,13.983797808478219,20.48296937277959,21.369479398825494,25.62140045270045,18.35183018198577,0.12512175,-0.91283946,0.42431532,-2.88414,8.20988,4.63904,72.0
1774821849.0231795,0.005362749099731445,2026-03-29T22:04:09.023,2026-03-29T18:04:09.023,-31750.965,-50245.65,-85740.61499999999,-50271.884999999995,-15871.455,-20860.695,4448.925,-49513.5,8.436914842085494,22.042508074573703,45.612409328373296,26.262817245605564,5.114382070466405,4.419160688918221,14.441187224840077,12.835771325104652,0.12512175,-0.91283946,0.42431532,-2.88414,8.20988,4.63904,72.0
1774821849.0231912,1.1682510375976562e-05,2026-03-29T22:04:09.023,2026-03-29T18:04:09.023,-31734.585,-50245.02,-85773.42,-50290.29,-15885.675,-20879.145,4429.3949999999995,-49499.145,3.679779997569014,12.58780170657026,35.47708945842803,26.174094375812164,-12.977247642092038,-15.192563104392836,-4.121259578790577,1.125203267619702,0.12512175,-0.91283946,0.42431532,-2.88414,8.20988,4.63904,72.0
1774821849.0292628,0.006071567535400391,2026-03-29T22:04:09.029,2026-03-29T18:04:09.029,-31745.024999999998,-50262.21,-85830.345,-50364.854999999996,-15947.234999999999,-20928.42,4379.535,-49547.88,-2.970213356918637,-3.1967975695837776,7.853347535907752,13.50093711460634,-25.058070736168407,-28.052089057112962,-21.174725035160247,-11.18817758422315,0.12512175,-0.91283946,0.42431532,-2.88414,8.20988,4.63904,72.0
1774821849.0292828,2.002716064453125e-05,2026-03-29T22:04:09.029,2026-03-29T18:04:09.029,-31763.745,-50287.77,-85845.825,-50413.095,-15972.66,-20943.765,4378.86,-49551.615,-8.209195765643587,-17.83728897914989,-24.502987434436932,-5.792850795316382,-25.14336782837026,-27.727583184645184,-28.262059955388327,-18.12951799294312,0.12512175,-0.91283946,0.42431532,-2.88414,8.20988,4.63904,72.0
1774821849.0293007,1.7881393432617188e-05,2026-03-29T22:04:09.029,2026-03-29T18:04:09.029,-31764.059999999998,-50299.65,-85855.14,-50401.89,-15963.345,-20939.67,4387.005,-49526.145,-9.409996857181138,-24.256442487455683,-46.16898729143628,-22.466902465537004,-13.0365177995776,-14.049707305183782,-21.60041241451061,-16.276408284694963,0.11791962,-0.90844494,0.42053115,-8.40826,5.63094,5.890359999999999,72.0
1774821849.0293076,6.9141387939453125e-06,2026-03-29T22:04:09.029,2026-03-29T18:04:09.029,-31750.739999999998,-50303.744999999995,-85877.37,-50385.645,-15956.73,-20943.585,4332.33,-49560.615,-5.980712193274175,-19.257832704362528,-46.51882729439416,-28.545594379382784,5.444409215492332,6.611104517109089,-4.137962257235381,-6.493824529498717,0.11791962,-0.90844494,0.42053115,-8.40826,5.63094,5.890359999999999,72.0
1774821849.0403032,0.010995626449584961,2026-03-29T22:04:09.040,2026-03-29T18:04:09.040,-31746.645,-50267.43,-85809.105,-50329.53,-15906.51,-20896.965,4321.665,-49616.549999999996,0.32018073359794147,-5.139894920447533,-24.976044403443844,-21.217450465380843,21.249867975159397,24.316479806970573,15.702821318482883,6.428999959596918,0.11791962,-0.90844494,0.42053115,-8.40826,5.63094,5.890359999999999,72.0
1774821849.0403278,2.4557113647460938e-05,2026-03-29T22:04:09.040,2026-03-29T18:04:09.040,-31766.489999999998,-50225.759999999995,-85719.51,-50268.735,-15840.539999999999,-20831.309999999998,4383.945,-49624.2,6.289097169881622,11.386003753991739,8.563346041568044,-4.149831238540461,26.565615787160375,30.392936847540952,28.086301963216364,16.107619957068916,0.11791962,-0.90844494,0.42053115,-8.40826,5.63094,5.890359999999999,72.0
1774821849.0403464,1.8596649169921875e-05,2026-03-29T22:04:09.040,2026-03-29T18:04:09.040,-31744.17,-50203.979999999996,-85684.815,-50254.965,-15839.369999999999,-20822.175,4455.179999999999,-49554.81,8.936683598210085,22.4551075037204,38.393781960820725,14.404223807820008,18.742962986085054,21.75280905727705,26.671438200966588,17.731282014138614,0.11791962,-0.90844494,0.42053115,-8.40826,5.63094,5.890359999999999,72.0
1774821849.040354,7.62939453125e-06,2026-03-29T22:04:09.040,2026-03-29T18:04:09.040,-31769.774999999998,-50253.705,-85737.465,-50278.95,-15912.72,-20893.59,4429.26,-49525.695,7.031524702267655,22.875125205944084,50.50174510725855,25.710504318494976,1.68875450802195,2.5207049935694203,11.903416444564604,10.493230179816143,0.11791962,-0.90844494,0.42053115,-8.40826,5.63094,5.890359999999999,72.0
1774821849.0403628,8.821487426757812e-06,2026-03-29T22:04:09.040,2026-03-29T18:04:09.040,-31773.87,-50271.345,-85746.51,-50254.38,-15934.994999999999,-20925.36,4423.32,-49507.92,1.7141213349792892,12.621977900415738,39.25859777387698,24.783483640926516,-16.039990896565175,-17.911886735241104,-9.036611832209234,-1.9601054508188283,0.11791962,-0.90844494,0.42053115,-8.40826,5.63094,5.890359999999999,72.0
1774821849.0403693,6.4373016357421875e-06,2026-03-29T22:04:09.040,2026-03-29T18:04:09.040,-31795.379999999997,-50322.24,-85853.87999999999,-50270.534999999996,-15989.085,-20981.835,4340.7,-49572.72,-4.142384475864245,-3.2213472248653336,10.058485956051577,12.642890566062892,-25.52486423082401,-29.496094550567207,-25.701210811555985,-13.326946387975848,0.11791962,-0.90844494,0.42053115,-8.40826,5.63094,5.890359999999999,72.0
1774821849.0451615,0.004792213439941406,2026-03-29T22:04:09.045,2026-03-29T18:04:09.045,-31837.184999999998,-50417.369999999995,-86081.08499999999,-50430.869999999995,-16062.48,-21043.8,4239.855,-49658.04,-7.480803929507087,-17.02502862455066,-23.346853868214726,-4.4525006478816405,-22.00892361442072,-26.525684270685417,-29.59816081902617,-17.82360652591156,0.11791962,-0.90844494,0.42053115,-8.40826,5.63094,5.890359999999999,72.0
1774821849.0451703,8.821487426757812e-06,2026-03-29T22:04:09.045,2026-03-29T18:04:09.045,-31876.02,-50447.744999999995,-86117.4,-50442.03,-15995.474999999999,-20995.605,4241.385,-49691.97,-6.686362724829301,-22.367515725820397,-45.46961752303814,-18.29289151305726,-7.344833109423017,-10.515044069661991,-18.548955262099504,-13.141071899873662,0.11791962,-0.90844494,0.42053115,-8.40826,5.63094,5.890359999999999,72.0
1774821849.0549576,0.009787321090698242,2026-03-29T22:04:09.054,2026-03-29T18:04:09.054,-31777.11,-50325.57,-85977.54,-50435.009999999995,-15868.619999999999,-20857.77,4408.875,-49540.229999999996,-2.4165675758680374,-17.104473597268672,-46.41376683136878,-22.78046731766837,10.915016565467234,10.523218360241433,2.0653595382908687,-1.6683064462737274,0.11633271,-0.908750115,0.413512125,-7.2485,0.6867,7.00434,72.0
1774821849.0549788,2.1219253540039062e-05,2026-03-29T22:04:09.054,2026-03-29T18:04:09.054,-31694.76,-50231.79,-85889.87999999999,-50507.82,-15841.619999999999,-20803.32,4568.13,-49411.619999999995,2.8105731886965146,-4.249099285658639,-26.376928030235554,-16.70812670099804,23.363230322785363,26.07545599061434,21.8889495410362,10.67844071316415,0.11633271,-0.908750115,0.413512125,-7.2485,0.6867,7.00434,72.0
1774821849.054999,2.0265579223632812e-05,2026-03-29T22:04:09.054,2026-03-29T18:04:09.054,-31709.925,-50212.17,-85780.845,-50439.284999999996,-15869.34,-20845.395,4522.86,-49435.424999999996,6.040827149390223,9.70929799313782,4.756963059672064,-3.9445713422259603,23.57443065437693,28.40773960697056,30.77937154115428,17.464751519104656,0.11633271,-0.908750115,0.413512125,-7.2485,0.6867,7.00434,72.0
1774821849.055006,6.9141387939453125e-06,2026-03-29T22:04:09.055,2026-03-29T18:04:09.055,-31732.065,-50218.02,-85714.515,-50403.465,-15926.49,-20898.945,4387.95,-49521.915,5.536308403385528,18.127488543627297,32.38814773346244,8.897318446549138,11.449647510284473,16.465320976205767,24.00345169369721,15.069852377934186,0.11633271,-0.908750115,0.413512125,-7.2485,0.6867,7.00434,72.0
1774821849.0576003,0.0025942325592041016,2026-03-29T22:04:09.057,2026-03-29T18:04:09.057,-31729.41,-50213.79,-85661.91,-50345.415,-15942.465,-20923.38,4389.705,-49522.994999999995,1.7410203961468464,17.453795855085566,44.19826683132094,15.9528750601413,-6.682610774105171,-3.5969927763889413,4.774996815429756,4.623486106559273,0.11633271,-0.908750115,0.413512125,-7.2485,0.6867,7.00434,72.0
1774821849.0576086,8.344650268554688e-06,2026-03-29T22:04:09.057,2026-03-29T18:04:09.057,-31745.114999999998,-50198.67,-85620.42,-50287.409999999996,-15911.369999999999,-20896.739999999998,4462.335,-49511.115,-2.9845865827628115,8.776581554089162,35.755976707646006,14.893150740444115,-21.30513111643276,-21.542255915331463,-17.231472565385218,-8.488829954129926,0.11633271,-0.908750115,0.413512125,-7.2485,0.6867,7.00434,72.0
1774821849.0618155,0.00420689582824707,2026-03-29T22:04:09.061,2026-03-29T18:04:09.061,-31738.77,-50185.53,-85608.855,-50243.354999999996,-15871.365,-20873.655,4466.295,-49502.07,-5.725344485439767,-3.0244576717810063,12.128000976493462,7.634825588765417,-24.654364769900663,-28.261880742437953,-30.720353466651083,-17.353325560455144,0.11633271,-0.908750115,0.413512125,-7.2485,0.6867,7.00434,72.0
1774821849.061836,2.0503997802734375e-05,2026-03-29T22:04:09.061,2026-03-29T18:04:09.061,-31728.149999999998,-50190.795,-85655.11499999999,-50265.494999999995,-15868.664999999999,-20884.905,4427.054999999999,-49512.42,-4.716963279723926,-11.975674797945526,-15.059831994398811,-1.2114388479408265,-14.817173643211497,-20.419643741885334,-28.55558502100796,-17.12404345916225,0.11633271,-0.908750115,0.413512125,-7.2485,0.6867,7.00434,72.0
1774821849.0656486,0.003812551498413086,2026-03-29T22:04:09.065,2026-03-29T18:04:09.065,-31753.215,-50238.405,-85736.655,-50302.53,-15891.84,-20894.895,4417.0199999999995,-49539.555,-0.4300109242058083,-14.08362004163594,-33.44622662770192,-7.120907095191677,3.1707383476315556,-2.152396798098883,-11.528363824426904,-7.634078891228517,0.11633271,-0.908750115,0.413512125,-7.2485,0.6867,7.00434,72.0
1774821849.0656693,2.0742416381835938e-05,2026-03-29T22:04:09.065,2026-03-29T18:04:09.065,-31757.489999999998,-50247.54,-85757.895,-50304.42,-15889.095,-20876.535,4422.69,-49554.674999999996,4.6116767758845185,-9.185970887943917,-35.68466708590175,-8.04242354311015,19.85294222006991,17.05607137688766,11.87455086418524,6.371137755987792,0.11633271,-0.908750115,0.413512125,-7.2485,0.6867,7.00434,72.0
1774821849.0697875,0.004118204116821289,2026-03-29T22:04:09.069,2026-03-29T18:04:09.069,-31771.8,-50270.58,-85799.52,-50335.064999999995,-15902.73,-20873.024999999998,4430.34,-49543.515,7.227528026524581,-0.6900619904999372,-22.38793244637167,-5.10894185998668,26.254252834773208,27.253530581169834,29.67462298242543,17.573295455257163,0.12097137000000001,-0.913144635,0.41711319,-5.06632,0.6409199999999999,7.477399999999999,72.0
1774821849.0698104,2.288818359375e-05,2026-03-29T22:04:09.069,2026-03-29T18:04:09.069,-31779.405,-50284.619999999995,-85825.665,-50359.68,-15921.81,-20899.44,4420.17,-49541.939999999995,5.446969915377388,6.5387849177257245,-1.0834953060206773,-1.420670001247522,18.638296521100497,23.154843538184814,32.50331253435765,19.852153912928824,0.12097137000000001,-0.913144635,0.41711319,-5.06632,0.6409199999999999,7.477399999999999,72.0
1774821849.0751913,0.005380868911743164,2026-03-29T22:04:09.075,2026-03-29T18:04:09.075,-31786.739999999998,-50310.225,-85847.58,-50373.63,-15983.82,-20972.25,4374.9,-49550.895,-0.20462717359816493,8.907010387695212,17.97805475224537,0.22186884971239706,0.6233769162882927,6.890729710238473,18.502077043768438,11.562969144345104,0.12097137000000001,-0.913144635,0.41711319,-5.06632,0.6409199999999999,7.477399999999999,72.0
1774821849.0752194,2.8133392333984375e-05,2026-03-29T22:04:09.075,2026-03-29T18:04:09.075,-31814.055,-50330.88,-85864.455,-50358.645,-16013.115,-21002.355,4306.095,-49589.595,-6.781627502689692,5.932113358848683,26.856090780657492,-0.8186014091024889,-18.51727813179312,-13.063022561240928,-5.531945102405311,-3.411773677815472,0.12097137000000001,-0.913144635,0.41711319,-5.06632,0.6409199999999999,7.477399999999999,72.0
1774821849.078031,0.0028116703033447266,2026-03-29T22:04:09.078,2026-03-29T18:04:09.078,-31825.44,-50306.265,-85821.39,-50353.02,-16005.779999999999,-20980.89,4296.33,-49624.83,-10.411792786462456,0.23070522244778432,23.2820821871699,-2.7134994296102315,-28.579518361910445,-26.249875657517975,-27.433405966139496,-17.46810773469916,0.12097137000000001,-0.913144635,0.41711319,-5.06632,0.6409199999999999,7.477399999999999,72.0
1774821849.0780573,2.6226043701171875e-05,2026-03-29T22:04:09.078,2026-03-29T18:04:09.078,-31728.87,-50241.645,-85760.145,-50340.195,-15930.945,-20903.04,4320.45,-49571.64,-8.464700615358344,-4.249227172365609,10.90203182180345,-2.598855306156208,-23.785729000057543,-25.66002731466087,-35.80287311637108,-23.109551499308417,0.12097137000000001,-0.913144635,0.41711319,-5.06632,0.6409199999999999,7.477399999999999,72.0
1774821849.0815284,0.0034711360931396484,2026-03-29T22:04:09.081,2026-03-29T18:04:09.081,-31691.699999999997,-50236.604999999996,-85749.795,-50309.055,-15840.18,-20820.195,4403.655,-49493.07,-1.2169534590060318,-4.678505781001828,-3.3500008458465746,1.1820346749642183,-5.990897745543294,-11.421142466865684,-25.900689178679446,-16.88179567336627,0.12097137000000001,-0.913144635,0.41711319,-5.06632,0.6409199999999999,7.477399999999999,72.0
1774821849.0815506,2.2172927856445312e-05,2026-03-29T22:04:09.081,2026-03-29T18:04:09.081,-31737.195,-50282.369999999995,-85795.73999999999,-50301.09,-15831.855,-20828.7,4414.1849999999995,-49506.84,7.971023349509511,-1.0442290753225623,-13.080274446429343,7.494360800750238,16.003376842348036,9.178150260866635,-2.265824466165343,-1.369306591224594,0.12097137000000001,-0.913144635,0.41711319,-5.06632,0.6409199999999999,7.477399999999999,72.0
1774821849.0932837,0.011733055114746094,2026-03-29T22:04:09.093,2026-03-29T18:04:09.093,-31819.815,-50348.205,-85893.795,-50406.57,-15887.88,-20867.985,4422.87,-49564.439999999995,14.198802778746835,3.89058582487143,-15.374806767856649,12.617515194850357,30.79208601308662,25.387875507200015,23.36388331321079,15.861803238367827,0.12097137000000001,-0.913144635,0.41711319,-5.06632,0.6409199999999999,7.477399999999999,72.0
1774821849.0932968,1.3113021850585938e-05,2026-03-29T22:04:09.093,2026-03-29T18:04:09.093,-31848.164999999997,-50338.979999999996,-85872.95999999999,-50379.03,-15906.33,-20889.0,4449.78,-49590.494999999995,13.587235640659866,6.341575877684743,-11.46769427348321,12.312269869669958,30.225696819340406,28.551062306754346,37.87728492808105,25.951851882326693,0.12097137000000001,-0.913144635,0.41711319,-5.06632,0.6409199999999999,7.477399999999999,72.0
1774821849.093308,1.1205673217773438e-05,2026-03-29T22:04:09.093,2026-03-29T18:04:09.093,-31771.844999999998,-50270.715,-85776.795,-50320.845,-15876.539999999999,-20870.505,4458.78,-49529.43,5.536157712522741,3.9456149512102536,-5.127772812863301,4.640369457661655,13.792969023857768,16.661301617969915,33.46862052825318,23.26851630293648,0.127624185,-0.9118629,0.429869505,-4.28806,4.5017,7.0196,72.0
1774821849.0933125,4.5299530029296875e-06,2026-03-29T22:04:09.093,2026-03-29T18:04:09.093,-31748.039999999997,-50231.655,-85723.2,-50319.36,-15870.914999999999,-20858.355,4465.98,-49506.659999999996,-6.585029086632413,-2.5639441375067826,0.00518834873548548,-8.171219507789136,-10.792185927827461,-4.452987790384077,11.775192274381762,8.464527186148539,0.127624185,-0.9118629,0.429869505,-4.28806,4.5017,7.0196,72.0
1774821849.0933175,5.0067901611328125e-06,2026-03-29T22:04:09.093,2026-03-29T18:04:09.093,-31766.625,-50228.28,-85727.11499999999,-50339.475,-15892.875,-20873.25,4441.275,-49531.814999999995,-16.82999748861159,-9.504713376480998,2.462086904026671,-20.144368140547574,-31.232904089685302,-23.98783192766381,-16.698317242295992,-11.558975276502384,0.127624185,-0.9118629,0.429869505,-4.28806,4.5017,7.0196,72.0
1774821849.0933213,3.814697265625e-06,2026-03-29T22:04:09.093,2026-03-29T18:04:09.093,-31758.795,-50232.825,-85758.3,-50367.015,-15911.64,-20897.864999999998,4410.675,-49537.395,-19.58606099011648,-12.245367402400994,3.2380577723458885,-24.344589938096195,-36.7908305566286,-31.661335284390965,-37.68606450249497,-26.889204149209537,0.127624185,-0.9118629,0.429869505,-4.28806,4.5017,7.0196,72.0
1774821849.0976095,0.004288196563720703,2026-03-29T22:04:09.097,2026-03-29T18:04:09.097,-31775.895,-50283.405,-85818.915,-50411.34,-15963.345,-20961.495,4333.005,-49572.945,-12.579317885648758,-7.998717757405802,4.372039989944237,-16.747763013324647,-23.860574772326576,-23.06148547088251,-40.30544942833542,-29.51186715804263,0.127624185,-0.9118629,0.429869505,-4.28806,4.5017,7.0196,72.0
1774821849.0976214,1.1920928955078125e-05,2026-03-29T22:04:09.097,2026-03-29T18:04:09.097,-31804.199999999997,-50313.555,-85847.265,-50421.735,-15984.72,-20982.78,4299.165,-49627.305,1.6109573585166685,2.188995801916482,6.913271091368414,0.9275541028694749,1.8938491014927232,-2.0845543271273055,-22.659669724090406,-17.459319745368866,0.127624185,-0.9118629,0.429869505,-4.28806,4.5017,7.0196,72.0
1774821849.1014273,0.003805875778198242,2026-03-29T22:04:09.101,2026-03-29T18:04:09.101,-31733.73,-50244.705,-85779.27,-50355.99,-15930.0,-20920.77,4399.514999999999,-49552.11,16.447803749576533,13.502170143722298,9.722874927242746,21.195816697853395,28.045358826956782,20.85030591313949,6.9729307097419,3.9371103740627333,0.127624185,-0.9118629,0.429869505,-4.28806,4.5017,7.0196,72.0
1774821849.1014388,1.1444091796875e-05,2026-03-29T22:04:09.101,2026-03-29T18:04:09.101,-31716.495,-50192.46,-85695.93,-50267.924999999996,-15847.335,-20836.35,4482.405,-49504.275,24.4644135299939,19.639571523160047,9.994494310530024,33.98283771663506,41.43235194229569,33.982697668955495,34.05762404629807,24.429192815340716,0.127624185,-0.9118629,0.429869505,-4.28806,4.5017,7.0196,72.0
1774821849.105884,0.004445314407348633,2026-03-29T22:04:09.105,2026-03-29T18:04:09.105,-31718.114999999998,-50230.17,-85756.455,-50307.795,-15892.965,-20879.28,4438.08,-49501.439999999995,21.014350237361352,16.230587816146922,5.249452868449115,31.656147031512962,34.769869361440435,30.207386332335403,44.95880879025965,33.793858740113905,0.127624185,-0.9118629,0.429869505,-4.28806,4.5017,7.0196,72.0
1774821849.1058967,1.2636184692382812e-05,2026-03-29T22:04:09.105,2026-03-29T18:04:09.105,-31743.855,-50287.95,-85861.34999999999,-50362.515,-15950.295,-20935.98,4365.585,-49546.799999999996,6.861685213894357,3.563041244642196,-4.447971274066357,13.384533842398081,10.525201299344609,10.838963033327849,33.79592004739348,26.936653795291395,0.127624185,-0.9118629,0.429869505,-4.28806,4.5017,7.0196,72.0
1774821849.10962,0.0037233829498291016,2026-03-29T22:04:09.109,2026-03-29T18:04:09.109,-31745.925,-50294.744999999995,-85876.56,-50391.27,-15975.63,-20956.364999999998,4383.495,-49530.645,-11.79858696455047,-12.972136666648769,-15.577548298363887,-13.59780492319461,-19.97337753047321,-14.82228085029557,5.553123748399828,6.604968738653891,0.126159345,-0.913754985,0.434264025,-5.5699,5.70724,7.66052,72.0
1774821849.109642,2.193450927734375e-05,2026-03-29T22:04:09.109,2026-03-29T18:04:09.109,-31764.42,-50281.92,-85812.84,-50369.085,-15921.539999999999,-20901.465,4442.76,-49525.56,-26.07122528151518,-25.189933415129754,-22.40120194363968,-36.823210861798486,-41.88518098647946,-33.99280586709446,-26.180180174188216,-17.715036848408218,0.126159345,-0.913754985,0.434264025,-5.5699,5.70724,7.66052,72.0
1774821849.113816,0.004173994064331055,2026-03-29T22:04:09.113,2026-03-29T18:04:09.113,-31800.555,-50282.189999999995,-85783.23,-50377.5,-15903.945,-20891.114999999998,4389.525,-49593.869999999995,-28.63082196049484,-26.178605384102063,-19.93752099685743,-44.4312839505168,-44.113134501251075,-36.78051616586465,-45.79773014401851,-34.27484260012004,0.126159345,-0.913754985,0.434264025,-5.5699,5.70724,7.66052,72.0
1774821849.1138427,2.6702880859375e-05,2026-03-29T22:04:09.113,2026-03-29T18:04:09.113,-31804.695,-50270.265,-85797.09,-50382.854999999996,-15896.564999999999,-20888.64,4337.1449999999995,-49634.82,-17.467534691470643,-14.095809100011524,-7.122257813911201,-31.24694397126707,-24.903594860696032,-21.248485157522882,-43.37652358739683,-34.77861660968353,0.126159345,-0.913754985,0.434264025,-5.5699,5.70724,7.66052,72.0
1774821849.12411,0.010267257690429688,2026-03-29T22:04:09.124,2026-03-29T18:04:09.124,-31748.309999999998,-50244.299999999996,-85789.08,-50316.075,-15868.439999999999,-20868.795,4386.6449999999995,-49559.265,2.8034306623061966,6.3532026269400275,11.718965816486124,-1.9707879657099237,7.0298546439782035,5.410468359999512,-19.67635561765448,-18.53832929786802,0.126159345,-0.913754985,0.434264025,-5.5699,5.70724,7.66052,72.0
1774821849.124139,2.9087066650390625e-05,2026-03-29T22:04:09.124,2026-03-29T18:04:09.124,-31707.225,-50206.005,-85718.34,-50232.375,-15842.519999999999,-20853.495,4477.32,-49479.57,22.853175606476327,25.72876054394028,28.21363674546861,30.385306041020574,36.51618200714842,30.253521273241642,14.074553570719987,7.014436639016635,0.126159345,-0.913754985,0.434264025,-5.5699,5.70724,7.66052,72.0
1774821849.124167,2.7894973754882812e-05,2026-03-29T22:04:09.124,2026-03-29T18:04:09.124,-31708.754999999997,-50218.424999999996,-85735.035,-50270.445,-15877.439999999999,-20894.489999999998,4496.3099999999995,-49456.395,32.97951347226597,34.2740926180782,33.75293677789109,50.36707403911404,49.19956765837137,40.912264928685616,41.55993155554888,29.78145510197321,0.126159345,-0.913754985,0.434264025,-5.5699,5.70724,7.66052,72.0
1774821849.1241791,1.2159347534179688e-05,2026-03-29T22:04:09.124,2026-03-29T18:04:09.124,-31745.475,-50245.695,-85754.565,-50308.155,-15890.984999999999,-20916.405,4449.6449999999995,-49505.67,27.835645436571284,26.842489097077692,23.99208573616045,47.56598106066487,38.56004260365019,31.753473326258735,49.31627124584722,38.78818559447763,0.126159345,-0.913754985,0.434264025,-5.5699,5.70724,7.66052,72.0
1774821849.1241927,1.3589859008789062e-05,2026-03-29T22:04:09.124,2026-03-29T18:04:09.124,-31766.129999999997,-50266.17,-85795.29,-50357.07,-15920.505,-20928.645,4402.665,-49538.025,9.22649611150884,5.838182907135125,1.6828427777996562,22.05173416509909,9.234259657967673,6.804828667437746,33.34500353296261,29.51223636521607,0.126159345,-0.913754985,0.434264025,-5.5699,5.70724,7.66052,72.0
1774821849.1242027,1.0013580322265625e-05,2026-03-29T22:04:09.124,2026-03-29T18:04:09.124,-31793.265,-50304.33,-85865.94,-50435.46,-15967.845,-20956.995,4330.26,-49559.13,-14.481383558257862,-19.45826447254678,-23.861201384949197,-15.09154469505982,-25.044488008324507,-22.055900612264193,1.1394324743124256,6.144682404687382,0.126159345,-0.913754985,0.434264025,-5.5699,5.70724,7.66052,72.0
1774821849.129858,0.0056552886962890625,2026-03-29T22:04:09.129,2026-03-29T18:04:09.129,-31815.629999999997,-50320.799999999996,-85843.98,-50412.24,-15966.359999999999,-20955.645,4333.095,-49571.1,-32.17017734744176,-37.057068936336286,-40.733363513658716,-46.644050044473445,-47.95358045811596,-40.81566431725852,-31.888936879097702,-20.34465982808282,0.12561003,-0.914121195,0.426207405,-4.66956,3.9828599999999996,6.01244,72.0
1774821849.129883,2.5033950805664062e-05,2026-03-29T22:04:09.129,2026-03-29T18:04:09.129,-31842.0,-50331.284999999996,-85832.50499999999,-50422.545,-15988.14,-20963.79,4349.025,-49620.375,-35.24404276875021,-38.016928905391815,-40.103835934381244,-57.36855639417753,-48.419237162269226,-40.16949829653092,-49.85454612299813,-37.42677758482964,0.12561003,-0.914121195,0.426207405,-4.66956,3.9828599999999996,6.01244,72.0
1774821849.1352496,0.00536656379699707,2026-03-29T22:04:09.135,2026-03-29T18:04:09.135,-31838.985,-50324.985,-85827.51,-50418.81,-15981.705,-20950.695,4356.855,-49643.415,-21.837037201337743,-20.994679245145758,-20.836087411706607,-41.48108532785489,-25.992883811480638,-20.13318498942954,-44.08577809635528,-37.00344552685762,0.12561003,-0.914121195,0.426207405,-4.66956,3.9828599999999996,6.01244,72.0
1774821849.135286,3.647804260253906e-05,2026-03-29T22:04:09.135,2026-03-29T18:04:09.135,-31808.43,-50297.49,-85794.61499999999,-50355.27,-15923.519999999999,-20894.399999999998,4395.87,-49613.085,2.1188853705709736,6.733097379327869,9.364118602236358,-5.762490634853212,8.855386118176865,9.861339985073236,-17.31432734788303,-19.274946490624973,0.12561003,-0.914121195,0.426207405,-4.66956,3.9828599999999996,6.01244,72.0
1774821849.1375196,0.0022335052490234375,2026-03-29T22:04:09.137,2026-03-29T18:04:09.137,-31742.145,-50236.064999999995,-85736.87999999999,-50301.63,-15862.275,-20846.295,4433.8949999999995,-49538.384999999995,25.55700819956321,32.43180171718444,37.07676346078084,33.36006672239534,39.692942370871805,35.46775718704441,17.660569639337414,7.37541891558831,0.12561003,-0.914121195,0.426207405,-4.66956,3.9828599999999996,6.01244,72.0
1774821849.137531,1.1444091796875e-05,2026-03-29T22:04:09.137,2026-03-29T18:04:09.137,-31692.105,-50182.74,-85668.3,-50229.18,-15824.205,-20820.645,4478.4,-49476.555,37.45713756817242,43.85585902172719,49.276701728914475,57.495990366834995,51.95479882412821,44.349054244748245,44.16184063975864,30.4072313507988,0.12561003,-0.914121195,0.426207405,-4.66956,3.9828599999999996,6.01244,72.0
1774821849.1421402,0.004609107971191406,2026-03-29T22:04:09.142,2026-03-29T18:04:09.142,-31724.055,-50224.365,-85705.56,-50253.615,-15869.205,-20858.85,4453.5599999999995,-49487.759999999995,32.08811058016086,35.15921223373457,39.57364608802052,55.08846065426892,39.88139886761951,32.155156892517056,49.653964937634434,39.09916483898916,0.12561003,-0.914121195,0.426207405,-4.66956,3.9828599999999996,6.01244,72.0
1774821849.1421735,3.337860107421875e-05,2026-03-29T22:04:09.142,2026-03-29T18:04:09.142,-31761.495,-50270.31,-85755.23999999999,-50264.369999999995,-15887.115,-20878.335,4417.514999999999,-49521.284999999996,11.789692264766437,9.882561551571968,11.540453081183154,27.050741637264483,9.233699884157215,4.643494392948586,31.70591124875371,29.593942696880067,0.12561003,-0.914121195,0.426207405,-4.66956,3.9828599999999996,6.01244,72.0
1774821849.1461468,0.003973245620727539,2026-03-29T22:04:09.146,2026-03-29T18:04:09.146,-31772.789999999997,-50287.409999999996,-85819.59,-50248.305,-15912.449999999999,-20901.69,4430.205,-49535.369999999995,-14.067079489410874,-20.50912378458652,-22.59805783629187,-13.55199975502609,-25.49875447326508,-25.08750556405634,-0.9538876206710886,6.61334974760712,0.12561003,-0.914121195,0.426207405,-4.66956,3.9828599999999996,6.01244,72.0
1774821849.146178,3.123283386230469e-05,2026-03-29T22:04:09.146,2026-03-29T18:04:09.146,-31765.094999999998,-50312.475,-85929.075,-50359.95,-15970.724999999999,-20942.01,4429.3949999999995,-49544.235,-33.470217979614986,-41.92419781292013,-47.43333212031775,-47.683420360033736,-48.02556236989182,-42.90208082157204,-32.737056961881954,-18.92068734288463,0.12561003,-0.914121195,0.426207405,-4.66956,3.9828599999999996,6.01244,72.0
1774821849.1533873,0.007209300994873047,2026-03-29T22:04:09.153,2026-03-29T18:04:09.153,-31777.155,-50347.034999999996,-85953.33,-50506.29,-16006.365,-20975.265,4367.79,-49555.08,-37.422242489142164,-44.284835378942155,-51.48583042955357,-59.41467226226979,-47.97326708028536,-40.40547510474364,-48.70819748276444,-35.147240460897095,0.12390105,-0.9111915150000001,0.42089736,-7.53844,0.03052,5.29522,72.0
1774821849.1533988,1.1444091796875e-05,2026-03-29T22:04:09.153,2026-03-29T18:04:09.153,-31843.305,-50405.939999999995,-85995.72,-50650.965,-16038.224999999999,-21005.28,4263.525,-49654.935,-24.164016513474532,-26.33305012696845,-32.60562913497536,-43.50349247352147,-25.703216517009373,-18.92201028342583,-41.658494951101254,-34.844653755919325,0.12390105,-0.9111915150000001,0.42089736,-7.53844,0.03052,5.29522,72.0
1774821849.1534092,1.049041748046875e-05,2026-03-29T22:04:09.153,2026-03-29T18:04:09.153,-31825.71,-50353.155,-85919.12999999999,-50531.49,-15963.21,-20944.934999999998,4305.375,-49651.83,0.0397126326708935,3.7184567750281436,0.9224487191569399,-7.802966926624961,8.025938434161839,11.221666152644326,-15.365541304570513,-18.671522499645945,0.12390105,-0.9111915150000001,0.42089736,-7.53844,0.03052,5.29522,72.0
1774821849.1534133,4.0531158447265625e-06,2026-03-29T22:04:09.153,2026-03-29T18:04:09.153,-31721.129999999997,-50187.78,-85688.145,-50258.43,-15817.41,-20829.105,4458.0599999999995,-49532.67,23.90539895691529,32.02104310862012,34.12447750470534,30.637841296613427,37.308311827840306,35.716006143988245,17.43638502255172,5.396387465729492,0.12390105,-0.9111915150000001,0.42089736,-7.53844,0.03052,5.29522,72.0
1774821849.1580584,0.004645109176635742,2026-03-29T22:04:09.158,2026-03-29T18:04:09.158,-31709.789999999997,-50158.619999999995,-85645.44,-50225.58,-15805.305,-20818.44,4479.66,-49529.295,36.46546518397987,45.584921481209896,52.18703116042985,53.83468065845575,48.66907080996739,43.12731505872148,41.28432825019427,26.04298837954518,0.12390105,-0.9111915150000001,0.42089736,-7.53844,0.03052,5.29522,72.0
1774821849.1580737,1.52587890625e-05,2026-03-29T22:04:09.158,2026-03-29T18:04:09.158,-31783.545,-50243.939999999995,-85751.86499999999,-50269.994999999995,-15858.539999999999,-20867.895,4398.66,-49598.145,32.1771746351374,38.337098748245914,47.20151782300416,51.43571953336825,37.326721487560874,30.280163165952988,45.341060673636676,34.00139891525039,0.12390105,-0.9111915150000001,0.42089736,-7.53844,0.03052,5.29522,72.0
1774821849.1616073,0.003533601760864258,2026-03-29T22:04:09.161,2026-03-29T18:04:09.161,-31771.754999999997,-50269.095,-85819.14,-50311.665,-15896.97,-20896.695,4423.05,-49523.445,13.394474781615251,13.873642630207657,21.670080584769874,25.446234816006474,9.202284972120674,3.610383245300961,28.349652287062693,26.258755652764666,0.12390105,-0.9111915150000001,0.42089736,-7.53844,0.03052,5.29522,72.0
1774821849.1616185,1.1205673217773438e-05,2026-03-29T22:04:09.161,2026-03-29T18:04:09.161,-31759.559999999998,-50287.455,-85809.23999999999,-50342.13,-15910.965,-20911.815,4435.155,-49482.36,-10.911717312407239,-16.356246902375723,-12.800022641819487,-11.094673711969854,-22.165434671489532,-24.082564968842895,-1.0892736518172612,7.1478297842538225,0.12390105,-0.9111915150000001,0.42089736,-7.53844,0.03052,5.29522,72.0
1774821849.1657684,0.004149913787841797,2026-03-29T22:04:09.165,2026-03-29T18:04:09.165,-31793.175,-50295.06,-85770.765,-50345.505,-15900.93,-20905.965,4419.045,-49531.994999999995,-29.49446829336946,-38.50452157180745,-40.91264649587138,-40.69449907326252,-42.19372866827999,-39.83545849097516,-28.894397382523255,-14.040383628512801,0.12390105,-0.9111915150000001,0.42089736,-7.53844,0.03052,5.29522,72.0
1774821849.16579,2.1696090698242188e-05,2026-03-29T22:04:09.165,2026-03-29T18:04:09.165,-31826.25,-50281.064999999995,-85753.17,-50335.064999999995,-15896.295,-20905.469999999998,4406.445,-49598.189999999995,-34.107955728175945,-42.77598205835922,-50.618206079945395,-49.90652546892429,-42.10271064957091,-36.64595835336275,-42.297908373107695,-27.622410204461644,0.12390105,-0.9111915150000001,0.42089736,-7.53844,0.03052,5.29522,72.0
1774821849.1711688,0.00537872314453125,2026-03-29T22:04:09.171,2026-03-29T18:04:09.171,-31755.914999999997,-50259.42,-85794.48,-50372.685,-15936.705,-20941.425,4374.405,-49576.545,-23.2119186825569,-27.8227913869781,-38.355081482405716,-35.56352938522761,-22.791152272432413,-16.60425438981127,-35.753636915110725,-28.001879001041935,0.12255828,-0.91271739,0.41552628,-10.681999999999999,-2.79258,4.97476,72.0
1774821849.171194,2.5272369384765625e-05,2026-03-29T22:04:09.171,2026-03-29T18:04:09.171,-31752.855,-50258.61,-85781.925,-50285.205,-15891.39,-20891.52,4388.22,-49542.03,-2.4182075951236817,-1.0815982260568076,-10.281832317716015,-5.799495617678699,5.980376028437001,10.376094572630123,-13.206046869239769,-15.966666640396872,0.12255828,-0.91271739,0.41552628,-10.681999999999999,-2.79258,4.97476,72.0
1774821849.1782525,0.007058382034301758,2026-03-29T22:04:09.178,2026-03-29T18:04:09.178,-31719.285,-50213.79,-85744.89,-50253.21,-15856.515,-20851.02,4398.974999999999,-49504.229999999996,18.405907736046515,24.969131889628713,20.878383971019417,24.431425759910727,30.529793229810988,31.490446353321094,14.191699938245726,2.1328545117133317,0.12255828,-0.91271739,0.41552628,-10.681999999999999,-2.79258,4.97476,72.0
1774821849.178291,3.8623809814453125e-05,2026-03-29T22:04:09.178,2026-03-29T18:04:09.178,-31702.995,-50205.015,-85753.53,-50336.82,-15877.8,-20869.469999999998,4435.605,-49502.205,29.87996751693721,38.729535085241956,41.739102438827594,40.91504144439737,39.813171014854724,37.17241635296445,33.62497824752814,17.723662173960903,0.12255828,-0.91271739,0.41552628,-10.681999999999999,-2.79258,4.97476,72.0
1774821849.178313,2.193450927734375e-05,2026-03-29T22:04:09.178,2026-03-29T18:04:09.178,-31736.565,-50237.369999999995,-85794.795,-50418.314999999995,-15916.23,-20906.505,4487.22,-49547.88,27.392800466502297,34.72438312034959,44.09918824270183,36.97358309514681,30.435958976242784,25.463990244026302,36.658556041344774,24.116050128224842,0.12255828,-0.91271739,0.41552628,-10.681999999999999,-2.79258,4.97476,72.0
1774821849.1783204,7.3909759521484375e-06,2026-03-29T22:04:09.178,2026-03-29T18:04:09.178,-31777.245,-50280.795,-85819.635,-50432.895,-15961.724999999999,-20943.989999999998,4441.545,-49590.54,12.944426824050714,15.765456000177382,28.13827227427735,16.199198925492475,7.823868600868309,2.6152650006505813,22.903583709662033,19.38979209926072,0.12255828,-0.91271739,0.41552628,-10.681999999999999,-2.79258,4.97476,72.0
1774821849.1822164,0.003895998001098633,2026-03-29T22:04:09.182,2026-03-29T18:04:09.182,-31803.12,-50300.369999999995,-85799.295,-50380.2,-15977.43,-20963.295,4373.055,-49595.534999999996,-6.181230849143338,-8.81317767405677,1.7330138515679183,-10.008332473307945,-16.806873581202797,-20.22061467939257,-0.2831333325549296,6.809452322058859,0.12255828,-0.91271739,0.41552628,-10.681999999999999,-2.79258,4.97476,72.0
1774821849.1822324,1.5974044799804688e-05,2026-03-29T22:04:09.182,2026-03-29T18:04:09.182,-31841.594999999998,-50341.095,-85821.795,-50371.244999999995,-15973.154999999999,-20963.204999999998,4318.65,-49604.445,-21.105444849895743,-27.802297287859883,-23.49926823520387,-28.589868449873855,-32.02619764002538,-32.461197839127124,-21.696622328383135,-7.203103507731784,0.12255828,-0.91271739,0.41552628,-10.681999999999999,-2.79258,4.97476,72.0
1774821849.1861026,0.003870248794555664,2026-03-29T22:04:09.186,2026-03-29T18:04:09.186,-31828.41,-50335.02,-85825.17,-50371.064999999995,-15951.42,-20938.77,4283.505,-49619.205,-25.53015640455433,-33.311664399148135,-37.414423450937534,-31.38284384997221,-31.535049932277268,-29.038150163591247,-31.72756998057163,-16.349434263439868,0.12255828,-0.91271739,0.41552628,-10.681999999999999,-2.79258,4.97476,72.0
1774821849.1861184,1.5735626220703125e-05,2026-03-29T22:04:09.186,2026-03-29T18:04:09.186,-31744.89,-50264.28,-85781.745,-50312.52,-15882.435,-20862.18,4423.23,-49531.994999999995,-18.412749176386438,-24.06782245482827,-35.426405982363995,-18.772906516500992,-16.762078779984865,-12.484718212530746,-26.69579863097455,-17.31171925270728,0.12255828,-0.91271739,0.41552628,-10.681999999999999,-2.79258,4.97476,72.0
1774821849.1931148,0.0069963932037353516,2026-03-29T22:04:09.193,2026-03-29T18:04:09.193,-31717.934999999998,-50237.28,-85781.25,-50330.159999999996,-15879.689999999999,-20855.204999999998,4531.86,-49469.354999999996,-3.997187195939998,-5.429654271308317,-19.818422347288276,1.2223666081928075,4.350060658998095,8.684172853911567,-10.111833381219418,-10.87967565187632,0.12756315000000001,-0.91125255,0.423277725,-9.903739999999999,-1.78542,1.7396399999999999,72.0
1774821849.1931343,1.9550323486328125e-05,2026-03-29T22:04:09.193,2026-03-29T18:04:09.193,-31723.965,-50233.68,-85772.79,-50341.365,-15885.945,-20869.739999999998,4480.47,-49497.075,10.606209123567497,13.621674868817388,1.9628352582084108,17.68171310026714,21.548034740088312,24.334730519101036,9.509811286709981,-1.0122690062922914,0.12756315000000001,-0.91125255,0.423277725,-9.903739999999999,-1.78542,1.7396399999999999,72.0
1774821849.1931596,2.5272369384765625e-05,2026-03-29T22:04:09.193,2026-03-29T18:04:09.193,-31749.21,-50248.125,-85780.665,-50356.17,-15892.965,-20877.704999999998,4433.76,-49539.195,18.9504423202224,24.862125115822888,20.92608851296945,22.647723238277425,27.260638164546133,27.59075831192162,23.002363263430315,7.4611996248438555,0.12756315000000001,-0.91125255,0.423277725,-9.903739999999999,-1.78542,1.7396399999999999,72.0
1774821849.193167,7.3909759521484375e-06,2026-03-29T22:04:09.193,2026-03-29T18:04:09.193,-31752.809999999998,-50250.78,-85769.595,-50344.604999999996,-15897.195,-20890.215,4416.255,-49540.275,18.1296743205774,24.416387065017584,30.282284356345656,15.016191094529484,19.94427906578845,17.866669565395476,24.847271510578206,11.212408018480026,0.12756315000000001,-0.91125255,0.423277725,-9.903739999999999,-1.78542,1.7396399999999999,72.0
1774821849.2013924,0.008225440979003906,2026-03-29T22:04:09.201,2026-03-29T18:04:09.201,-31749.164999999997,-50244.795,-85744.26,-50305.905,-15882.525,-20889.989999999998,4414.95,-49543.695,9.707097483779345,13.975185664739866,27.743590681790277,0.5287643459284231,4.2993531450917315,0.7157802623681866,15.399775554690763,9.690985487601752,0.12756315000000001,-0.91125255,0.423277725,-9.903739999999999,-1.78542,1.7396399999999999,72.0
1774821849.2014163,2.384185791015625e-05,2026-03-29T22:04:09.201,2026-03-29T18:04:09.201,-31752.225,-50254.244999999995,-85766.67,-50350.545,-15907.545,-20910.149999999998,4417.245,-49536.854999999996,-1.550963460740626,-0.6692142797375837,15.676285274140627,-11.897203224382597,-11.512444465548434,-15.237858224869708,0.16262840399651793,4.8364914549631886,0.12756315000000001,-0.91125255,0.423277725,-9.903739999999999,-1.78542,1.7396399999999999,72.0
1774821849.2014332,1.6927719116210938e-05,2026-03-29T22:04:09.201,2026-03-29T18:04:09.201,-31758.75,-50261.174999999996,-85771.70999999999,-50357.97,-15919.74,-20919.285,4402.845,-49539.375,-10.295905389096328,-12.771960999059244,-0.5530470304221241,-15.328807337628394,-20.076786253868146,-22.625091461364004,-13.28988420192769,-0.3880464732961028,0.12756315000000001,-0.91125255,0.423277725,-9.903739999999999,-1.78542,1.7396399999999999,72.0
1774821849.2014394,6.198883056640625e-06,2026-03-29T22:04:09.201,2026-03-29T18:04:09.201,-31763.34,-50269.95,-85779.45,-50355.18,-15926.4,-20926.26,4393.755,-49544.325,-13.159411495504715,-17.781045211751152,-15.007696566885794,-8.588303425904133,-18.209278563522872,-18.74900501019974,-19.06330350976955,-3.6966440801242024,0.12756315000000001,-0.91125255,0.423277725,-9.903739999999999,-1.78542,1.7396399999999999,72.0
1774821849.2059677,0.0045282840728759766,2026-03-29T22:04:09.205,2026-03-29T18:04:09.205,-31766.94,-50274.134999999995,-85788.765,-50345.955,-15923.16,-20920.545,4405.7699999999995,-49552.38,-10.021670278265205,-14.99633786082092,-23.269893110118034,3.38153179330741,-8.074503113162638,-6.504416041830049,-15.518218931036325,-4.475613163661365,0.12756315000000001,-0.91125255,0.423277725,-9.903739999999999,-1.78542,1.7396399999999999,72.0
1774821849.2059896,2.193450927734375e-05,2026-03-29T22:04:09.205,2026-03-29T18:04:09.205,-31781.114999999998,-50285.025,-85816.305,-50333.174999999996,-15906.105,-20895.344999999998,4417.83,-49573.215,-3.5256719443366307,-7.169930960705395,-23.503991033512463,12.644868340825797,4.411163868034471,7.472931743883465,-5.551399825765378,-3.64488452282527,0.12756315000000001,-0.91125255,0.423277725,-9.903739999999999,-1.78542,1.7396399999999999,72.0
1774821849.2099493,0.00395965576171875,2026-03-29T22:04:09.209,2026-03-29T18:04:09.209,-31796.64,-50301.045,-85845.015,-50340.96,-15923.025,-20905.155,4388.264999999999,-49603.229999999996,2.690176677837892,1.4368494426376928,-16.434170324997556,13.0503201131078,12.87638405960118,16.32963504482448,5.321513366374025,-2.648515721498255,0.13214077500000002,-0.907285275,0.42712293,-7.18746,1.09872,0.04578,72.0
1774821849.2099676,1.8358230590820312e-05,2026-03-29T22:04:09.209,2026-03-29T18:04:09.209,-31832.19,-50337.674999999996,-85877.595,-50368.005,-15957.99,-20937.51,4334.22,-49650.299999999996,5.970929835862101,7.32930103549643,-4.63496663920807,3.9283354302226856,13.707327443704962,16.345982382304765,11.92574309386355,-2.3119012538071466,0.13214077500000002,-0.907285275,0.42712293,-7.18746,1.09872,0.04578,72.0
1774821849.2150488,0.0050811767578125,2026-03-29T22:04:09.215,2026-03-29T18:04:09.215,-31812.48,-50312.744999999995,-85834.75499999999,-50363.1,-15946.74,-20928.105,4363.11,-49632.795,5.781138782374094,9.189759111984916,8.368760196912756,-9.397117712523801,7.570857560746118,8.480251270824729,11.875108088698791,-2.309176475550217,0.13214077500000002,-0.907285275,0.42712293,-7.18746,1.09872,0.04578,72.0
1774821849.2150612,1.239776611328125e-05,2026-03-29T22:04:09.215,2026-03-29T18:04:09.215,-31757.445,-50248.35,-85743.765,-50338.755,-15884.414999999999,-20869.605,4426.0199999999995,-49566.42,3.512829473054168,7.86048225584079,18.90270891377221,-18.60336282914941,-1.3814496916386616,-2.523761091300715,6.358473792985111,-1.5482256083131183,0.13214077500000002,-0.907285275,0.42712293,-7.18746,1.09872,0.04578,72.0
1774821849.2179277,0.002866506576538086,2026-03-29T22:04:09.217,2026-03-29T18:04:09.217,-31716.719999999998,-50233.365,-85755.42,-50398.02,-15876.675,-20858.895,4467.735,-49480.74,1.2551103529604561,5.19191074806169,23.838098326772766,-17.22339740255025,-8.03026651299384,-10.840596724893139,-0.9444327711914141,0.8213942811629543,0.13214077500000002,-0.907285275,0.42712293,-7.18746,1.09872,0.04578,72.0
1774821849.217943,1.52587890625e-05,2026-03-29T22:04:09.217,2026-03-29T18:04:09.217,-31720.995,-50234.939999999995,-85758.84,-50366.79,-15882.119999999999,-20882.79,4437.8099999999995,-49480.2,0.3623214693480818,2.6361317524246894,21.296643965393493,-4.638065607278122,-9.087132252338925,-12.589348308357778,-6.067322083810359,4.478894664937067,0.13214077500000002,-0.907285275,0.42712293,-7.18746,1.09872,0.04578,72.0
1774821849.2218819,0.003938913345336914,2026-03-29T22:04:09.221,2026-03-29T18:04:09.221,-31771.079999999998,-50253.93,-85768.37999999999,-50335.02,-15906.33,-20916.54,4345.47,-49607.145,0.6936289995273994,0.48452336011350666,11.357161866449655,13.101715375700335,-4.688601997986438,-7.63121752964471,-6.836430814279003,7.752898210689948,0.13214077500000002,-0.907285275,0.42712293,-7.18746,1.09872,0.04578,72.0
1774821849.2219086,2.6702880859375e-05,2026-03-29T22:04:09.221,2026-03-29T18:04:09.221,-31758.344999999998,-50255.055,-85774.31999999999,-50329.35,-15943.769999999999,-20942.37,4362.21,-49599.27,0.933007195180673,-1.8614441529932366,-3.501563526303321,26.232946823884337,1.9735215998746105,0.6875187015502408,-3.762595141951245,8.413609123706841,0.13214077500000002,-0.907285275,0.42712293,-7.18746,1.09872,0.04578,72.0
1774821849.2274735,0.00556492805480957,2026-03-29T22:04:09.227,2026-03-29T18:04:09.227,-31741.02,-50240.97,-85743.72,-50289.255,-15933.644999999999,-20927.52,4411.755,-49534.47,-0.27853575288252613,-4.9007738858203655,-18.64211752222079,26.550005464909244,6.662726525917779,7.571949592382407,0.600840144815543,5.046806406431513,0.13214077500000002,-0.907285275,0.42712293,-7.18746,1.09872,0.04578,72.0
1774821849.2274911,1.7642974853515625e-05,2026-03-29T22:04:09.227,2026-03-29T18:04:09.227,-31727.114999999998,-50216.49,-85699.845,-50258.924999999996,-15886.26,-20891.114999999998,4426.11,-49525.064999999995,-3.161713009439454,-8.106885743555416,-28.474940684340215,12.177646583996399,6.569052866336097,9.422366139722254,3.3438052900858204,-1.7926048002570718,0.13214077500000002,-0.907285275,0.42712293,-7.18746,1.09872,0.04578,72.0
1774821849.2299783,0.0024871826171875,2026-03-29T22:04:09.229,2026-03-29T18:04:09.229,-31744.125,-50231.115,-85708.395,-50279.939999999995,-15877.845,-20893.815,4381.11,-49565.115,-6.362644609955134,-9.80240383849151,-28.46832762253625,-10.81583211898742,1.8685278458560914,5.668461690044077,2.9215064068767544,-9.408943190262434,0.133483545,-0.903256965,0.42712293,-6.80596,1.15976,-1.95328,72.0
1774821849.2299895,1.1205673217773438e-05,2026-03-29T22:04:09.229,2026-03-29T18:04:09.229,-31762.44,-50258.744999999995,-85784.12999999999,-50368.994999999995,-15899.58,-20897.73,4409.6849999999995,-49582.395,-7.606746777042529,-8.047386870994941,-17.264147058634993,-31.036343894940952,-4.4553253473747345,-1.1231774265735937,-0.04201065974389668,-14.039177862489614,0.133483545,-0.903256965,0.42712293,-6.80596,1.15976,-1.95328,72.0
1774821849.2338212,0.003831624984741211,2026-03-29T22:04:09.233,2026-03-29T18:04:09.233,-31741.739999999998,-50263.515,-85812.93,-50377.725,-15903.494999999999,-20895.93,4440.96,-49554.18,-5.118070894148013,-2.0657491313866685,2.103703751964591,-37.4530906762046,-8.383525147759967,-6.833570201336942,-3.262871708292918,-12.735505670851795,0.133483545,-0.903256965,0.42712293,-6.80596,1.15976,-1.95328,72.0
1774821849.233848,2.6941299438476562e-05,2026-03-29T22:04:09.233,2026-03-29T18:04:09.233,-31726.35,-50253.165,-85794.3,-50389.92,-15918.074999999999,-20908.035,4414.41,-49554.674999999996,1.0251620048791072,6.696712457287387,22.712421870577195,-25.298507338478036,-7.215892583803637,-8.14256151317132,-4.269174204455911,-5.104858723218091,0.133483545,-0.903256965,0.42712293,-6.80596,1.15976,-1.95328,72.0
1774821849.2389305,0.005082368850708008,2026-03-29T22:04:09.238,2026-03-29T18:04:09.238,-31768.605,-50251.59,-85767.165,-50371.784999999996,-15901.74,-20893.184999999998,4430.835,-49594.32,8.466474827063811,14.684037373968456,36.12181691990688,0.9346430993551806,-1.1914938922677785,-4.3529553253326885,-1.963389918720987,6.076986729620531,0.133483545,-0.903256965,0.42712293,-6.80596,1.15976,-1.95328,72.0
1774821849.2389495,1.9073486328125e-05,2026-03-29T22:04:09.238,2026-03-29T18:04:09.238,-31826.295,-50302.17,-85814.50499999999,-50340.555,-15936.705,-20927.34,4449.78,-49599.945,13.473433113465791,17.695902604191527,35.8546615366326,29.137660856908944,6.531450267288001,2.2797915711544396,2.6265656837383005,15.849754959964832,0.133483545,-0.903256965,0.42712293,-6.80596,1.15976,-1.95328,72.0
1774821849.2449155,0.0059659481048583984,2026-03-29T22:04:09.244,2026-03-29T18:04:09.244,-31814.01,-50322.465,-85878.94499999999,-50246.549999999996,-15924.33,-20913.12,4410.495,-49586.985,12.819529021789656,13.089227281704469,20.53548806883226,45.27261062079903,11.547324150610496,7.852353541583493,6.845391009062868,19.313244952134067,0.133483545,-0.903256965,0.42712293,-6.80596,1.15976,-1.95328,72.0
1774821849.2449355,2.002716064453125e-05,2026-03-29T22:04:09.244,2026-03-29T18:04:09.244,-31755.914999999997,-50286.555,-85892.805,-50222.744999999995,-15869.385,-20857.545,4399.38,-49556.25,5.6922755705394135,1.5638304668816914,-4.839343662017206,40.38464836284623,10.637104718706558,9.013729861036321,7.897278045798262,14.094533266002902,0.133483545,-0.903256965,0.42712293,-6.80596,1.15976,-1.95328,72.0
1774821849.2449765,4.100799560546875e-05,2026-03-29T22:04:09.244,2026-03-29T18:04:09.244,-31764.96,-50341.275,-86017.59,-50354.64,-15887.564999999999,-20878.38,4369.139999999999,-49560.93,-5.447367667573147,-12.55109810381378,-30.357611888653203,15.425161738475278,3.6486796327532023,4.854545312723364,4.506993592238634,1.7910836443656615,0.133483545,-0.903256965,0.42712293,-6.80596,1.15976,-1.95328,72.0
1774821849.2449849,8.344650268554688e-06,2026-03-29T22:04:09.244,2026-03-29T18:04:09.244,-31792.949999999997,-50373.945,-86048.775,-50525.145,-15920.414999999999,-20900.969999999998,4425.48,-49572.36,-15.663385212329164,-22.90421342065914,-45.04850441247333,-18.65956581030039,-6.218300977968731,-2.5391151336788482,-2.1743078778297362,-12.43410436746434,0.133483545,-0.903256965,0.42712293,-6.80596,1.15976,-1.95328,72.0
1774821849.2499802,0.0049953460693359375,2026-03-29T22:04:09.249,2026-03-29T18:04:09.249,-31824.719999999998,-50355.045,-85924.70999999999,-50521.32,-15933.51,-20923.92,4440.33,-49581.854999999996,-19.769189482888653,-24.033005191255917,-41.64350007784015,-45.82598584969877,-13.932489955380372,-9.168547051915928,-8.96209786751477,-22.053843324486998,0.12976041,-0.89819106,0.42065322,-6.409199999999999,1.1444999999999999,-2.3653,72.0
1774821849.2500026,2.2411346435546875e-05,2026-03-29T22:04:09.250,2026-03-29T18:04:09.250,-31812.75,-50302.979999999996,-85815.27,-50529.555,-15946.289999999999,-20933.055,4385.205,-49620.509999999995,-14.957597721589737,-14.219043635729811,-20.15260507029159,-52.57680278025004,-15.20941484325524,-11.26680408424663,-12.188709567353587,-22.216991425458573,0.12976041,-0.89819106,0.42065322,-6.409199999999999,1.1444999999999999,-2.3653,72.0
1774821849.2541032,0.0041005611419677734,2026-03-29T22:04:09.254,2026-03-29T18:04:09.254,-31739.445,-50228.235,-85697.73,-50428.08,-15918.75,-20916.36,4349.5199999999995,-49623.435,-2.5037250937139226,3.1947575292821555,11.495612825790992,-34.66707735917908,-8.822859918440546,-7.36272573017393,-9.642250635560732,-12.190518131143762,0.12976041,-0.89819106,0.42065322,-6.409199999999999,1.1444999999999999,-2.3653,72.0
1774821849.2541244,2.1219253540039062e-05,2026-03-29T22:04:09.254,2026-03-29T18:04:09.254,-31691.34,-50151.825,-85567.59,-50254.875,-15874.695,-20901.239999999998,4361.58,-49554.9,12.428850140213411,20.864214884258267,40.3104682390727,0.4593116552499841,2.5731537511927063,0.8395500384110225,-1.8854718167757327,4.024236480904318,0.12976041,-0.89819106,0.42065322,-6.409199999999999,1.1444999999999999,-2.3653,72.0
1774821849.258512,0.004387617111206055,2026-03-29T22:04:09.258,2026-03-29T18:04:09.258,-31718.925,-50167.979999999996,-85614.705,-50255.055,-15888.779999999999,-20897.19,4454.28,-49501.89,22.95419296135233,30.587419561593656,53.594727230269164,36.827891674765276,13.59346988753069,9.251073442760294,7.775926383445418,19.302855529992836,0.12976041,-0.89819106,0.42065322,-6.409199999999999,1.1444999999999999,-2.3653,72.0
1774821849.2585354,2.3365020751953125e-05,2026-03-29T22:04:09.258,2026-03-29T18:04:09.258,-31754.34,-50234.04,-85713.435,-50317.56,-15904.98,-20899.485,4469.804999999999,-49514.85,23.6799705387621,27.16200468134371,44.578332434607546,57.30948227473523,18.720328275984265,13.469989647406669,14.741654059659252,26.5777708522069,0.12976041,-0.89819106,0.42065322,-6.409199999999999,1.1444999999999999,-2.3653,72.0
1774821849.262544,0.00400853157043457,2026-03-29T22:04:09.262,2026-03-29T18:04:09.262,-31761.539999999997,-50242.32,-85734.27,-50334.705,-15896.34,-20899.844999999998,4397.625,-49567.455,13.453053843608432,11.119879295211332,15.814231157210967,51.755675894483865,15.074872950800753,11.07247220902058,15.327026948679988,22.143144410789596,0.12976041,-0.89819106,0.42065322,-6.409199999999999,1.1444999999999999,-2.3653,72.0
1774821849.2625778,3.3855438232421875e-05,2026-03-29T22:04:09.262,2026-03-29T18:04:09.262,-31782.105,-50273.955,-85787.235,-50364.18,-15925.545,-20927.745,4338.2699999999995,-49614.479999999996,-3.7565074079586642,-11.079402175717956,-21.344308848390362,22.0006392868794,3.9665841870001084,2.9357004737876076,8.665208740600436,7.523471491254502,0.12976041,-0.89819106,0.42065322,-6.409199999999999,1.1444999999999999,-2.3653,72.0
1774821849.2659242,0.0033464431762695312,2026-03-29T22:04:09.265,2026-03-29T18:04:09.265,-31789.125,-50257.395,-85753.44,-50318.055,-15889.949999999999,-20885.445,4348.845,-49653.18,-20.39315599662114,-29.669316975540276,-51.20832472555678,-18.723394476979752,-9.589859923084367,-7.1059207032312806,-2.662359639660419,-11.028355895531574,0.12976041,-0.89819106,0.42065322,-6.409199999999999,1.1444999999999999,-2.3653,72.0
1774821849.2659404,1.621246337890625e-05,2026-03-29T22:04:09.265,2026-03-29T18:04:09.265,-31770.045,-50244.75,-85707.62999999999,-50258.07,-15851.34,-20853.225,4449.825,-49593.689999999995,-28.679453244049185,-35.935395180465946,-60.410128689662145,-51.77239818765264,-19.20081727056773,-14.121015550981255,-13.644271875782295,-25.247084828853477,0.12976041,-0.89819106,0.42065322,-6.409199999999999,1.1444999999999999,-2.3653,72.0
1774821849.2701805,0.0042400360107421875,2026-03-29T22:04:09.270,2026-03-29T18:04:09.270,-31766.579999999998,-50265.494999999995,-85747.815,-50327.415,-15912.9,-20911.364999999998,4463.01,-49553.549999999996,-24.28612186165362,-26.337631311468122,-43.9139654870428,-61.7203181909623,-20.155599011190482,-14.532982267679555,-19.091989017176267,-28.583866150356787,0.127380045,-0.89587173,0.41711319,-11.33818,-0.06104,-4.68482,72.0
1774821849.2702024,2.193450927734375e-05,2026-03-29T22:04:09.270,2026-03-29T18:04:09.270,-31782.239999999998,-50284.71,-85816.98,-50341.365,-15948.0,-20940.795,4376.385,-49604.895,-8.561952178781246,-4.430610554126688,-7.66900137819698,-43.595590916529325,-11.738267890477209,-7.932517580576924,-16.098143103722855,-19.24386017082243,0.127380045,-0.89587173,0.41711319,-11.33818,-0.06104,-4.68482,72.0
1774821849.2764368,0.006234407424926758,2026-03-29T22:04:09.276,2026-03-29T18:04:09.276,-31733.73,-50255.1,-85814.91,-50302.259999999995,-15909.795,-20903.04,4370.67,-49600.575,11.812546211870925,20.431383508670923,33.454267618916425,-5.316329055477442,2.3458784431282766,2.663182925357511,-5.5337710513668545,-1.114941778926358,0.127380045,-0.89587173,0.41711319,-11.33818,-0.06104,-4.68482,72.0
1774821849.2764695,3.266334533691406e-05,2026-03-29T22:04:09.276,2026-03-29T18:04:09.276,-31681.125,-50213.744999999995,-85734.9,-50305.455,-15853.05,-20854.395,4422.195,-49527.945,27.69954681559837,37.140846115105134,61.77023639498108,35.84559766126038,15.656205729949885,12.242782780167106,8.165792581384943,17.878832167668868,0.127380045,-0.89587173,0.41711319,-11.33818,-0.06104,-4.68482,72.0
1774821849.2765083,3.886222839355469e-05,2026-03-29T22:04:09.276,2026-03-29T18:04:09.276,-31672.71,-50209.424999999996,-85714.33499999999,-50365.755,-15828.39,-20828.07,4490.37,-49499.235,31.651388604505293,37.85870557514778,64.4184609604178,61.152508806503384,22.021706847345076,16.220979066246954,18.89284653708558,29.28564206842349,0.127380045,-0.89587173,0.41711319,-11.33818,-0.06104,-4.68482,72.0
1774821849.2765205,1.2159347534179688e-05,2026-03-29T22:04:09.276,2026-03-29T18:04:09.276,-31752.989999999998,-50245.83,-85728.69,-50326.02,-15825.375,-20832.795,4483.304999999999,-49562.775,21.42635580654285,21.71436292989135,39.22528314169789,58.9946767693562,18.43657539914598,12.656526909816865,21.614879331947314,27.921012710703238,0.127380045,-0.89587173,0.41711319,-11.33818,-0.06104,-4.68482,72.0
1774821849.2898464,0.013325929641723633,2026-03-29T22:04:09.289,2026-03-29T18:04:09.289,-31789.44,-50245.604999999996,-85715.145,-50286.645,-15859.035,-20871.225,4451.22,-49583.52,1.2029622855809945,-4.570845453374398,-3.890157624179016,30.222172432518196,6.4733057545535715,3.185753692690252,14.731729538643073,14.230297176864456,0.127380045,-0.89587173,0.41711319,-11.33818,-0.06104,-4.68482,72.0
1774821849.2898698,2.3365020751953125e-05,2026-03-29T22:04:09.289,2026-03-29T18:04:09.289,-31764.059999999998,-50251.905,-85777.965,-50358.689999999995,-15915.779999999999,-20914.92,4431.33,-49537.17,-20.144854927668312,-29.514388875520382,-46.78390144502989,-12.232001853860808,-8.447280992521845,-7.7711530359378065,0.9415620519031489,-5.859280002494958,0.127380045,-0.89587173,0.41711319,-11.33818,-0.06104,-4.68482,72.0
1774821849.289904,3.4332275390625e-05,2026-03-29T22:04:09.289,2026-03-29T18:04:09.289,-31776.12,-50282.729999999996,-85818.95999999999,-50380.38,-15937.47,-20933.46,4396.635,-49546.305,-32.989703493466244,-41.94778967251092,-70.74068407369839,-49.243683121279076,-19.57046302589134,-15.12704538497889,-13.828046802795747,-23.541761373814403,0.127380045,-0.89587173,0.41711319,-11.33818,-0.06104,-4.68482,72.0
1774821849.2899144,1.0251998901367188e-05,2026-03-29T22:04:09.289,2026-03-29T18:04:09.289,-31770.719999999998,-50283.405,-85823.145,-50396.445,-15924.734999999999,-20916.45,4418.28,-49547.79,-31.336131031751755,-36.06552922906997,-64.67983356590074,-64.18264720042795,-21.913599161123877,-15.530489995077724,-22.992542896778684,-31.02867267615591,0.127380045,-0.89587173,0.41711319,-11.33818,-0.06104,-4.68482,72.0
1774821849.2899268,1.239776611328125e-05,2026-03-29T22:04:09.289,2026-03-29T18:04:09.289,-31797.765,-50297.22,-85825.53,-50400.72,-15924.51,-20921.399999999998,4368.555,-49613.895,-15.632529626687534,-14.144359654121168,-30.301676169142358,-50.41661910887337,-14.514266322151622,-8.90182138182967,-22.258998845669776,-24.99758719456747,0.12731901,-0.896298975,0.419371485,-10.529399999999999,2.5636799999999997,-5.82932,72.0
1774821849.2899356,8.821487426757812e-06,2026-03-29T22:04:09.289,2026-03-29T18:04:09.289,-31814.324999999997,-50282.235,-85782.915,-50360.715,-15888.06,-20891.655,4318.605,-49692.555,7.314470924481854,14.343092504852445,18.22233758514474,-14.23840147182936,-0.8002726735964897,1.604551901904583,-11.626466903015556,-8.05918114108039,0.12731901,-0.896298975,0.419371485,-10.529399999999999,2.5636799999999997,-5.82932,72.0
1774821849.3037395,0.013803958892822266,2026-03-29T22:04:09.303,2026-03-29T18:04:09.303,-31755.329999999998,-50215.95,-85696.515,-50280.479999999996,-15811.74,-20817.135,4416.255,-49589.235,27.328815458866337,36.870136017985715,60.079762456984746,28.062265167792365,13.044494649393352,11.146908853619472,4.48761904097841,12.399453721768374,0.12731901,-0.896298975,0.419371485,-10.529399999999999,2.5636799999999997,-5.82932,72.0
1774821849.3037548,1.52587890625e-05,2026-03-29T22:04:09.303,2026-03-29T18:04:09.303,-31688.46,-50183.235,-85688.595,-50264.415,-15823.71,-20834.28,4491.675,-49465.17,35.42581559350239,43.41884503449989,76.77825833877615,57.594009396946525,20.918295597569468,15.473840591976808,19.09727113599721,27.46837961968959,0.12731901,-0.896298975,0.419371485,-10.529399999999999,2.5636799999999997,-5.82932,72.0
1774821849.3037696,1.4781951904296875e-05,2026-03-29T22:04:09.303,2026-03-29T18:04:09.303,-31709.969999999998,-50227.47,-85756.995,-50312.61,-15909.255,-20914.245,4462.47,-49491.27,27.87873624174434,30.96898748414138,60.36782713693644,61.34217827057098,19.518545836763533,12.840698233130771,25.69203643067022,30.616707190811233,0.12731901,-0.896298975,0.419371485,-10.529399999999999,2.5636799999999997,-5.82932,72.0
1774821849.303774,4.5299530029296875e-06,2026-03-29T22:04:09.303,2026-03-29T18:04:09.303,-31749.48,-50277.24,-85801.815,-50334.479999999996,-15946.335,-20940.93,4421.25,-49572.494999999995,7.936119209110032,4.887509444123609,17.247934135617136,37.91035624031199,9.716090316452545,4.69157837956205,21.143372756245792,20.525024259965576,0.12731901,-0.896298975,0.419371485,-10.529399999999999,2.5636799999999997,-5.82932,72.0
1774821849.303779,4.76837158203125e-06,2026-03-29T22:04:09.303,2026-03-29T18:04:09.303,-31729.905,-50250.96,-85784.94,-50314.185,-15896.25,-20889.405,4417.695,-49618.395,-15.60158081843212,-23.417842061741872,-34.27194571567991,-2.004893542320249,-3.9769848853229344,-5.145814966296954,7.175943254171084,1.6213603432903312,0.12731901,-0.896298975,0.419371485,-10.529399999999999,2.5636799999999997,-5.82932,72.0
1774821849.3037827,3.814697265625e-06,2026-03-29T22:04:09.303,2026-03-29T18:04:09.303,-31769.55,-50277.33,-85835.87999999999,-50389.38,-15911.865,-20900.385,4403.16,-49639.409999999996,-32.30941541373464,-41.53839692826001,-71.76090520135737,-40.53564331036689,-15.52614385881192,-12.299899632727971,-10.281005600685274,-17.885768557820846,0.12731901,-0.896298975,0.419371485,-10.529399999999999,2.5636799999999997,-5.82932,72.0
1774821849.3060384,0.002255678176879883,2026-03-29T22:04:09.306,2026-03-29T18:04:09.306,-31791.329999999998,-50317.92,-85918.68,-50484.645,-15944.939999999999,-20929.23,4384.305,-49566.6,-34.7959332083988,-41.547979175434115,-78.48885764461482,-60.67836479974006,-20.06571967963552,-13.826762644494458,-23.619577006240327,-29.591014355091964,0.12731901,-0.896298975,0.419371485,-10.529399999999999,2.5636799999999997,-5.82932,72.0
1774821849.3060558,1.7404556274414062e-05,2026-03-29T22:04:09.306,2026-03-29T18:04:09.306,-31800.69,-50314.86,-85886.325,-50463.405,-15920.46,-20907.36,4446.495,-49540.275,-21.991966119821925,-23.48746665054306,-50.95910110697851,-53.816188548693106,-15.948371824743672,-9.411508319668984,-26.87723519845868,-28.519330339412218,0.12731901,-0.896298975,0.419371485,-10.529399999999999,2.5636799999999997,-5.82932,72.0
1774821849.3098004,0.0037446022033691406,2026-03-29T22:04:09.309,2026-03-29T18:04:09.309,-31787.954999999998,-50283.854999999996,-85797.94499999999,-50381.28,-15906.689999999999,-20904.344999999998,4421.97,-49582.305,0.4008842495164269,4.688048123316083,-0.7312992301299569,-23.39677538494767,-5.292108802922767,-1.3165103118824242,-18.405126151768545,-15.230939729828615,0.127502115,-0.90319593,0.42053115,-11.216099999999999,4.6085199999999995,-7.73682,72.0
1774821849.309814,1.3589859008789062e-05,2026-03-29T22:04:09.309,2026-03-29T18:04:09.309,-31762.62,-50240.384999999995,-85704.345,-50276.564999999995,-15898.32,-20905.245,4402.305,-49601.744999999995,22.483219125807494,30.652468773773343,50.416804942687584,16.794824083775524,7.123049090876845,6.798000789947189,-1.687700860433811,4.478910715278323,0.127502115,-0.90319593,0.42053115,-11.216099999999999,4.6085199999999995,-7.73682,72.0
1774821849.314578,0.004764080047607422,2026-03-29T22:04:09.314,2026-03-29T18:04:09.314,-31699.62,-50200.155,-85663.665,-50225.58,-15889.769999999999,-20898.855,4425.57,-49536.314999999995,34.57455519470561,43.1454176365969,79.97532958099802,48.903603815800544,16.028268113555125,11.558185183128815,16.086902505115212,22.120588325296655,0.127502115,-0.90319593,0.42053115,-11.216099999999999,4.6085199999999995,-7.73682,72.0
1774821849.3145964,1.8358230590820312e-05,2026-03-29T22:04:09.314,2026-03-29T18:04:09.314,-31733.37,-50229.54,-85695.345,-50278.14,-15891.345,-20900.34,4420.53,-49543.92,31.48418348391921,36.88419778895548,74.68722838648688,58.95565083187361,17.907726116429732,11.27735502612215,27.121302205387153,30.170658031539165,0.127502115,-0.90319593,0.42053115,-11.216099999999999,4.6085199999999995,-7.73682,72.0
1774821849.318169,0.003572702407836914,2026-03-29T22:04:09.318,2026-03-29T18:04:09.318,-31762.664999999997,-50244.39,-85734.72,-50347.53,-15881.984999999999,-20894.219999999998,4418.595,-49566.24,14.739895416676706,14.796140651002409,36.568990046829036,42.948341326025115,12.354304776562957,6.494380025713277,26.436409106657575,25.273804191399257,0.127502115,-0.90319593,0.42053115,-11.216099999999999,4.6085199999999995,-7.73682,72.0
1774821849.318188,1.8835067749023438e-05,2026-03-29T22:04:09.318,2026-03-29T18:04:09.318,-31762.89,-50274.585,-85843.305,-50381.415,-15869.97,-20886.255,4428.54,-49559.04,-8.181019542080632,-13.369615575897758,-17.80110529372544,8.426641503114123,2.0369606364291912,-0.48265720819429875,14.124881102009228,9.629446006094803,0.127502115,-0.90319593,0.42053115,-11.216099999999999,4.6085199999999995,-7.73682,72.0
1774821849.3221476,0.00395965576171875,2026-03-29T22:04:09.322,2026-03-29T18:04:09.322,-31792.77,-50288.939999999995,-85856.895,-50322.465,-15844.005,-20866.815,4403.385,-49589.595,-27.22499155590072,-35.383256527740805,-64.51217670025733,-29.063706557883116,-8.59685408580052,-6.709890492508254,-4.5904588888243865,-10.00120591576378,0.127502115,-0.90319593,0.42053115,-11.216099999999999,4.6085199999999995,-7.73682,72.0
1774821849.322166,1.8358230590820312e-05,2026-03-29T22:04:09.322,2026-03-29T18:04:09.322,-31779.899999999998,-50278.185,-85869.27,-50364.36,-15867.945,-20883.195,4367.385,-49597.515,-34.20116939652728,-41.87742315151324,-82.90922241003112,-52.983463706902064,-15.246024573571685,-9.85289026109581,-21.565849641798525,-25.215775212035876,0.127502115,-0.90319593,0.42053115,-11.216099999999999,4.6085199999999995,-7.73682,72.0
1774821849.3260813,0.003915309906005859,2026-03-29T22:04:09.326,2026-03-29T18:04:09.326,-31801.995,-50307.345,-85892.985,-50412.915,-15931.305,-20941.155,4322.07,-49649.445,-26.31255115972536,-30.34321425903265,-64.82027390154401,-53.110060261977566,-15.472300844174294,-9.016440378318212,-29.28367989447552,-29.558916058254,0.127502115,-0.90319593,0.42053115,-11.216099999999999,4.6085199999999995,-7.73682,72.0
1774821849.326106,2.47955322265625e-05,2026-03-29T22:04:09.326,2026-03-29T18:04:09.326,-31800.51,-50312.88,-85894.37999999999,-50396.31,-15950.16,-20943.27,4364.55,-49651.2,-7.254340660466925,-6.071109099230464,-18.25734496185562,-29.918371587507153,-9.538402719729472,-4.89268738521367,-24.193462686955826,-21.252309421547814,0.127502115,-0.90319593,0.42053115,-11.216099999999999,4.6085199999999995,-7.73682,72.0
1774821849.3307612,0.004655122756958008,2026-03-29T22:04:09.330,2026-03-29T18:04:09.330,-31717.89,-50248.305,-85822.83,-50402.924999999996,-15933.555,-20915.64,4426.875,-49542.615,14.53739640978333,20.29902513015524,36.118520403963906,5.847785147424539,-0.11523917405647767,0.7111172412698291,-8.358846700569394,-3.9193771460676334,0.130065585,-0.918393645,0.416319735,-9.430679999999999,5.63094,-5.70724,72.0
1774821849.3307877,2.6464462280273438e-05,2026-03-29T22:04:09.330,2026-03-29T18:04:09.330,-31657.59,-50197.814999999995,-85720.00499999999,-50396.715,-15898.814999999999,-20893.094999999998,4418.055,-49483.935,29.64633918933693,37.47306448288936,74.21707293157135,38.13464240671394,8.924464958064203,5.669605634150008,11.35818111124994,14.986880802882101,0.130065585,-0.918393645,0.416319735,-9.430679999999999,5.63094,-5.70724,72.0
1774821849.3347895,0.0040018558502197266,2026-03-29T22:04:09.334,2026-03-29T18:04:09.334,-31695.795,-50209.83,-85659.97499999999,-50300.145,-15852.824999999999,-20879.01,4399.11,-49522.095,31.756419123909822,38.35660311038633,79.2869827363579,52.789774810318335,14.079569157531017,8.307401281867122,26.265237309642917,27.374638483561018,0.130065585,-0.918393645,0.416319735,-9.430679999999999,5.63094,-5.70724,72.0
1774821849.3348112,2.1696090698242188e-05,2026-03-29T22:04:09.334,2026-03-29T18:04:09.334,-31742.504999999997,-50228.505,-85662.765,-50216.04,-15842.07,-20876.04,4471.605,-49535.82,20.279240765686552,22.974693444610303,49.37544561141755,43.78836060285258,13.533345219267712,7.884585336186939,29.680835093836972,27.9652507650742,0.130065585,-0.918393645,0.416319735,-9.430679999999999,5.63094,-5.70724,72.0
1774821849.3405817,0.005770444869995117,2026-03-29T22:04:09.340,2026-03-29T18:04:09.340,-31782.329999999998,-50283.9,-85776.075,-50322.195,-15921.585,-20927.16,4485.195,-49540.545,0.4441075357237488,-1.7371164320216492,-1.887347625110988,15.727944357999608,7.740173891105252,4.7139026909258686,19.94965650409681,16.542346515994897,0.130065585,-0.918393645,0.416319735,-9.430679999999999,5.63094,-5.70724,72.0
1774821849.3405983,1.6689300537109375e-05,2026-03-29T22:04:09.340,2026-03-29T18:04:09.340,-31790.655,-50302.845,-85848.3,-50402.7,-15909.615,-20899.89,4440.51,-49566.735,-19.102905558152212,-25.082051658817175,-51.514750633884326,-18.450761650254616,-0.8691322931214871,-0.03632794361268535,1.2633431376912834,-1.9575913650541996,0.130065585,-0.918393645,0.416319735,-9.430679999999999,5.63094,-5.70724,72.0
1774821849.3406138,1.5497207641601562e-05,2026-03-29T22:04:09.340,2026-03-29T18:04:09.340,-31755.96,-50269.725,-85841.37,-50442.345,-15884.865,-20871.945,4435.875,-49554.72,-30.07878291086728,-37.251031807796515,-77.55058465009999,-43.41493671568059,-8.890957798927689,-4.738182842861651,-18.12692611292148,-19.556736806254662,0.130065585,-0.918393645,0.416319735,-9.430679999999999,5.63094,-5.70724,72.0
