unix_time_s,dt_s,UTC,LOCAL,EMG1_Raw,EMG2_Raw,EMG3_Raw,EMG4_Raw,EMG5_Raw,EMG6_Raw,EMG7_Raw,EMG8_Raw,EMG1_Filtered,EMG2_Filtered,EMG3_Filtered,EMG4_Filtered,EMG5_Filtered,EMG6_Filtered,EMG7_Filtered,EMG8_Filtered,Accel1_Raw,Accel2_Raw,Accel3_Raw,Gyro1_Raw,Gyro2_Raw,Gyro3_Raw,Battery
1774821869.1337972,,2026-03-29T22:04:29.133,2026-03-29T18:04:29.133,-31893.93,-50055.75,-85528.75499999999,-50278.634999999995,-15888.42,-20792.34,4456.485,-54976.049999999996,0.9127104950173365,-2.050256154990751,-1.2354633548787695,-0.9843555926501871,0.930269807016162,3.511326928303083,-0.8880888143783032,1.5561596303433645,-0.04455555,-0.9473852700000001,0.34973055000000003,-7.553699999999999,3.0977799999999998,18.55616,72.0
1774821869.1338062,9.059906005859375e-06,2026-03-29T22:04:29.133,2026-03-29T18:04:29.133,-31892.535,-50063.174999999996,-85537.08,-50290.02,-15899.58,-20805.165,4468.41,-54976.275,-9.656686466205095,-10.476441334921786,-8.059625179654017,-2.593402035681163,-1.6727106292316336,-3.11193173828808,6.830801578830387,-7.151449884429973,-0.04455555,-0.9473852700000001,0.34973055000000003,-7.553699999999999,3.0977799999999998,18.55616,72.0
1774821869.1503353,0.016529083251953125,2026-03-29T22:04:29.150,2026-03-29T18:04:29.150,-31907.114999999998,-50070.96,-85548.465,-50313.104999999996,-15920.369999999999,-20826.315,4492.485,-54961.604999999996,-15.552475595496016,-14.222587093734498,-11.378858289703656,-3.0853196692017857,-3.6988452870361415,-8.597797098788906,11.033377026345319,-12.02997976266694,-0.04455555,-0.9473852700000001,0.34973055000000003,-7.553699999999999,3.0977799999999998,18.55616,72.0
1774821869.1503675,3.218650817871094e-05,2026-03-29T22:04:29.150,2026-03-29T18:04:29.150,-31883.715,-50066.909999999996,-85580.81999999999,-50356.89,-15972.48,-20904.975,4474.3949999999995,-54933.075,-14.019117287851737,-11.522829952281894,-9.735560049660652,-2.1077180744422144,-4.175993063911711,-10.630155360199543,9.77643412594877,-10.91311856326747,-0.04455555,-0.9473852700000001,0.34973055000000003,-7.553699999999999,3.0977799999999998,18.55616,72.0
1774821869.1503923,2.47955322265625e-05,2026-03-29T22:04:29.150,2026-03-29T18:04:29.150,-31892.715,-50083.74,-85588.33499999999,-50353.29,-15964.289999999999,-20885.985,4467.42,-54937.215,-5.881980838396752,-3.5518978027456445,-3.837195764012634,0.012235396249967011,-2.765005533277608,-8.275689366840396,3.8288029408912068,-4.648326622023474,-0.04455555,-0.9473852700000001,0.34973055000000003,-7.553699999999999,3.0977799999999998,18.55616,72.0
1774821869.1504047,1.239776611328125e-05,2026-03-29T22:04:29.150,2026-03-29T18:04:29.150,-31918.635,-50069.43,-85540.455,-50306.085,-15918.615,-20815.829999999998,4468.815,-54980.055,4.894986170237666,6.088060705816083,3.7403396015334986,2.348824129028232,0.019382106793364662,-2.410901482188916,-3.7760001571019686,3.4524995621097836,-0.04455555,-0.9473852700000001,0.34973055000000003,-7.553699999999999,3.0977799999999998,18.55616,72.0
1774821869.1504197,1.5020370483398438e-05,2026-03-29T22:04:29.150,2026-03-29T18:04:29.150,-31881.105,-50045.445,-85533.345,-50322.78,-15945.66,-20831.489999999998,4443.12,-54939.015,13.156488151322199,13.005804431782842,9.672269963984347,3.764044487931954,2.9726765356181524,4.596267285225457,-9.2870995376078,9.358788783212342,-0.04064931,-0.95275635,0.35259919500000003,-11.93332,2.50264,18.80032,72.0
1774821869.150431,1.1205673217773438e-05,2026-03-29T22:04:29.150,2026-03-29T18:04:29.150,-31869.135,-50042.79,-85544.415,-50336.909999999996,-15948.99,-20835.135,4432.455,-54931.905,15.044122853562925,14.034556559132199,11.344284941062476,3.4478195490918533,4.713538724906187,9.839271163430736,-10.09367234812233,10.345214778050984,-0.04064931,-0.95275635,0.35259919500000003,-11.93332,2.50264,18.80032,72.0
1774821869.1504445,1.3589859008789062e-05,2026-03-29T22:04:29.150,2026-03-29T18:04:29.150,-31866.39,-50038.56,-85526.73,-50315.895,-15920.82,-20798.28,4441.455,-54939.42,9.814347166918566,8.691417178430214,8.012057483999929,1.3621768218591883,4.332268644354875,11.079256671158534,-5.968977105177391,6.269355147901253,-0.04064931,-0.95275635,0.35259919500000003,-11.93332,2.50264,18.80032,72.0
1774821869.1504548,1.0251998901367188e-05,2026-03-29T22:04:29.150,2026-03-29T18:04:29.150,-31887.539999999997,-50044.229999999996,-85517.64,-50296.905,-15906.42,-20787.48,4417.785,-54970.244999999995,0.12194228786226101,-0.5944482908187897,1.1440932195171516,-1.6468048342349784,1.870007628466959,7.704496562153637,0.8950713323976024,-0.5053751946440297,-0.04064931,-0.95275635,0.35259919500000003,-11.93332,2.50264,18.80032,72.0
1774821869.1549313,0.0044765472412109375,2026-03-29T22:04:29.154,2026-03-29T18:04:29.154,-31886.594999999998,-50036.4,-85511.025,-50283.045,-15900.974999999999,-20792.295,4422.51,-54977.715,-9.333681285997343,-9.593400654577929,-6.2149774100602855,-4.16901562572351,-1.6246694004478852,1.0303116038885876,7.044313597112815,-6.439818598186659,-0.04064931,-0.95275635,0.35259919500000003,-11.93332,2.50264,18.80032,72.0
1774821869.1549487,1.7404556274414062e-05,2026-03-29T22:04:29.154,2026-03-29T18:04:29.154,-31912.515,-50040.0,-85502.87999999999,-50251.814999999995,-15867.945,-20755.844999999998,4458.554999999999,-54994.814999999995,-14.106449070480688,-14.214691992252456,-10.790143658265444,-4.8752019931733805,-4.529579437598275,-6.207386348207506,9.502474796651718,-8.66834524944667,-0.04064931,-0.95275635,0.35259919500000003,-11.93332,2.50264,18.80032,72.0
1774821869.1613462,0.0063974857330322266,2026-03-29T22:04:29.161,2026-03-29T18:04:29.161,-31918.995,-50070.375,-85539.23999999999,-50268.33,-15873.164999999999,-20758.545,4498.29,-54963.674999999996,-12.113227455102322,-12.378366464880594,-10.538707044520978,-3.1994654375079135,-5.4014153309790665,-10.973931253271834,7.216935431127678,-6.400710057983197,-0.04064931,-0.95275635,0.35259919500000003,-11.93332,2.50264,18.80032,72.0
1774821869.1613657,1.9550323486328125e-05,2026-03-29T22:04:29.161,2026-03-29T18:04:29.161,-31908.105,-50098.905,-85577.04,-50306.759999999995,-15907.59,-20791.305,4512.375,-54911.34,-4.545078677662187,-4.957273720697397,-5.574979483293507,0.2840743334851119,-3.698732584438646,-11.213739384247779,1.5052596882905305,-1.182654291490075,-0.04064931,-0.95275635,0.35259919500000003,-11.93332,2.50264,18.80032,72.0
1774821869.1613843,1.8596649169921875e-05,2026-03-29T22:04:29.161,2026-03-29T18:04:29.161,-31903.155,-50086.799999999996,-85568.265,-50305.905,-15902.505,-20792.655,4486.1849999999995,-54907.38,4.819369015130985,4.640285236670089,1.867133896998989,4.020121288000248,-0.11119799978336833,-6.743774475468978,-4.6842608968385555,4.058832203690634,-0.04064931,-0.95275635,0.35259919500000003,-11.93332,2.50264,18.80032,72.0
1774821869.1613915,7.152557373046875e-06,2026-03-29T22:04:29.161,2026-03-29T18:04:29.161,-31855.77,-50026.86,-85510.17,-50264.46,-15866.055,-20780.73,4475.25,-54894.015,11.511912626225936,12.046584831657373,8.430025846243513,6.1493352984998015,3.7010374163122064,0.6292791158871431,-8.290198569445684,6.626546445155836,-0.04064931,-0.95275635,0.35259919500000003,-11.93332,2.50264,18.80032,72.0
1774821869.168567,0.007175445556640625,2026-03-29T22:04:29.168,2026-03-29T18:04:29.168,-31848.57,-50019.795,-85499.775,-50284.845,-15896.474999999999,-20820.87,4481.235,-54860.985,12.525551555204597,13.93528064899268,11.147654333614218,5.418059771769526,5.871144171050676,7.837880441782034,-7.653624225608579,5.445139003096286,-0.034606845,-0.960385725,0.34802157,-1.0682,5.02054,21.94388,72.0
1774821869.1685948,2.7894973754882812e-05,2026-03-29T22:04:29.168,2026-03-29T18:04:29.168,-31933.89,-50042.744999999995,-85499.73,-50306.715,-15924.285,-20826.045,4504.635,-54933.615,7.673962387074404,9.524066447884028,8.796582282182973,1.8818892819591246,5.2438693017338345,11.836002507374607,-3.2803401456497507,1.513981503016241,-0.034606845,-0.960385725,0.34802157,-1.0682,5.02054,21.94388,72.0
1774821869.1700304,0.0014355182647705078,2026-03-29T22:04:29.170,2026-03-29T18:04:29.170,-31937.715,-50068.305,-85536.765,-50319.45,-15937.83,-20832.03,4490.37,-54938.115,-0.4589313657082075,0.8960535180374412,2.462740640807342,-2.979885487125156,1.9950716116666432,10.896397277397304,2.4998021825737577,-2.7709063079010186,-0.034606845,-0.960385725,0.34802157,-1.0682,5.02054,21.94388,72.0
1774821869.1700473,1.6927719116210938e-05,2026-03-29T22:04:29.170,2026-03-29T18:04:29.170,-31921.785,-50078.7,-85545.135,-50303.115,-15922.394999999999,-20828.745,4491.09,-54913.725,-7.88901265100536,-7.990725353724599,-4.945943454569504,-6.861977675247367,-2.380919853933567,5.365265303382816,6.764269942016374,-5.007526840061772,-0.034606845,-0.960385725,0.34802157,-1.0682,5.02054,21.94388,72.0
1774821869.1744995,0.004452228546142578,2026-03-29T22:04:29.174,2026-03-29T18:04:29.174,-31896.18,-50080.77,-85566.915,-50330.88,-15957.18,-20880.36,4468.455,-54900.945,-11.197453780394031,-13.131403512045924,-10.028954134462372,-7.713799959832428,-5.750176830042971,-2.4600065081180684,7.472402555396852,-4.107896683563718,-0.034606845,-0.960385725,0.34802157,-1.0682,5.02054,21.94388,72.0
1774821869.1745162,1.6689300537109375e-05,2026-03-29T22:04:29.174,2026-03-29T18:04:29.174,-31914.629999999997,-50098.814999999995,-85593.285,-50367.104999999996,-15990.93,-20893.364999999998,4469.849999999999,-54898.695,-9.115540346155855,-12.289472522921137,-10.459465107971134,-4.8021229886103685,-6.380483801550447,-9.290634899305163,4.439836879867544,-0.8317930105854122,-0.034606845,-0.960385725,0.34802157,-1.0682,5.02054,21.94388,72.0
1774821869.178193,0.003676891326904297,2026-03-29T22:04:29.178,2026-03-29T18:04:29.178,-31915.98,-50091.795,-85588.245,-50357.88,-15973.154999999999,-20854.665,4445.28,-54900.99,-2.988648498345129,-5.971105419338403,-6.063458222493645,0.7876284987519949,-3.8367786764309564,-12.240594701238566,-0.651580746063558,2.729340662958875,-0.034606845,-0.960385725,0.34802157,-1.0682,5.02054,21.94388,72.0
1774821869.1782198,2.6702880859375e-05,2026-03-29T22:04:29.178,2026-03-29T18:04:29.178,-31874.85,-50070.465,-85580.19,-50337.27,-15948.09,-20821.95,4402.53,-54896.67,4.0365663322641,2.8665150956657666,1.0952816454835173,6.521985906506415,0.7340096856479413,-10.058342495431475,-5.172933603184534,4.399079219804554,-0.034606845,-0.960385725,0.34802157,-1.0682,5.02054,21.94388,72.0
1774821869.183684,0.005464315414428711,2026-03-29T22:04:29.183,2026-03-29T18:04:29.183,-31836.015,-50059.395,-85561.83,-50320.35,-15941.34,-20820.239999999998,4400.639999999999,-54845.505,8.629782186320794,10.209265615826533,7.672989755631089,9.557392811001092,5.108007963391254,-3.6639465207390702,-6.898949743511245,3.178974533732505,-0.034606845,-0.960385725,0.34802157,-1.0682,5.02054,21.94388,72.0
1774821869.183708,2.384185791015625e-05,2026-03-29T22:04:29.183,2026-03-29T18:04:29.183,-31869.225,-50080.68,-85576.05,-50340.24,-15964.244999999999,-20839.68,4440.96,-54848.835,8.866706808460243,12.820312139652266,10.606697427075593,8.139843160844457,7.063637640375112,4.242605732793643,-5.098363080927009,-0.1823185675952861,-0.034606845,-0.960385725,0.34802157,-1.0682,5.02054,21.94388,72.0
1774821869.187493,0.0037851333618164062,2026-03-29T22:04:29.187,2026-03-29T18:04:29.187,-31936.454999999998,-50092.155,-85567.095,-50316.525,-15916.769999999999,-20784.059999999998,4511.205,-54918.63,5.026802411291663,9.670724732271118,8.549426138149707,2.5811051430865017,5.51259012850716,10.333905725375299,-0.8314864223382107,-3.6284615059163956,-0.045226935,-0.9599584800000001,0.355406805,8.27092,8.530339999999999,23.1189,72.0
1774821869.1875224,2.9325485229492188e-05,2026-03-29T22:04:29.187,2026-03-29T18:04:29.187,-31909.364999999998,-50076.45,-85570.56,-50335.244999999995,-15924.42,-20785.905,4532.94,-54901.17,-0.7266067439249003,2.3321945756476326,2.5028442239495052,-4.719109505395642,1.1055648687475939,12.070529009403604,3.6586257393082002,-4.992189611838296,-0.045226935,-0.9599584800000001,0.355406805,8.27092,8.530339999999999,23.1189,72.0
1774821869.1899352,0.0024127960205078125,2026-03-29T22:04:29.189,2026-03-29T18:04:29.189,-31887.719999999998,-50071.185,-85563.09,-50327.1,-15925.545,-20799.945,4493.79,-54889.92,-5.541132149573447,-5.810655496884373,-4.656447106965772,-10.29725517958283,-4.023844071202446,8.769471862686572,6.117613585383473,-3.273520671033601,-0.045226935,-0.9599584800000001,0.355406805,8.27092,8.530339999999999,23.1189,72.0
1774821869.189945,9.775161743164062e-06,2026-03-29T22:04:29.189,2026-03-29T18:04:29.189,-31907.385,-50091.03,-85566.69,-50324.49,-15925.994999999999,-20805.66,4450.86,-54869.895,-7.293892786740522,-11.131781965037096,-9.538709818857459,-11.266461325000593,-7.286791273055227,1.8705525317943859,5.404558012567452,0.7266992906899326,-0.045226935,-0.9599584800000001,0.355406805,8.27092,8.530339999999999,23.1189,72.0
1774821869.194522,0.004576921463012695,2026-03-29T22:04:29.194,2026-03-29T18:04:29.194,-31896.36,-50059.619999999995,-85522.68,-50289.255,-15915.644999999999,-20824.29,4475.429999999999,-54833.67,-5.525915065785458,-11.383981226289416,-9.848542342973001,-6.797562333957995,-6.945908901928795,-5.702548569328492,2.0114647348057475,4.7914174400920935,-0.045226935,-0.9599584800000001,0.355406805,8.27092,8.530339999999999,23.1189,72.0
1774821869.19455,2.8133392333984375e-05,2026-03-29T22:04:29.194,2026-03-29T18:04:29.194,-31878.945,-50023.935,-85483.98,-50256.765,-15904.89,-20839.094999999998,4489.2,-54836.369999999995,-1.482217340764677,-6.640929711711097,-5.473779150144973,1.3148289314508603,-3.0412520103529395,-10.798061123230982,-2.2538893563275573,6.499866438000868,-0.045226935,-0.9599584800000001,0.355406805,8.27092,8.530339999999999,23.1189,72.0
1774821869.1992383,0.004688262939453125,2026-03-29T22:04:29.199,2026-03-29T18:04:29.199,-31917.329999999998,-50047.83,-85504.14,-50253.705,-15887.16,-20803.454999999998,4495.095,-54888.479999999996,2.675449814150295,0.8301119468709691,1.4657097433460524,9.352318859847747,2.558423246605941,-11.360793144046271,-5.22570316576032,4.610577244884051,-0.045226935,-0.9599584800000001,0.355406805,8.27092,8.530339999999999,23.1189,72.0
1774821869.1992595,2.1219253540039062e-05,2026-03-29T22:04:29.199,2026-03-29T18:04:29.199,-31884.93,-50061.104999999996,-85565.655,-50320.305,-15947.055,-20846.79,4462.74,-54855.945,5.013073633512181,7.659878533839943,7.635849050631197,13.37873128945247,7.043377446723126,-7.261775183750345,-5.472840105524257,-0.15515644630927666,-0.045226935,-0.9599584800000001,0.355406805,8.27092,8.530339999999999,23.1189,72.0
1774821869.2033815,0.004122018814086914,2026-03-29T22:04:29.203,2026-03-29T18:04:29.203,-31889.07,-50065.875,-85576.815,-50340.104999999996,-15959.789999999999,-20843.37,4457.07,-54871.064999999995,4.7239534281978575,10.903441052311809,10.087625314452678,11.169234981444498,8.071339500755938,-0.29695880155170934,-2.9776507693327936,-5.390508511813096,-0.045226935,-0.9599584800000001,0.355406805,8.27092,8.530339999999999,23.1189,72.0
1774821869.2033963,1.4781951904296875e-05,2026-03-29T22:04:29.203,2026-03-29T18:04:29.203,-31914.27,-50062.095,-85533.165,-50299.064999999995,-15899.31,-20762.415,4482.945,-54876.509999999995,2.36480903660713,9.306187643732589,7.670794536629524,3.4159249797557187,4.991063865804458,6.616024049606813,0.9162382952109386,-8.232591937352884,-0.045226935,-0.9599584800000001,0.355406805,8.27092,8.530339999999999,23.1189,72.0
1774821869.206061,0.0026645660400390625,2026-03-29T22:04:29.206,2026-03-29T18:04:29.206,-31873.41,-50038.515,-85520.655,-50295.33,-15884.91,-20741.445,4487.3099999999995,-54837.674999999996,-0.6117101386404813,3.7672179966652,1.5814059392339648,-6.435335402866981,-0.7586097372711903,10.67576686344837,4.226874188763904,-6.910029754665256,-0.05651841,-0.94396731,0.360289605,7.889419999999999,8.2404,21.257179999999998,72.0
1774821869.206074,1.3113021850585938e-05,2026-03-29T22:04:29.206,2026-03-29T18:04:29.206,-31836.015,-50059.665,-85546.98,-50327.729999999996,-15920.505,-20780.415,4462.245,-54791.145,-2.7063611453033207,-3.157996169166677,-5.221703744970624,-13.718016008752166,-6.313143167483544,10.335881546728748,5.3388670857217075,-1.7784968287428702,-0.05651841,-0.94396731,0.360289605,7.889419999999999,8.2404,21.257179999999998,72.0
1774821869.2111804,0.005106449127197266,2026-03-29T22:04:29.211,2026-03-29T18:04:29.211,-31892.94,-50112.0,-85567.59,-50339.34,-15950.519999999999,-20825.145,4426.514999999999,-54787.814999999995,-3.123215876204341,-8.443882277210456,-9.45023543544325,-14.766309555204739,-8.80777709067662,5.879157306643656,3.7819450660050555,4.738930142326102,-0.05651841,-0.94396731,0.360289605,7.889419999999999,8.2404,21.257179999999998,72.0
1774821869.211192,1.1444091796875e-05,2026-03-29T22:04:29.211,2026-03-29T18:04:29.211,-31939.289999999997,-50089.814999999995,-85552.02,-50327.505,-15950.835,-20835.225,4441.095,-54836.595,-2.046556324101942,-9.91550189222831,-9.076313521620998,-8.762549226357928,-6.855461115324749,-0.778095365213377,0.4121649178775647,9.322111252954357,-0.05651841,-0.94396731,0.360289605,7.889419999999999,8.2404,21.257179999999998,72.0
1774821869.2139895,0.0027976036071777344,2026-03-29T22:04:29.213,2026-03-29T18:04:29.213,-31922.864999999998,-50047.29,-85529.79,-50307.39,-15926.67,-20814.344999999998,4488.48,-54877.725,-0.3646044031306504,-7.127727273635374,-4.308767139196069,1.7221377772021726,-1.3142465469885953,-6.927379930112372,-3.0631193005522945,9.45782499901741,-0.05651841,-0.94396731,0.360289605,7.889419999999999,8.2404,21.257179999999998,72.0
1774821869.2140176,2.8133392333984375e-05,2026-03-29T22:04:29.214,2026-03-29T18:04:29.214,-31916.16,-50037.659999999996,-85513.185,-50286.06,-15908.939999999999,-20834.505,4514.804999999999,-54860.579999999994,0.9346499103216594,-1.4562654428166344,2.51703640191416,11.82519434342729,5.078955245154182,-10.176473759122523,-4.951805541573073,4.797495104691875,-0.05651841,-0.94396731,0.360289605,7.889419999999999,8.2404,21.257179999999998,72.0
1774821869.2196329,0.005615234375,2026-03-29T22:04:29.219,2026-03-29T18:04:29.219,-31882.23,-50028.165,-85513.185,-50282.64,-15910.064999999999,-20867.715,4491.405,-54825.435,1.3190499663091955,4.5850218220280565,8.080564437195005,16.663167813240552,9.058794033268937,-9.36707725328729,-4.394427228178442,-2.557491068608211,-0.05651841,-0.94396731,0.360289605,7.889419999999999,8.2404,21.257179999999998,72.0
1774821869.2196476,1.4781951904296875e-05,2026-03-29T22:04:29.219,2026-03-29T18:04:29.219,-31868.414999999997,-50026.185,-85502.745,-50271.435,-15899.939999999999,-20825.46,4470.84,-54807.39,0.9149271319363992,8.459799618657824,9.691680479091918,13.70877455089455,8.500666592818014,-4.956238087896737,-1.7402935851533563,-9.029629607934647,-0.05651841,-0.94396731,0.360289605,7.889419999999999,8.2404,21.257179999999998,72.0
1774821869.2220707,0.0024230480194091797,2026-03-29T22:04:29.222,2026-03-29T18:04:29.222,-31867.469999999998,-50038.65,-85525.245,-50303.295,-15936.255,-20837.61,4453.875,-54797.22,0.28853661275248094,8.661989908716635,6.593187662695722,4.109783981116376,3.554631459490095,1.2446468637616246,1.6742673433537305,-11.334737929016374,-0.05651841,-0.94396731,0.360289605,7.889419999999999,8.2404,21.257179999999998,72.0
1774821869.2220864,1.5735626220703125e-05,2026-03-29T22:04:29.222,2026-03-29T18:04:29.222,-31888.754999999997,-50058.36,-85545.765,-50328.134999999995,-15960.869999999999,-20852.28,4441.41,-54798.39,-0.008603142594867146,5.275249504818616,0.31748846654543983,-7.738864691073215,-3.3612296430382385,6.823545761963087,4.206129196700703,-8.159306466828886,-0.05651841,-0.94396731,0.360289605,7.889419999999999,8.2404,21.257179999999998,72.0
1774821869.226057,0.003970623016357422,2026-03-29T22:04:29.226,2026-03-29T18:04:29.226,-31906.89,-50068.17,-85555.89,-50334.075,-15950.115,-20818.26,4456.8,-54815.67,0.17843458874668938,-0.15327652180322165,-6.072116954420084,-16.22218370813607,-8.74132190635921,9.694463474521333,4.694663532569525,-0.8845281744692969,-0.05834946,-0.92809821,0.354064035,5.1884,6.62284,23.2715,72.0
1774821869.2260733,1.621246337890625e-05,2026-03-29T22:04:29.226,2026-03-29T18:04:29.226,-31904.774999999998,-50070.96,-85553.19,-50316.84,-15907.32,-20756.43,4496.3099999999995,-54801.225,0.5380351524563494,-5.32290571956901,-9.479876572129188,-17.190607897902876,-9.771882167600053,8.846567293715056,2.9815044609585977,7.033737108174191,-0.05834946,-0.92809821,0.354064035,5.1884,6.62284,23.2715,72.0
1774821869.2302177,0.004144430160522461,2026-03-29T22:04:29.230,2026-03-29T18:04:29.230,-31891.545,-50071.545,-85563.315,-50331.555,-15926.22,-20781.495,4504.23,-54775.259999999995,0.5614577378867831,-8.145666409348529,-8.280843455380884,-10.00854150776416,-5.805042218307556,4.664520872149909,-0.06568770008084539,11.741428018853231,-0.05834946,-0.92809821,0.354064035,5.1884,6.62284,23.2715,72.0
1774821869.2302315,1.3828277587890625e-05,2026-03-29T22:04:29.230,2026-03-29T18:04:29.230,-31884.704999999998,-50077.395,-85575.735,-50348.744999999995,-15954.66,-20835.09,4460.13,-54780.704999999994,-0.041242837138083514,-7.567861889348263,-3.0962364853665036,2.054113269455927,1.2457794642053923,-1.2583164219017904,-3.004540988147091,10.890931683904155,-0.05834946,-0.92809821,0.354064035,5.1884,6.62284,23.2715,72.0
1774821869.2340312,0.0037996768951416016,2026-03-29T22:04:29.234,2026-03-29T18:04:29.234,-31882.815,-50081.13,-85567.59,-50325.39,-15937.109999999999,-20831.445,4443.389999999999,-54796.77,-1.06609620507555,-3.9361093518395114,3.5306940855255293,13.32032433310647,7.825506884648915,-6.716795167941959,-4.505000493570742,4.8205522737183,-0.05834946,-0.92809821,0.354064035,5.1884,6.62284,23.2715,72.0
1774821869.2340653,3.409385681152344e-05,2026-03-29T22:04:29.234,2026-03-29T18:04:29.234,-31888.17,-50101.11,-85599.9,-50355.09,-15974.595,-20869.965,4458.014999999999,-54759.104999999996,-1.8799777850244086,1.2025486500328821,8.389347546207855,18.404245101177075,10.532257530112414,-9.681822904126385,-3.9428461564715493,-3.5874979219591783,-0.05834946,-0.92809821,0.354064035,5.1884,6.62284,23.2715,72.0
1774821869.2383823,0.004317045211791992,2026-03-29T22:04:29.238,2026-03-29T18:04:29.238,-31896.315,-50098.77,-85598.955,-50354.64,-15974.64,-20872.17,4470.4349999999995,-54743.265,-1.8071905097838898,5.754192714447408,9.165036242747378,14.815414456390844,7.880455776625498,-9.01648750931354,-1.6392566527643984,-10.306811801161306,-0.05834946,-0.92809821,0.354064035,5.1884,6.62284,23.2715,72.0
1774821869.2384076,2.5272369384765625e-05,2026-03-29T22:04:29.238,2026-03-29T18:04:29.238,-31913.324999999997,-50082.93,-85555.08,-50309.595,-15928.38,-20825.325,4476.554999999999,-54785.744999999995,-0.6061410824761615,7.912182602749686,5.545416714889058,4.1962760838169535,1.1166568163949255,-4.890777888145272,1.333350191692369,-12.131138226765469,-0.05834946,-0.92809821,0.354064035,5.1884,6.62284,23.2715,72.0
1774821869.2437036,0.005295991897583008,2026-03-29T22:04:29.243,2026-03-29T18:04:29.243,-31895.414999999997,-50061.33,-85540.23,-50295.555,-15912.135,-20806.155,4488.4349999999995,-54779.805,1.272969929420833,6.850441075795716,-0.6617728295252795,-8.430146760364174,-6.359861235828833,1.2427466831603513,3.659881750635543,-8.22972182328414,-0.05834946,-0.92809821,0.354064035,5.1884,6.62284,23.2715,72.0
1774821869.24372,1.6450881958007812e-05,2026-03-29T22:04:29.243,2026-03-29T18:04:29.243,-31887.449999999997,-50043.195,-85542.61499999999,-50314.32,-15929.73,-20812.59,4485.735,-54765.225,2.845565034624453,3.0235540865005746,-6.440367195429162,-17.058542063799532,-10.706267004224095,7.121361921090459,4.36009768631985,-0.5283461150243933,-0.05834946,-0.92809821,0.354064035,5.1884,6.62284,23.2715,72.0
1774821869.246094,0.002373933792114258,2026-03-29T22:04:29.246,2026-03-29T18:04:29.246,-31884.93,-50055.795,-85553.50499999999,-50329.08,-15939.224999999999,-20808.54,4479.3,-54744.75,3.117241250324437,-2.025833532925613,-9.044065551095011,-17.59095182185882,-9.61559356884267,10.46202001330231,3.1838773309652835,7.259787560188314,-0.058044285,-0.93102789,0.34338291,5.646199999999999,5.234179999999999,25.942,72.0
1774821869.2461152,2.1219253540039062e-05,2026-03-29T22:04:29.246,2026-03-29T18:04:29.246,-31864.59,-50073.84,-85576.815,-50350.005,-15965.055,-20835.405,4462.11,-54707.49,1.6933045210454967,-6.271948486193772,-7.310994409518103,-9.812330716890838,-3.545069603342022,9.81979550316584,0.6751357853685601,11.458220641837249,-0.058044285,-0.93102789,0.34338291,5.646199999999999,5.234179999999999,25.942,72.0
1774821869.2503169,0.004201650619506836,2026-03-29T22:04:29.250,2026-03-29T18:04:29.250,-31860.945,-50084.369999999995,-85599.315,-50354.369999999995,-15977.519999999999,-20864.25,4442.4,-54695.159999999996,-0.8905371407057174,-7.995655250035803,-2.180092333410053,2.513942201249899,4.462026263258693,5.209324680163615,-2.0926554403623614,10.196203089380107,-0.058044285,-0.93102789,0.34338291,5.646199999999999,5.234179999999999,25.942,72.0
1774821869.2503476,3.075599670410156e-05,2026-03-29T22:04:29.250,2026-03-29T18:04:29.250,-31905.989999999998,-50071.59,-85540.905,-50271.705,-15894.045,-20798.19,4441.905,-54756.0,-3.3493099421755335,-6.464244564668482,3.8201827781469375,13.478480971101957,10.300212728246517,-1.7750777274582517,-3.974955933839852,4.257092921037361,-0.058044285,-0.93102789,0.34338291,5.646199999999999,5.234179999999999,25.942,72.0
1774821869.254318,0.00397038459777832,2026-03-29T22:04:29.254,2026-03-29T18:04:29.254,-31902.39,-50062.68,-85513.23,-50242.68,-15868.664999999999,-20803.184999999998,4426.5599999999995,-54754.965,-4.293370674183089,-2.2414812123625483,7.832859310113972,17.889174699916797,10.909115214005126,-8.45333656536803,-4.213460011476001,-3.385035260066762,-0.058044285,-0.93102789,0.34338291,5.646199999999999,5.234179999999999,25.942,72.0
1774821869.2543395,2.1457672119140625e-05,2026-03-29T22:04:29.254,2026-03-29T18:04:29.254,-31903.425,-50072.805,-85527.98999999999,-50277.465,-15902.865,-20842.605,4446.135,-54748.35,-3.0105261249066846,3.0026842877111966,8.048070371910352,13.764478545715995,5.881459390632418,-12.050742426972668,-2.7188869034326126,-9.07447432061776,-0.058044285,-0.93102789,0.34338291,5.646199999999999,5.234179999999999,25.942,72.0
1774821869.2588127,0.004473209381103516,2026-03-29T22:04:29.258,2026-03-29T18:04:29.258,-31950.135,-50086.215,-85562.01,-50331.78,-15946.425,-20851.155,4472.6849999999995,-54801.854999999996,0.051796046840298746,7.129387209638565,4.523485919397307,3.243490874380884,-2.274612514223029,-10.842067897084087,-0.08776494395060727,-10.2551094403152,-0.058044285,-0.93102789,0.34338291,5.646199999999999,5.234179999999999,25.942,72.0
1774821869.25884,2.7418136596679688e-05,2026-03-29T22:04:29.258,2026-03-29T18:04:29.258,-31936.815,-50073.795,-85576.995,-50364.765,-15976.755,-20860.829999999998,4459.095,-54792.99,3.4102192898771335,8.38527632796399,-0.9251617731531802,-8.515078649086508,-9.382687836369689,-4.982768385397818,2.6362372484319523,-6.642393334443127,-0.058044285,-0.93102789,0.34338291,5.646199999999999,5.234179999999999,25.942,72.0
1774821869.2621925,0.0033524036407470703,2026-03-29T22:04:29.262,2026-03-29T18:04:29.262,-31903.02,-50074.155,-85576.995,-50357.61,-15973.695,-20850.344999999998,4480.514999999999,-54743.985,5.263355733540534,6.142686369625819,-5.670142314361233,-15.881510391585545,-11.736086330408348,3.3743822696581893,4.360534186546769,-0.23853074519326262,-0.058044285,-0.93102789,0.34338291,5.646199999999999,5.234179999999999,25.942,72.0
1774821869.2622128,2.0265579223632812e-05,2026-03-29T22:04:29.262,2026-03-29T18:04:29.262,-31860.719999999998,-50049.314999999995,-85561.65,-50345.369999999995,-15966.494999999999,-20835.63,4508.955,-54700.47,4.455906405123641,1.2155233595155335,-7.557839758724685,-15.483447522710232,-8.031964318038987,10.820232523891615,4.358946702405354,5.762680943523271,-0.058044285,-0.93102789,0.34338291,5.646199999999999,5.234179999999999,25.942,72.0
1774821869.268909,0.006696224212646484,2026-03-29T22:04:29.268,2026-03-29T18:04:29.268,-31867.605,-50049.18,-85542.705,-50314.68,-15918.3,-20785.005,4493.5199999999995,-54697.994999999995,1.173775669730211,-4.409146092497853,-5.896915038562181,-7.776622620914091,-0.09156218339040878,14.063420849268173,2.5601490246737986,8.587744018282216,-0.06176742,-0.93346929,0.341124615,9.26282,3.8455199999999996,24.858539999999998,72.0
1774821869.2689266,1.7642974853515625e-05,2026-03-29T22:04:29.268,2026-03-29T18:04:29.268,-31894.11,-50079.555,-85517.415,-50269.905,-15875.955,-20759.895,4479.255,-54713.97,-3.036998250287778,-8.35224375824842,-1.6894389044488611,3.2865210837049528,8.030643742077377,11.393888868892574,-0.39528058744215455,7.191074090276746,-0.06176742,-0.93346929,0.341124615,9.26282,3.8455199999999996,24.858539999999998,72.0
1774821869.2699916,0.0010650157928466797,2026-03-29T22:04:29.269,2026-03-29T18:04:29.269,-31931.37,-50119.244999999995,-85519.8,-50258.835,-15866.73,-20753.37,4512.51,-54702.09,-5.992986211875621,-8.840795848161672,2.9588427279540537,12.282795138252313,12.11482742842031,3.5814994472448674,-3.3627084912320715,2.6310889505441235,-0.06176742,-0.93346929,0.341124615,9.26282,3.8455199999999996,24.858539999999998,72.0
1774821869.2700024,1.0728836059570312e-05,2026-03-29T22:04:29.270,2026-03-29T18:04:29.270,-31935.105,-50082.93,-85515.61499999999,-50266.665,-15881.939999999999,-20770.065,4491.2699999999995,-54711.63,-6.001193277802115,-5.508551742955079,5.90900813519286,14.999962105154614,9.966191025814892,-6.261024805889315,-5.111662967608887,-2.613411416720996,-0.06176742,-0.93346929,0.341124615,9.26282,3.8455199999999996,24.858539999999998,72.0
1774821869.2738664,0.0038640499114990234,2026-03-29T22:04:29.273,2026-03-29T18:04:29.273,-31878.36,-50009.445,-85508.955,-50274.045,-15903.539999999999,-20807.505,4468.1849999999995,-54745.38,-2.810005815508042,0.36418161191118176,5.9891177354907486,10.437180028430268,2.5909170790343583,-13.892147315205559,-4.8171598691711495,-5.9766689464964475,-0.06176742,-0.93346929,0.341124615,9.26282,3.8455199999999996,24.858539999999998,72.0
1774821869.2738757,9.298324584960938e-06,2026-03-29T22:04:29.273,2026-03-29T18:04:29.273,-31849.289999999997,-50019.165,-85534.11,-50297.67,-15938.144999999999,-20855.52,4461.66,-54711.09,2.143465695883746,6.317843177163751,3.4484983864494336,1.1608072543850405,-6.27108191440394,-15.774459403982323,-2.439005998167249,-6.077136929003362,-0.06176742,-0.93346929,0.341124615,9.26282,3.8455199999999996,24.858539999999998,72.0
1774821869.2794657,0.005589962005615234,2026-03-29T22:04:29.279,2026-03-29T18:04:29.279,-31826.969999999998,-50038.515,-85557.645,-50328.314999999995,-15968.25,-20878.2,4453.29,-54657.99,6.372319329936676,9.73195194308157,-0.30380185694573303,-8.103923099943572,-12.041433006605443,-10.732601864022287,1.1809326598862953,-3.2905462545952497,-0.06176742,-0.93346929,0.341124615,9.26282,3.8455199999999996,24.858539999999998,72.0
1774821869.279528,6.222724914550781e-05,2026-03-29T22:04:29.279,2026-03-29T18:04:29.279,-31841.504999999997,-50071.77,-85584.015,-50351.085,-15972.39,-20870.145,4443.12,-54629.82,7.5838776757476065,8.979150681758723,-3.4805308529059884,-12.88468073842394,-11.665609383047176,-0.6508310138937943,4.584296182370821,0.6143956574711417,-0.06176742,-0.93346929,0.341124615,9.26282,3.8455199999999996,24.858539999999998,72.0
1774821869.2818327,0.0023047924041748047,2026-03-29T22:04:29.281,2026-03-29T18:04:29.281,-31866.3,-50068.755,-85593.645,-50369.985,-15973.515,-20857.23,4427.91,-54666.854999999996,4.906556416937659,4.206435152931074,-4.785078192030933,-11.142986112949826,-5.22338974066883,10.190752184635054,6.262211926780291,3.5202955187847156,-0.06176742,-0.93346929,0.341124615,9.26282,3.8455199999999996,24.858539999999998,72.0
1774821869.2818465,1.3828277587890625e-05,2026-03-29T22:04:29.281,2026-03-29T18:04:29.281,-31871.25,-50077.665,-85610.87999999999,-50376.195,-15977.16,-20856.51,4465.08,-54678.915,-0.5516438079786132,-2.6339311610813363,-3.93706976106133,-4.150079478778135,4.059842647687553,16.93231372555755,5.315001551532055,4.093209792237946,-0.06176742,-0.93346929,0.341124615,9.26282,3.8455199999999996,24.858539999999998,72.0
1774821869.2861817,0.004335165023803711,2026-03-29T22:04:29.286,2026-03-29T18:04:29.286,-31879.215,-50100.119999999995,-85613.44499999999,-50367.375,-15981.93,-20877.255,4477.41,-54656.865,-6.149217885948455,-8.566807829467379,-1.6433978826142444,4.32217577199579,11.431226124894724,16.333377172403427,1.922047394125938,2.4033854145544886,-0.063293295,-0.93127203,0.34533603,8.97288,4.53222,24.6449,72.0
1774821869.2861977,1.5974044799804688e-05,2026-03-29T22:04:29.286,2026-03-29T18:04:29.286,-31915.079999999998,-50076.63,-85548.51,-50311.125,-15937.92,-20850.795,4488.75,-54697.229999999996,-8.988250373030313,-10.885250898246822,0.8931366634501717,10.014149058446147,13.043981141572093,8.350048833227042,-2.619401260317616,-0.2568482744736476,-0.063293295,-0.93127203,0.34533603,8.97288,4.53222,24.6449,72.0
1774821869.2903368,0.0041391849517822266,2026-03-29T22:04:29.290,2026-03-29T18:04:29.290,-31919.715,-50060.07,-85517.91,-50286.42,-15902.055,-20797.515,4498.155,-54710.729999999996,-7.403712605857927,-8.391647473058093,2.613984656120826,10.327906998724615,7.95887245685124,-3.686239469371995,-6.362925032608034,-2.2042313221855707,-0.063293295,-0.93127203,0.34533603,8.97288,4.53222,24.6449,72.0
1774821869.2903583,2.1457672119140625e-05,2026-03-29T22:04:29.290,2026-03-29T18:04:29.290,-31897.395,-50047.02,-85516.92,-50285.744999999995,-15897.689999999999,-20790.899999999998,4494.735,-54699.165,-1.9022167928816205,-2.017098586803382,3.0493542084879377,5.5237760965623925,-1.3267471462794214,-14.4504311343819,-7.5368311795313065,-2.3505191141333026,-0.063293295,-0.93127203,0.34533603,8.97288,4.53222,24.6449,72.0
1774821869.294232,0.003873586654663086,2026-03-29T22:04:29.294,2026-03-29T18:04:29.294,-31889.789999999997,-50059.53,-85554.045,-50334.03,-15948.99,-20842.38,4479.929999999999,-54682.829999999994,4.966099997620337,5.501281916737285,2.3785486599877363,-1.5928657528626444,-10.114495458049884,-18.99822475999748,-5.380496300600874,-0.7902518883166991,-0.063293295,-0.93127203,0.34533603,8.97288,4.53222,24.6449,72.0
1774821869.2942622,3.0279159545898438e-05,2026-03-29T22:04:29.294,2026-03-29T18:04:29.294,-31890.735,-50066.46,-85561.37999999999,-50333.265,-15945.029999999999,-20830.95,4463.82,-54681.345,9.793087822831993,10.788507849196586,1.154764631891639,-7.256583503828793,-13.889676654749154,-15.065707202480805,-0.5990359775140297,1.3193656108304288,-0.063293295,-0.93127203,0.34533603,8.97288,4.53222,24.6449,72.0
1774821869.2984457,0.004183530807495117,2026-03-29T22:04:29.298,2026-03-29T18:04:29.298,-31909.77,-50060.88,-85529.11499999999,-50291.82,-15892.335,-20764.755,4483.62,-54696.195,10.001306913284244,11.350690777822136,-0.08009085371121206,-8.721472099118426,-10.64049331059253,-4.211088753608499,4.823671532569122,2.4928091434673316,-0.063293295,-0.93127203,0.34533603,8.97288,4.53222,24.6449,72.0
1774821869.2984667,2.09808349609375e-05,2026-03-29T22:04:29.298,2026-03-29T18:04:29.298,-31922.774999999998,-50062.365,-85521.78,-50285.79,-15889.904999999999,-20760.93,4502.835,-54701.64,5.198235800811849,6.759537641177517,-1.0430995868832704,-5.597898002251572,-1.9188288623000829,8.78380719407181,8.43475426105436,1.8310060994873358,-0.063293295,-0.93127203,0.34533603,8.97288,4.53222,24.6449,72.0
1774821869.3023615,0.003894805908203125,2026-03-29T22:04:29.302,2026-03-29T18:04:29.302,-31908.69,-50067.945,-85542.795,-50314.229999999996,-15926.715,-20811.735,4486.995,-54679.86,-2.5084435601288626,-1.0637652539483278,-1.7029598928611271,0.10818136307701251,7.913684500026704,18.033982694598944,8.422502557577674,-0.4108219872212251,-0.063293295,-0.93127203,0.34533603,8.97288,4.53222,24.6449,72.0
1774821869.3023863,2.47955322265625e-05,2026-03-29T22:04:29.302,2026-03-29T18:04:29.302,-31900.77,-50062.409999999996,-85532.895,-50303.61,-15918.84,-20809.62,4455.495,-54673.92,-9.441397969456837,-8.640172988692367,-2.087994387708363,5.202184381382214,13.882877020244814,19.24705744969405,4.524401249745338,-2.930335846675848,-0.063293295,-0.93127203,0.34533603,8.97288,4.53222,24.6449,72.0
1774821869.3068035,0.0044171810150146484,2026-03-29T22:04:29.306,2026-03-29T18:04:29.306,-31890.329999999998,-50052.104999999996,-85520.52,-50294.79,-15915.555,-20809.755,4461.3,-54655.829999999994,-12.115576805293207,-12.480592619521518,-2.10261622483499,7.055249321737715,12.928407416896444,11.744963328549993,-1.7222155757957764,-4.10894095595479,-0.067565745,-0.92919684,0.34850985,8.98814,4.63904,24.034499999999998,72.0
1774821869.3068235,2.002716064453125e-05,2026-03-29T22:04:29.306,2026-03-29T18:04:29.306,-31890.42,-50068.439999999995,-85543.92,-50321.79,-15939.0,-20830.77,4449.69,-54655.92,-8.98250339263083,-10.701282061320613,-1.5254328062095008,4.954151651958415,5.470647911891648,-1.1548584287843247,-7.566369267889698,-2.963813808604776,-0.067565745,-0.92919684,0.34850985,8.98814,4.63904,24.034499999999998,72.0
1774821869.3103516,0.003528118133544922,2026-03-29T22:04:29.310,2026-03-29T18:04:29.310,-31895.504999999997,-50095.485,-85576.14,-50346.9,-15958.305,-20844.27,4448.07,-54651.465,-1.2853044256759893,-3.9551107537431873,-0.21595382460788853,0.3544921221031727,-4.7849366209295825,-13.613567923124306,-10.255445284470554,0.21314283996758218,-0.067565745,-0.92919684,0.34850985,8.98814,4.63904,24.034499999999998,72.0
1774821869.3103795,2.7894973754882812e-05,2026-03-29T22:04:29.310,2026-03-29T18:04:29.310,-31855.86,-50064.705,-85557.465,-50330.07,-15943.814999999999,-20828.969999999998,4478.175,-54607.32,7.434082420623789,4.784693714857606,1.6166329762877727,-4.040203344045094,-12.710806388415017,-19.94257271446488,-8.339534359155559,3.903733534451945,-0.067565745,-0.92919684,0.34850985,8.98814,4.63904,24.034499999999998,72.0
1774821869.3143976,0.004018068313598633,2026-03-29T22:04:29.314,2026-03-29T18:04:29.314,-31847.219999999998,-50052.869999999995,-85540.635,-50313.015,-15934.32,-20830.635,4500.045,-54587.564999999995,12.979764035721448,11.53157921866596,3.3098929121495213,-5.820363406219353,-14.342171002104342,-17.23688084218641,-2.4464367838634797,6.106434183754788,-0.067565745,-0.92919684,0.34850985,8.98814,4.63904,24.034499999999998,72.0
1774821869.3144138,1.621246337890625e-05,2026-03-29T22:04:29.314,2026-03-29T18:04:29.314,-31884.93,-50049.45,-85508.50499999999,-50274.854999999996,-15901.244999999999,-20803.23,4491.09,-54624.375,12.52712116410756,13.110968229169009,3.9602038084224276,-4.170999315218326,-8.871070491541905,-6.734087452559572,4.8846095374933665,5.4017894175840935,-0.067565745,-0.92919684,0.34850985,8.98814,4.63904,24.034499999999998,72.0
1774821869.318388,0.003974199295043945,2026-03-29T22:04:29.318,2026-03-29T18:04:29.318,-31865.445,-50043.689999999995,-85531.275,-50302.575,-15926.715,-20824.155,4470.21,-54632.159999999996,6.046858832650477,8.665059375140585,2.901435124815292,-0.2354361929815503,0.959083154025724,6.749190138662825,10.294561149215902,1.7792848382706847,-0.067565745,-0.92919684,0.34850985,8.98814,4.63904,24.034499999999998,72.0
1774821869.3184364,4.839897155761719e-05,2026-03-29T22:04:29.318,2026-03-29T18:04:29.318,-31855.59,-50064.615,-85579.69499999999,-50357.205,-15970.365,-20854.35,4462.785,-54623.7,-3.585490049344798,0.1188441015297022,0.19857256863509248,3.6168031577638597,10.25021803447269,17.048735960207928,11.1546442894232,-3.2305580582623286,-0.067565745,-0.92919684,0.34850985,8.98814,4.63904,24.034499999999998,72.0
1774821869.3255205,0.0070841312408447266,2026-03-29T22:04:29.325,2026-03-29T18:04:29.325,-31893.12,-50093.055,-85590.675,-50358.915,-15962.13,-20850.524999999998,4471.695,-54621.945,-11.883835201001963,-8.645394253946858,-3.166641610357644,5.172048155037632,14.418907519059506,19.508311451589222,6.854951101744651,-7.2268275438323615,-0.067565745,-0.92919684,0.34850985,8.98814,4.63904,24.034499999999998,72.0
1774821869.3255413,2.0742416381835938e-05,2026-03-29T22:04:29.325,2026-03-29T18:04:29.325,-31885.469999999998,-50087.744999999995,-85599.62999999999,-50363.28,-15972.75,-20880.765,4446.54,-54586.215,-14.857989656206184,-13.555599942623259,-5.614389064696605,3.616161711356696,11.48164062191989,13.119214812975526,-0.8050858238315206,-8.10493574771406,-0.067565745,-0.92919684,0.34850985,8.98814,4.63904,24.034499999999998,72.0
1774821869.3274689,0.0019276142120361328,2026-03-29T22:04:29.327,2026-03-29T18:04:29.327,-31800.78,-50075.369999999995,-85616.19,-50387.49,-16003.98,-20901.87,4427.1449999999995,-54529.695,-10.934779234193629,-12.25314756678507,-5.711716283921936,-0.04848767729608143,3.005704522648441,0.9440567483958041,-8.361002836046701,-5.144834274299272,-0.06994611,-0.924619215,0.34460361,4.0896799999999995,4.15072,22.55428,72.0
1774821869.3274798,1.0967254638671875e-05,2026-03-29T22:04:29.327,2026-03-29T18:04:29.327,-31837.274999999998,-50116.814999999995,-85614.84,-50379.435,-15999.164999999999,-20888.19,4468.5,-54525.509999999995,-1.7667947879893873,-5.237034396799661,-2.991472933692973,-3.6241055494293155,-6.734503451515921,-11.359633229961581,-12.260422391488351,0.5352459833949483,-0.06994611,-0.924619215,0.34460361,4.0896799999999995,4.15072,22.55428,72.0
1774821869.3329415,0.005461692810058594,2026-03-29T22:04:29.332,2026-03-29T18:04:29.332,-31898.204999999998,-50091.705,-85562.28,-50327.28,-15956.414999999999,-20852.594999999998,4506.255,-54594.494999999995,8.479113630660391,4.311034174272511,1.61436100177828,-5.004202710123933,-12.940669839568034,-18.201119683838865,-10.55113328036726,6.41514718183953,-0.06994611,-0.924619215,0.34460361,4.0896799999999995,4.15072,22.55428,72.0
1774821869.3329737,3.218650817871094e-05,2026-03-29T22:04:29.332,2026-03-29T18:04:29.332,-31922.864999999998,-50065.92,-85544.145,-50316.615,-15935.13,-20821.32,4505.985,-54639.585,15.039467990030648,11.969745454884645,6.0395008359397195,-3.387335508335484,-12.687991702309914,-16.636711173031355,-3.870240752356124,9.719426761381307,-0.06994611,-0.924619215,0.34460361,4.0896799999999995,4.15072,22.55428,72.0
1774821869.3343391,0.0013654232025146484,2026-03-29T22:04:29.334,2026-03-29T18:04:29.334,-31928.085,-50049.854999999996,-85526.01,-50301.314999999995,-15910.965,-20791.53,4500.2699999999995,-54655.829999999994,14.78435291536365,14.135058909659875,8.009201009390969,0.269710793275359,-6.325006343960062,-7.659107626201572,4.771712979150635,8.73900708926384,-0.06994611,-0.924619215,0.34460361,4.0896799999999995,4.15072,22.55428,72.0
1774821869.3343513,1.2159347534179688e-05,2026-03-29T22:04:29.334,2026-03-29T18:04:29.334,-31913.82,-50049.63,-85510.8,-50279.715,-15886.394999999999,-20778.255,4503.195,-54646.965,7.7086336068343835,9.729513645133457,6.213378245570809,3.8114205320535874,2.8043012674441505,4.3808230183926415,11.353051222191,3.6932501607462433,-0.06994611,-0.924619215,0.34460361,4.0896799999999995,4.15072,22.55428,72.0
1774821869.3420522,0.007700920104980469,2026-03-29T22:04:29.342,2026-03-29T18:04:29.342,-31925.789999999997,-50080.77,-85539.555,-50293.575,-15898.005,-20794.95,4496.04,-54640.395,-3.0260758730916453,0.7470428937294377,1.1207901796040682,5.133621935324922,10.129396660474491,13.899771327677037,12.73165053221848,-3.294445714571045,-0.06994611,-0.924619215,0.34460361,4.0896799999999995,4.15072,22.55428,72.0
1774821869.342068,1.5735626220703125e-05,2026-03-29T22:04:29.342,2026-03-29T18:04:29.342,-31919.265,-50094.945,-85574.655,-50319.45,-15932.07,-20842.245,4479.66,-54610.74,-12.529293031400234,-8.64585969709578,-5.050729725786076,3.410425498185377,12.174782297749514,16.709699937779153,8.167189608780305,-9.118438256654164,-0.06994611,-0.924619215,0.34460361,4.0896799999999995,4.15072,22.55428,72.0
1774821869.3420825,1.4543533325195312e-05,2026-03-29T22:04:29.342,2026-03-29T18:04:29.342,-31882.454999999998,-50070.42,-85570.155,-50322.645,-15948.18,-20871.225,4445.955,-54590.354999999996,-16.43402399542135,-14.049447714893917,-9.290978288984952,-0.4054029884414799,8.242354738529881,11.89362695524374,-0.27197455144860017,-11.095628552795011,-0.06994611,-0.924619215,0.34460361,4.0896799999999995,4.15072,22.55428,72.0
1774821869.3420897,7.152557373046875e-06,2026-03-29T22:04:29.342,2026-03-29T18:04:29.342,-31861.44,-50059.215,-85551.20999999999,-50313.15,-15939.855,-20849.715,4447.26,-54568.305,-12.915267701830965,-12.90470013373077,-9.273478356316607,-4.104288885718876,0.6256585178981758,2.0731210376496536,-8.6438724244305,-8.206727726527612,-0.06994611,-0.924619215,0.34460361,4.0896799999999995,4.15072,22.55428,72.0
1774821869.34621,0.004120349884033203,2026-03-29T22:04:29.346,2026-03-29T18:04:29.346,-31847.445,-50064.119999999995,-85564.215,-50342.085,-15964.74,-20850.93,4441.905,-54546.39,-3.536198627118854,-5.7180705836109675,-4.623568276128857,-5.480603757062895,-6.695236388710509,-7.992566594305047,-12.989247994550354,-1.5978051978870682,-0.070373355,-0.916074315,0.338805285,-0.13734,4.41014,21.562379999999997,72.0
1774821869.346222,1.1920928955078125e-05,2026-03-29T22:04:29.346,2026-03-29T18:04:29.346,-31837.004999999997,-50067.494999999995,-85579.02,-50367.645,-15999.615,-20895.434999999998,4420.71,-54541.979999999996,7.4677654268983,4.1552529853585405,2.7086354391334355,-3.6226825194154295,-10.149359612968151,-13.737325808899678,-11.229030731344457,5.895647949498878,-0.070373355,-0.916074315,0.338805285,-0.13734,4.41014,21.562379999999997,72.0
1774821869.3505952,0.004373311996459961,2026-03-29T22:04:29.350,2026-03-29T18:04:29.350,-31809.149999999998,-50058.09,-85585.23,-50382.63,-16029.045,-20936.295,4393.035,-54501.119999999995,15.129597004734133,12.08092644187526,9.246797960292653,0.5091256587681995,-8.35316717146453,-12.897306068215244,-4.183003728133213,10.992581843243602,-0.070373355,-0.916074315,0.338805285,-0.13734,4.41014,21.562379999999997,72.0
1774821869.3506136,1.8358230590820312e-05,2026-03-29T22:04:29.350,2026-03-29T18:04:29.350,-31799.879999999997,-50063.445,-85601.655,-50401.619999999995,-16057.484999999999,-20964.735,4413.87,-54467.595,16.01444346462875,14.332115952390481,11.642232257645809,4.56971765303553,-2.6714432358323204,-6.406685787511418,4.799668685032638,11.419679879706255,-0.070373355,-0.916074315,0.338805285,-0.13734,4.41014,21.562379999999997,72.0
1774821869.3542686,0.003654956817626953,2026-03-29T22:04:29.354,2026-03-29T18:04:29.354,-31846.635,-50065.11,-85572.45,-50345.505,-15983.82,-20883.465,4481.91,-54532.619999999995,9.765084072547253,9.855961171887932,8.393194676118132,6.137473959338573,3.6704061027459347,2.2773461027542035,11.437871271075213,6.923277656084192,-0.070373355,-0.916074315,0.338805285,-0.13734,4.41014,21.562379999999997,72.0
1774821869.354282,1.33514404296875e-05,2026-03-29T22:04:29.354,2026-03-29T18:04:29.354,-31827.735,-50064.165,-85562.19,-50326.56,-15943.23,-20837.114999999998,4508.054999999999,-54506.88,-0.7688961683267367,0.7757203133604903,0.7449089908650812,4.123088228909688,7.387510348595758,8.99885302604716,12.58017231397232,-0.6088315869326205,-0.070373355,-0.916074315,0.338805285,-0.13734,4.41014,21.562379999999997,72.0
1774821869.35833,0.00404810905456543,2026-03-29T22:04:29.358,2026-03-29T18:04:29.358,-31916.295,-50102.64,-85542.75,-50284.215,-15869.115,-20745.989999999998,4500.09,-54571.005,-10.856251659275193,-8.615666251868605,-7.752994447730903,-0.5246775245256338,6.857319861972571,10.920834135631209,7.72905946265793,-7.964588458779821,-0.070373355,-0.916074315,0.338805285,-0.13734,4.41014,21.562379999999997,72.0
1774821869.3583448,1.4781951904296875e-05,2026-03-29T22:04:29.358,2026-03-29T18:04:29.358,-31981.364999999998,-50079.509999999995,-85500.62999999999,-50235.299999999996,-15821.414999999999,-20694.51,4496.04,-54658.17,-16.036271891144292,-13.8938887872255,-12.895697728840409,-5.251861557345899,2.8532053783467513,7.744389329381131,-0.7214332878799916,-11.998054644387471,-0.070373355,-0.916074315,0.338805285,-0.13734,4.41014,21.562379999999997,72.0
1774821869.3622744,0.003929615020751953,2026-03-29T22:04:29.362,2026-03-29T18:04:29.362,-31920.704999999998,-50047.604999999996,-85531.00499999999,-50305.634999999995,-15912.269999999999,-20783.204999999998,4453.5599999999995,-54618.795,-14.106980227689817,-12.601362575204108,-11.911327983568572,-7.278656757698102,-2.0534074221748533,1.5943167272859866,-8.658218560995529,-10.981893557392931,-0.070373355,-0.916074315,0.338805285,-0.13734,4.41014,21.562379999999997,72.0
1774821869.3622966,2.2172927856445312e-05,2026-03-29T22:04:29.362,2026-03-29T18:04:29.362,-31915.98,-50059.619999999995,-85542.56999999999,-50325.93,-15932.654999999999,-20813.76,4473.405,-54608.445,-6.056138274520352,-5.4032959658210045,-4.94677274551886,-5.188451502549826,-5.034343383506703,-4.266532995126993,-12.2613185513269,-5.338201109558217,-0.070373355,-0.916074315,0.338805285,-0.13734,4.41014,21.562379999999997,72.0
1774821869.3692412,0.0069446563720703125,2026-03-29T22:04:29.369,2026-03-29T18:04:29.369,-31883.895,-50043.195,-85528.70999999999,-50325.075,-15947.279999999999,-20857.23,4497.885,-54579.15,4.455862304773509,4.248076083848854,4.8420567650296915,0.16409934482820587,-4.602344861657728,-7.157439855704779,-9.867173587633172,2.5561579327140107,-0.07507305,-0.9094215,0.339049425,-8.37774,2.0295799999999997,22.72214,72.0
1774821869.369259,1.7881393432617188e-05,2026-03-29T22:04:29.369,2026-03-29T18:04:29.369,-31879.754999999997,-50058.63,-85525.92,-50310.09,-15942.779999999999,-20855.07,4507.74,-54545.579999999994,12.787170842979753,11.774414014263073,12.718473233528837,5.9782645826437015,-1.3763999843063257,-6.2318358242916645,-2.7638585931690893,9.390527324017034,-0.07507305,-0.9094215,0.339049425,-8.37774,2.0295799999999997,22.72214,72.0
1774821869.369275,1.5974044799804688e-05,2026-03-29T22:04:29.369,2026-03-29T18:04:29.369,-31899.105,-50059.619999999995,-85530.42,-50293.979999999996,-15913.439999999999,-20808.809999999998,4479.345,-54557.189999999995,15.386680006476558,13.655648849720995,14.665748968337565,8.955214448295546,2.3870650317858138,-2.6646933895083196,5.4739164205689415,12.319819849225523,-0.07507305,-0.9094215,0.339049425,-8.37774,2.0295799999999997,22.72214,72.0
1774821869.3692803,5.245208740234375e-06,2026-03-29T22:04:29.369,2026-03-29T18:04:29.369,-31843.215,-50037.119999999995,-85529.06999999999,-50302.395,-15923.34,-20802.149999999998,4479.12,-54538.2,11.312100145939434,9.089308308847897,9.437521518767007,7.1249354412350705,4.1985486328465385,1.2254773772680516,10.776582341932052,10.14638749422011,-0.07507305,-0.9094215,0.339049425,-8.37774,2.0295799999999997,22.72214,72.0
1774821869.3748467,0.00556635856628418,2026-03-29T22:04:29.374,2026-03-29T18:04:29.374,-31847.219999999998,-50040.045,-85502.87999999999,-50267.384999999995,-15879.599999999999,-20750.805,4502.61,-54517.68,2.5431674038991496,0.33589869088354124,-0.6908291986977371,1.0559576934463235,2.852182403740498,3.361256636395904,10.602705823530158,3.795998460570521,-0.07507305,-0.9094215,0.339049425,-8.37774,2.0295799999999997,22.72214,72.0
1774821869.374866,1.9311904907226562e-05,2026-03-29T22:04:29.374,2026-03-29T18:04:29.374,-31874.85,-50037.39,-85513.14,-50274.854999999996,-15888.465,-20771.73,4515.48,-54532.17,-6.996667838916164,-8.400460518962669,-10.906636910493289,-6.262885643440352,-0.8271570663565523,3.0087113594629735,5.182273296325824,-4.093071610883399,-0.07507305,-0.9094215,0.339049425,-8.37774,2.0295799999999997,22.72214,72.0
1774821869.3849535,0.01008749008178711,2026-03-29T22:04:29.384,2026-03-29T18:04:29.384,-31921.469999999998,-50103.99,-85601.295,-50358.78,-15969.555,-20851.425,4481.505,-54568.619999999995,-13.220352593602172,-13.001603108205199,-16.157135392058034,-10.888192248242607,-4.448879423450825,1.015299576998059,-2.638569290097027,-10.277552714025214,-0.07507305,-0.9094215,0.339049425,-8.37774,2.0295799999999997,22.72214,72.0
1774821869.3849745,2.09808349609375e-05,2026-03-29T22:04:29.384,2026-03-29T18:04:29.384,-31910.94,-50122.439999999995,-85622.22,-50371.695,-15985.845,-20868.12,4477.545,-54552.195,-13.640495623496028,-11.390033343141216,-13.656717837082967,-10.01666872326328,-5.482659080885859,-0.8857886716302247,-8.865619744906459,-12.243366971803653,-0.07507305,-0.9094215,0.339049425,-8.37774,2.0295799999999997,22.72214,72.0
1774821869.385003,2.86102294921875e-05,2026-03-29T22:04:29.385,2026-03-29T18:04:29.385,-31900.77,-50094.27,-85585.905,-50338.17,-15954.435,-20840.13,4493.97,-54541.89,-8.349556688658001,-4.473939271677324,-4.354738733678167,-3.605267143650586,-2.832995517257348,-1.2454230562076198,-10.389499034182961,-9.218453650282571,-0.07507305,-0.9094215,0.339049425,-8.37774,2.0295799999999997,22.72214,72.0
1774821869.3850093,6.198883056640625e-06,2026-03-29T22:04:29.385,2026-03-29T18:04:29.385,-31903.559999999998,-50075.189999999995,-85550.355,-50309.1,-15925.949999999999,-20815.11,4484.61,-54538.875,0.16137395109433084,4.3514440709099516,7.406658173546098,5.392896670998961,2.3607920617376,0.1691960657189897,-6.55078952180954,-2.462225115122255,-0.07507305,-0.9094215,0.339049425,-8.37774,2.0295799999999997,22.72214,72.0
1774821869.3969748,0.011965513229370117,2026-03-29T22:04:29.396,2026-03-29T18:04:29.396,-31883.85,-50055.479999999996,-85526.145,-50296.005,-15923.385,-20823.12,4449.014999999999,-54513.99,8.19408912480729,10.877562451528672,15.932346022175084,12.391322410446206,7.210402484417681,2.2337696949191086,0.5556288828588447,5.268506788935629,-0.080383095,-0.922421955,0.34081944000000003,-9.3849,-5.6767199999999995,24.35496,72.0
1774821869.3969934,1.8596649169921875e-05,2026-03-29T22:04:29.396,2026-03-29T18:04:29.396,-31864.364999999998,-50053.275,-85524.795,-50296.365,-15928.109999999999,-20838.69,4422.915,-54499.5,12.467289267518362,12.102778905915653,16.94632582098544,13.499858993531108,8.644187259420946,3.199038067721441,7.186543281543888,10.846054856819237,-0.080383095,-0.922421955,0.34081944000000003,-9.3849,-5.6767199999999995,24.35496,72.0
1774821869.397012,1.8596649169921875e-05,2026-03-29T22:04:29.397,2026-03-29T18:04:29.397,-31874.219999999998,-50063.49,-85529.745,-50305.95,-15932.115,-20834.46,4473.63,-54481.814999999995,11.452115788759354,7.6224162647289475,9.738404373914184,7.638342881245132,5.2164330403701005,1.8589782156700987,9.895226365179566,12.030597114424438,-0.080383095,-0.922421955,0.34081944000000003,-9.3849,-5.6767199999999995,24.35496,72.0
1774821869.3970196,7.62939453125e-06,2026-03-29T22:04:29.397,2026-03-29T18:04:29.397,-31875.57,-50041.35,-85537.62,-50331.869999999995,-15964.515,-20861.28,4516.38,-54492.57,5.878683295094655,-0.2604770571354961,-2.395085961045583,-2.6983150799993263,-1.8631493922781004,-1.5513682293898285,7.313690345740305,8.359279379810802,-0.080383095,-0.922421955,0.34081944000000003,-9.3849,-5.6767199999999995,24.35496,72.0
1774821869.3970282,8.58306884765625e-06,2026-03-29T22:04:29.397,2026-03-29T18:04:29.397,-31852.8,-50036.04,-85545.315,-50343.39,-15982.695,-20881.215,4503.915,-54482.939999999995,-1.7294481865776434,-7.719039613662599,-13.673874528395604,-12.503847314903481,-9.125525587116678,-5.299107547354897,0.8536784356254377,1.3192330440198712,-0.080383095,-0.922421955,0.34081944000000003,-9.3849,-5.6767199999999995,24.35496,72.0
1774821869.397035,6.67572021484375e-06,2026-03-29T22:04:29.397,2026-03-29T18:04:29.397,-31883.715,-50064.479999999996,-85541.715,-50321.924999999996,-15943.724999999999,-20830.32,4469.085,-54492.795,-8.214349394279054,-11.272459386858252,-18.60867060111497,-16.697915414997674,-12.552224640578762,-7.036142424373785,-6.036739006246994,-6.2554656536894395,-0.080383095,-0.922421955,0.34081944000000003,-9.3849,-5.6767199999999995,24.35496,72.0
1774821869.4010446,0.004009723663330078,2026-03-29T22:04:29.401,2026-03-29T18:04:29.401,-31890.69,-50067.765,-85530.95999999999,-50307.075,-15927.164999999999,-20817.63,4439.07,-54491.265,-11.096522017949608,-9.42199377645796,-14.68495092280731,-12.742352998876756,-9.74999313179839,-5.169954581000677,-9.67884139808895,-11.318510300970962,-0.080383095,-0.922421955,0.34081944000000003,-9.3849,-5.6767199999999995,24.35496,72.0
1774821869.4010713,2.6702880859375e-05,2026-03-29T22:04:29.401,2026-03-29T18:04:29.401,-31883.579999999998,-50062.185,-85529.43,-50301.0,-15926.715,-20843.415,4436.955,-54488.43,-9.495072444582615,-3.277825307837628,-3.6359616145885214,-2.092540314160612,-1.4290646020554512,0.04664182250605993,-8.097052255670308,-11.827717428845732,-0.080383095,-0.922421955,0.34081944000000003,-9.3849,-5.6767199999999995,24.35496,72.0
1774821869.4010925,2.1219253540039062e-05,2026-03-29T22:04:29.401,2026-03-29T18:04:29.401,-31842.315,-50043.825,-85529.83499999999,-50297.13,-15924.644999999999,-20837.88,4478.22,-54464.67,-4.329922965319441,4.083230455130495,9.33775097846615,10.3190079059091,8.673169142495592,6.372418288129405,-2.0742383535871634,-7.5630626551280855,-0.080383095,-0.922421955,0.34081944000000003,-9.3849,-5.6767199999999995,24.35496,72.0
1774821869.401103,1.049041748046875e-05,2026-03-29T22:04:29.401,2026-03-29T18:04:29.401,-31831.425,-50035.545,-85510.305,-50273.64,-15904.305,-20818.89,4515.345,-54437.67,2.1927811502335888,9.166831805287655,18.04356149926535,18.39370341746374,15.497678921258181,10.559951607526258,5.229685239536643,-0.22237087684041124,-0.080383095,-0.922421955,0.34081944000000003,-9.3849,-5.6767199999999995,24.35496,72.0
1774821869.406333,0.005229949951171875,2026-03-29T22:04:29.406,2026-03-29T18:04:29.406,-31847.039999999997,-50034.869999999995,-85516.875,-50279.939999999995,-15916.095,-20842.155,4507.0199999999995,-54437.805,7.529315251867121,9.733043595506754,18.274995384898762,17.875977569686068,15.206486766105641,10.022697169056526,9.912123643248092,7.247303407711972,-0.080505165,-0.949277355,0.335875605,-4.4254,-3.11304,24.20236,72.0
1774821869.4063532,2.0265579223632812e-05,2026-03-29T22:04:29.406,2026-03-29T18:04:29.406,-31823.864999999998,-50059.439999999995,-85581.72,-50331.15,-15955.695,-20866.545,4499.325,-54424.71,9.7701523398955,5.7841727130686245,9.848703233938148,8.567743192510502,7.278619305500716,4.329964593935641,9.377214127606853,11.823870609671093,-0.080505165,-0.949277355,0.335875605,-4.4254,-3.11304,24.20236,72.0
1774821869.4107385,0.004385232925415039,2026-03-29T22:04:29.410,2026-03-29T18:04:29.410,-31881.914999999997,-50118.615,-85621.77,-50365.439999999995,-15975.765,-20867.355,4475.7,-54444.24,8.275240225892361,-0.5682872096200189,-3.290012025691778,-5.395455375893601,-4.964733312083657,-4.30212954629261,3.7355376981697765,11.627841562030683,-0.080505165,-0.949277355,0.335875605,-4.4254,-3.11304,24.20236,72.0
1774821869.410761,2.2649765014648438e-05,2026-03-29T22:04:29.410,2026-03-29T18:04:29.410,-31881.824999999997,-50098.59,-85602.555,-50362.2,-15983.82,-20901.96,4455.585,-54448.29,3.790803938249901,-6.230186405386016,-14.945416181652478,-17.4130509136457,-15.774054039484458,-11.87831617831342,-4.187768443298286,6.6962558373545225,-0.080505165,-0.949277355,0.335875605,-4.4254,-3.11304,24.20236,72.0
1774821869.4177024,0.006941318511962891,2026-03-29T22:04:29.417,2026-03-29T18:04:29.417,-31850.64,-50086.619999999995,-85605.39,-50370.03,-15999.3,-20919.915,4449.15,-54429.165,-1.9237749745616113,-8.64490479246638,-19.624534213051444,-21.572604797217846,-19.710175376248,-14.50691411034525,-10.266433190890517,-1.0065284233928835,-0.080505165,-0.949277355,0.335875605,-4.4254,-3.11304,24.20236,72.0
1774821869.4177165,1.4066696166992188e-05,2026-03-29T22:04:29.417,2026-03-29T18:04:29.417,-31838.805,-50078.744999999995,-85601.83499999999,-50358.375,-15978.779999999999,-20870.684999999998,4459.545,-54388.259999999995,-6.771863051266537,-6.953784603195979,-15.141995482118574,-15.564651577985122,-14.384686812868503,-10.39467908554829,-11.200256242660947,-8.360763688849902,-0.080505165,-0.949277355,0.335875605,-4.4254,-3.11304,24.20236,72.0
1774821869.417729,1.239776611328125e-05,2026-03-29T22:04:29.417,2026-03-29T18:04:29.417,-31907.07,-50073.615,-85544.37,-50284.17,-15903.449999999999,-20797.155,4468.59,-54470.52,-9.046778959713258,-2.2664268728984136,-3.632382352257161,-1.917469212390477,-1.8181053942495267,-0.9317291496488929,-6.2657856602538855,-12.348940389076349,-0.080505165,-0.949277355,0.335875605,-4.4254,-3.11304,24.20236,72.0
1774821869.4177341,5.245208740234375e-06,2026-03-29T22:04:29.417,2026-03-29T18:04:29.417,-31973.489999999998,-50073.615,-85508.325,-50249.43,-15875.775,-20767.05,4482.179999999999,-54547.515,-7.983324384675305,3.021936873706984,9.495914222987315,13.092780182464393,12.327894375055491,9.750565271776589,2.2251152985023888,-11.295972584390316,-0.080505165,-0.949277355,0.335875605,-4.4254,-3.11304,24.20236,72.0
1774821869.4247508,0.007016658782958984,2026-03-29T22:04:29.424,2026-03-29T18:04:29.424,-31940.28,-50063.04,-85518.27,-50267.159999999996,-15890.535,-20775.6,4475.025,-54510.299999999996,-3.986042827295123,6.462669720366482,18.139743084616402,22.372753560127283,21.349959822402425,16.62241590118115,10.024877667519887,-5.581622117103982,-0.080505165,-0.949277355,0.335875605,-4.4254,-3.11304,24.20236,72.0
1774821869.4247837,3.2901763916015625e-05,2026-03-29T22:04:29.424,2026-03-29T18:04:29.424,-31850.145,-50037.435,-85535.55,-50307.345,-15912.539999999999,-20781.945,4486.32,-54450.765,1.5152001441708292,6.697970140998323,18.365452575447716,21.39346544939227,20.717199936212204,16.157878756741514,13.077337968514321,2.4821922870391915,-0.080505165,-0.949277355,0.335875605,-4.4254,-3.11304,24.20236,72.0
1774821869.42635,0.0015664100646972656,2026-03-29T22:04:29.426,2026-03-29T18:04:29.426,-31869.045,-50071.68,-85564.935,-50339.97,-15932.835,-20801.34,4511.655,-54426.465,6.536315946440651,3.9768264640984663,10.200565252269822,10.396050713664057,10.341185249916398,8.133687839830955,9.604532182836623,9.578803851267704,-0.07788066,-0.953061525,0.3381339,2.27374,1.11398,22.14226,72.0
1774821869.4263656,1.5497207641601562e-05,2026-03-29T22:04:29.426,2026-03-29T18:04:29.426,-31902.39,-50073.345,-85542.20999999999,-50320.53,-15932.925,-20816.055,4513.095,-54446.85,9.20652363762214,-0.14226440490068823,-2.4646169834468945,-5.651871486868361,-5.234477345031864,-4.089783656506277,1.086071260513674,12.751577479360238,-0.07788066,-0.953061525,0.3381339,2.27374,1.11398,22.14226,72.0
1774821869.4313555,0.0049898624420166016,2026-03-29T22:04:29.431,2026-03-29T18:04:29.431,-31891.995,-50085.18,-85553.55,-50336.369999999995,-15966.99,-20852.46,4506.57,-54421.424999999996,8.437105799958191,-3.6715896514557675,-13.768708718834734,-19.34707241558713,-18.869872130356498,-15.007539992134603,-8.391161620701451,10.644540172952025,-0.07788066,-0.953061525,0.3381339,2.27374,1.11398,22.14226,72.0
1774821869.4313865,3.0994415283203125e-05,2026-03-29T22:04:29.431,2026-03-29T18:04:29.431,-31869.449999999997,-50073.39,-85572.72,-50348.43,-15967.439999999999,-20848.77,4469.58,-54398.52,4.369117193649665,-5.165894898053427,-18.627355080967195,-24.309745618953844,-24.154839718935044,-19.495999246510465,-14.117326338162531,4.094023297602073,-0.07788066,-0.953061525,0.3381339,2.27374,1.11398,22.14226,72.0
1774821869.4346125,0.003226041793823242,2026-03-29T22:04:29.434,2026-03-29T18:04:29.434,-31840.785,-50031.854999999996,-85552.02,-50325.479999999996,-15938.595,-20819.024999999998,4460.535,-54430.695,-1.5857554901162147,-4.304469719588445,-15.032258493908275,-18.173732952096014,-18.451128397700113,-15.24504155813477,-13.103441325193826,-4.192690423221259,-0.07788066,-0.953061525,0.3381339,2.27374,1.11398,22.14226,72.0
1774821869.4346387,2.6226043701171875e-05,2026-03-29T22:04:29.434,2026-03-29T18:04:29.434,-31886.46,-50065.02,-85558.59,-50313.915,-15927.705,-20814.795,4483.71,-54450.27,-7.182667393553087,-1.8542405159348645,-4.8553030975609905,-3.69761670208213,-4.193727472926978,-3.9293144577352628,-5.615071963045362,-10.75426247269535,-0.07788066,-0.953061525,0.3381339,2.27374,1.11398,22.14226,72.0
1774821869.438944,0.004305362701416016,2026-03-29T22:04:29.438,2026-03-29T18:04:29.438,-31902.48,-50076.36,-85575.19499999999,-50320.89,-15928.064999999999,-20819.295,4481.415,-54457.155,-10.157358327488371,0.8762101369179477,7.14944405655986,12.517630230057364,12.184434490369219,9.468482702895804,4.882950625202559,-12.828182609756324,-0.07788066,-0.953061525,0.3381339,2.27374,1.11398,22.14226,72.0
1774821869.4389665,2.2411346435546875e-05,2026-03-29T22:04:29.438,2026-03-29T18:04:29.438,-31838.67,-50059.439999999995,-85575.78,-50325.84,-15918.75,-20809.844999999998,4467.375,-54383.4,-9.140404928535009,2.739988602418856,15.605874536258847,23.08817019454335,23.210988905648488,18.898243829197142,13.365594104316601,-9.526374958162535,-0.07788066,-0.953061525,0.3381339,2.27374,1.11398,22.14226,72.0
1774821869.442482,0.003515481948852539,2026-03-29T22:04:29.442,2026-03-29T18:04:29.442,-31809.824999999997,-50045.985,-85546.34999999999,-50302.439999999995,-15910.38,-20835.54,4445.01,-54360.765,-4.304210624516379,3.2332333007746787,16.945510644163193,23.242617190657707,23.828810573790754,20.01704884869096,15.678735175546514,-2.2271149569865543,-0.07788066,-0.953061525,0.3381339,2.27374,1.11398,22.14226,72.0
1774821869.4425004,1.8358230590820312e-05,2026-03-29T22:04:29.442,2026-03-29T18:04:29.442,-31879.574999999997,-50051.564999999995,-85510.215,-50265.63,-15880.545,-20808.809999999998,4450.365,-54435.555,2.570043265679463,2.552381270750471,10.897898608977313,12.976571961376925,13.728864547596805,12.205878368369131,10.573771536779454,5.995140849556636,-0.07788066,-0.953061525,0.3381339,2.27374,1.11398,22.14226,72.0
1774821869.4461944,0.0036940574645996094,2026-03-29T22:04:29.446,2026-03-29T18:04:29.446,-31924.035,-50063.985,-85548.87,-50311.979999999996,-15928.92,-20827.215,4454.37,-54474.659999999996,8.709103156329373,1.2875732313382329,0.4279473829771242,-3.006242437889555,-2.5205196605049625,-1.114996253856497,0.34734471194208105,11.66872214818824,-0.087096945,-0.93810795,0.344664645,-3.0825199999999997,0.12208,23.653,72.0
1774821869.446208,1.3589859008789062e-05,2026-03-29T22:04:29.446,2026-03-29T18:04:29.446,-31854.78,-50065.695,-85626.495,-50411.25,-16025.984999999999,-20908.305,4446.764999999999,-54422.954999999994,11.458323396445257,0.0038437599004732333,-9.75072359223462,-17.496351166184862,-17.58953682858202,-14.02278480663516,-10.230549585523788,12.401667332041711,-0.087096945,-0.93810795,0.344664645,-3.0825199999999997,0.12208,23.653,72.0
1774821869.4597647,0.013556718826293945,2026-03-29T22:04:29.459,2026-03-29T18:04:29.459,-31803.524999999998,-50049.99,-85597.515,-50395.59,-16021.484999999999,-20922.03,4455.045,-54350.415,9.446308749044379,-1.0193018413492596,-15.327319012685344,-24.071305095626087,-24.744542082223347,-20.771433015786297,-16.182079234661714,7.902847006137877,-0.087096945,-0.93810795,0.344664645,-3.0825199999999997,0.12208,23.653,72.0
1774821869.4597828,1.811981201171875e-05,2026-03-29T22:04:29.459,2026-03-29T18:04:29.459,-31803.704999999998,-50059.485,-85587.345,-50376.104999999996,-16005.465,-20913.165,4441.635,-54352.665,3.284676790719062,-1.7659506481470257,-14.214241830465916,-19.956112668479083,-20.885687403739468,-18.38003411415102,-14.686073649346575,0.10526117128351294,-0.087096945,-0.93810795,0.344664645,-3.0825199999999997,0.12208,23.653,72.0
1774821869.4597971,1.430511474609375e-05,2026-03-29T22:04:29.459,2026-03-29T18:04:29.459,-31890.555,-50061.869999999995,-85537.8,-50312.43,-15932.654999999999,-20830.41,4489.47,-54431.055,-4.559893285281927,-2.263014703044488,-7.271028024844462,-7.171796335303858,-7.88174189982054,-7.950941132366767,-6.4075501322592325,-7.664504419509289,-0.087096945,-0.93810795,0.344664645,-3.0825199999999997,0.12208,23.653,72.0
1774821869.4598014,4.291534423828125e-06,2026-03-29T22:04:29.459,2026-03-29T18:04:29.459,-31931.145,-50045.895,-85509.135,-50283.405,-15904.17,-20814.795,4543.92,-54469.079999999994,-10.737979166484573,-2.3771055311289278,2.283076970650045,8.489740544776929,8.366907320302031,5.864694363001841,4.831890255785059,-12.113531015409903,-0.087096945,-0.93810795,0.344664645,-3.0825199999999997,0.12208,23.653,72.0
1774821869.459807,5.4836273193359375e-06,2026-03-29T22:04:29.459,2026-03-29T18:04:29.459,-31916.07,-50071.77,-85542.39,-50308.47,-15926.355,-20852.73,4517.415,-54438.84,-12.459438169316794,-1.8207018806436919,10.393154519459483,20.131224888797014,20.65353817448745,16.982740606116383,13.864794053871275,-11.390077811819147,-0.087096945,-0.93810795,0.344664645,-3.0825199999999997,0.12208,23.653,72.0
1774821869.4598107,3.814697265625e-06,2026-03-29T22:04:29.459,2026-03-29T18:04:29.459,-31902.074999999997,-50087.025,-85557.69,-50324.265,-15944.715,-20847.239999999998,4501.53,-54410.895,-8.778577089514728,-0.39565928204959133,13.893609428643485,22.81010152608879,23.69771404042412,20.601299684910067,16.590748751578847,-5.86392442610161,-0.087096945,-0.93810795,0.344664645,-3.0825199999999997,0.12208,23.653,72.0
1774821869.4626317,0.0028209686279296875,2026-03-29T22:04:29.462,2026-03-29T18:04:29.462,-31906.574999999997,-50076.54,-85541.625,-50300.369999999995,-15918.974999999999,-20809.755,4498.11,-54408.42,-1.119020425954037,1.6913087520786525,11.69892205845477,15.625869175565906,16.41906609238033,15.287287521847027,11.847420252544252,2.053878957317569,-0.087096945,-0.93810795,0.344664645,-3.0825199999999997,0.12208,23.653,72.0
1774821869.4626508,1.9073486328125e-05,2026-03-29T22:04:29.462,2026-03-29T18:04:29.462,-31892.039999999997,-50062.365,-85541.22,-50296.994999999995,-15919.154999999999,-20815.875,4464.585,-54412.875,7.253523304363362,3.6979676682928413,5.0391301566510105,1.960837954814193,2.272950964156737,3.522976275441218,1.8811277396777606,8.966646318951089,-0.087096945,-0.93810795,0.344664645,-3.0825199999999997,0.12208,23.653,72.0
1774821869.4709833,0.008332490921020508,2026-03-29T22:04:29.470,2026-03-29T18:04:29.470,-31866.795,-50073.659999999996,-85576.68,-50333.4,-15946.515,-20836.665,4408.29,-54399.645,12.62895970594753,4.574795640144751,-3.2346151329140613,-12.145234268547247,-12.423566352440938,-9.48259556029617,-8.759806405441463,11.958708820715728,-0.090881115,-0.927915105,0.35046297,-15.00058,-0.9308599999999999,24.17184,72.0
1774821869.4710107,2.7418136596679688e-05,2026-03-29T22:04:29.471,2026-03-29T18:04:29.471,-31893.074999999997,-50100.84,-85608.045,-50361.884999999995,-15958.619999999999,-20838.239999999998,4388.625,-54395.189999999995,12.520150552658345,3.5056204305724505,-9.882564456405243,-20.691104785540674,-21.34951516724071,-18.135146129820424,-15.345701869010451,9.835072944083318,-0.090881115,-0.927915105,0.35046297,-15.00058,-0.9308599999999999,24.17184,72.0
1774821869.4782767,0.007266044616699219,2026-03-29T22:04:29.478,2026-03-29T18:04:29.478,-31863.465,-50081.174999999996,-85596.56999999999,-50358.689999999995,-15958.305,-20841.795,4421.97,-54383.939999999995,6.839463050930359,0.48484983028362894,-12.508724433869544,-20.265588127036825,-20.912162506400858,-18.880934824273044,-15.090753589683967,3.6023261956764276,-0.090881115,-0.927915105,0.35046297,-15.00058,-0.9308599999999999,24.17184,72.0
1774821869.4782932,1.6450881958007812e-05,2026-03-29T22:04:29.478,2026-03-29T18:04:29.478,-31898.745,-50066.28,-85537.395,-50293.799999999996,-15903.855,-20796.344999999998,4499.28,-54404.28,-1.9834356614216362,-3.4339329544650217,-10.345924698617274,-11.37276402244225,-11.667833928981269,-11.656672804720401,-8.317085883200443,-4.004396332146927,-0.090881115,-0.927915105,0.35046297,-15.00058,-0.9308599999999999,24.17184,72.0
1774821869.4783168,2.3603439331054688e-05,2026-03-29T22:04:29.478,2026-03-29T18:04:29.478,-31859.19,-50045.354999999996,-85548.645,-50316.299999999996,-15939.18,-20835.09,4505.49,-54366.84,-10.038915471679761,-6.454878293267411,-4.386552564819338,1.9617625307321946,2.114567150996876,0.22132585483563225,1.8205322799591594,-9.72706697627564,-0.090881115,-0.927915105,0.35046297,-15.00058,-0.9308599999999999,24.17184,72.0
1774821869.4783213,4.5299530029296875e-06,2026-03-29T22:04:29.478,2026-03-29T18:04:29.478,-31846.905,-50068.305,-85572.0,-50333.174999999996,-15959.07,-20868.12,4484.295,-54355.994999999995,-13.68777586140286,-6.860402330582454,3.0886916531273516,14.03756205903617,14.453814207621997,11.606760099192744,10.848241547108875,-11.188684694593315,-0.090881115,-0.927915105,0.35046297,-15.00058,-0.9308599999999999,24.17184,72.0
1774821869.4783282,6.9141387939453125e-06,2026-03-29T22:04:29.478,2026-03-29T18:04:29.478,-31870.485,-50097.645,-85565.025,-50319.18,-15944.535,-20855.745,4496.67,-54347.265,-11.232196729149635,-3.9610997293790753,9.35359007276202,19.921290843527185,20.27038054476374,17.77532931334143,14.979299699520924,-7.886429747087168,-0.090881115,-0.927915105,0.35046297,-15.00058,-0.9308599999999999,24.17184,72.0
1774821869.4783323,4.0531158447265625e-06,2026-03-29T22:04:29.478,2026-03-29T18:04:29.478,-31894.289999999997,-50077.08,-85561.515,-50324.715,-15943.545,-20840.219999999998,4502.385,-54361.259999999995,-3.727447970584961,1.3409617727088188,12.15752962188252,17.437197521575513,17.464434677693305,16.38360173830666,12.698360588016564,-1.356486981262968,-0.090881115,-0.927915105,0.35046297,-15.00058,-0.9308599999999999,24.17184,72.0
1774821869.4824877,0.004155397415161133,2026-03-29T22:04:29.482,2026-03-29T18:04:29.482,-31869.27,-50000.85,-85501.935,-50281.56,-15895.17,-20774.969999999998,4482.405,-54408.915,5.463009755332481,6.756338834380525,10.45954643167172,7.9186120166213865,7.616730767006612,8.32463877100278,5.264160556312803,5.538876128243081,-0.090881115,-0.927915105,0.35046297,-15.00058,-0.9308599999999999,24.17184,72.0
1774821869.4825203,3.266334533691406e-05,2026-03-29T22:04:29.482,2026-03-29T18:04:29.482,-31849.065,-50002.92,-85470.12,-50242.365,-15848.055,-20729.745,4504.7699999999995,-54372.195,12.1855836830783,9.58941368350448,4.783221486446067,-4.506132788352885,-4.885432551406352,-2.811072721654165,-4.0016027064757616,9.871216413125502,-0.090881115,-0.927915105,0.35046297,-15.00058,-0.9308599999999999,24.17184,72.0
1774821869.4888344,0.00631403923034668,2026-03-29T22:04:29.488,2026-03-29T18:04:29.488,-31879.89,-50051.115,-85513.5,-50286.284999999996,-15893.46,-20789.28,4489.2,-54354.24,13.39706079203335,8.079676430320816,-2.909179437316427,-14.712450240620255,-14.820493864501113,-12.355898930551824,-11.234005357061134,9.895569605376451,-0.086486595,-0.93542241,0.35131746,-17.59478,0.54936,24.416,72.0
1774821869.4888563,2.193450927734375e-05,2026-03-29T22:04:29.488,2026-03-29T18:04:29.488,-31869.0,-50063.354999999996,-85582.935,-50361.03,-15968.744999999999,-20880.765,4472.955,-54370.395,8.566725679217132,2.434900137504427,-9.818355367528925,-18.676725019413873,-18.30916083606813,-16.525863882927304,-13.641514815032536,5.753898655626298,-0.086486595,-0.93542241,0.35131746,-17.59478,0.54936,24.416,72.0
1774821869.49152,0.0026636123657226562,2026-03-29T22:04:29.491,2026-03-29T18:04:29.491,-31837.815,-50061.735,-85612.815,-50392.979999999996,-16015.095,-20932.739999999998,4466.745,-54363.825,-0.07726808653128836,-5.029448989958349,-13.250982655648567,-15.024517383288678,-14.292025297465795,-13.896922006050058,-10.541942244725368,-0.6512983130177455,-0.086486595,-0.93542241,0.35131746,-17.59478,0.54936,24.416,72.0
1774821869.4915547,3.4809112548828125e-05,2026-03-29T22:04:29.491,2026-03-29T18:04:29.491,-31864.23,-50085.99,-85604.58,-50375.655,-16001.865,-20925.945,4472.054999999999,-54347.4,-8.57776339147418,-10.823106943139758,-11.633439528590246,-5.456553354961513,-4.767596536375918,-5.83471034185507,-3.4585841316200225,-6.530307962801275,-0.086486595,-0.93542241,0.35131746,-17.59478,0.54936,24.416,72.0
1774821869.4957895,0.004234790802001953,2026-03-29T22:04:29.495,2026-03-29T18:04:29.495,-31870.215,-50093.909999999996,-85599.315,-50365.755,-15985.305,-20910.105,4450.7699999999995,-54344.97,-13.076951546033039,-11.91933957393378,-5.235514438071744,6.047745247765944,6.202995726498105,4.215331912506934,4.6556114971025115,-9.425409373260019,-0.086486595,-0.93542241,0.35131746,-17.59478,0.54936,24.416,72.0
1774821869.4958367,4.7206878662109375e-05,2026-03-29T22:04:29.495,2026-03-29T18:04:29.495,-31867.245,-50062.95,-85548.915,-50309.325,-15932.609999999999,-20857.5,4469.22,-54370.439999999995,-11.58998845127217,-7.325818419520525,3.7307184508907514,14.875195128788354,14.22881487349036,12.208136714401128,10.660222976724661,-8.241199528728652,-0.086486595,-0.93542241,0.35131746,-17.59478,0.54936,24.416,72.0
1774821869.4985533,0.002716541290283203,2026-03-29T22:04:29.498,2026-03-29T18:04:29.498,-31870.62,-50052.555,-85544.86499999999,-50312.7,-15931.845,-20817.495,4488.48,-54374.625,-4.897548725975967,1.2240093486839587,11.78946719556968,17.599519652771605,16.32088514064829,15.109928764132581,12.408247339962555,-3.6529574480266302,-0.086486595,-0.93542241,0.35131746,-17.59478,0.54936,24.416,72.0
1774821869.4985704,1.71661376953125e-05,2026-03-29T22:04:29.498,2026-03-29T18:04:29.498,-31828.364999999998,-50046.659999999996,-85561.605,-50334.93,-15948.449999999999,-20851.649999999998,4477.275,-54331.155,3.851957734409662,9.891367066666364,15.504890961982726,13.276589370249885,11.955249713543298,12.008192582291104,9.442493188664958,2.255903992108071,-0.086486595,-0.93542241,0.35131746,-17.59478,0.54936,24.416,72.0
1774821869.5030775,0.0045070648193359375,2026-03-29T22:04:29.503,2026-03-29T18:04:29.503,-31818.735,-50056.02,-85561.92,-50345.145,-15983.775,-20960.145,4470.255,-54312.255,10.631431669675212,14.46194685154011,12.946105227992655,3.744261994826751,3.1188106262172672,4.338983481761097,3.0275426766160995,6.939622691433106,-0.086486595,-0.93542241,0.35131746,-17.59478,0.54936,24.416,72.0
1774821869.5030997,2.2172927856445312e-05,2026-03-29T22:04:29.503,2026-03-29T18:04:29.503,-31898.565,-50068.17,-85544.595,-50323.68,-15966.855,-20955.465,4479.21,-54358.695,12.406575576080465,12.401855231810904,4.688346942971701,-7.15283316685782,-6.595323051829083,-4.783560380920058,-4.405400877907224,8.489693703543137,-0.086486595,-0.93542241,0.35131746,-17.59478,0.54936,24.416,72.0
1774821869.509212,0.006112337112426758,2026-03-29T22:04:29.509,2026-03-29T18:04:29.509,-31909.32,-50062.77,-85566.23999999999,-50339.564999999995,-15972.795,-20908.35,4453.155,-54395.46,8.511185096423084,4.2325369708993605,-6.168970796779135,-15.09129818288193,-13.431546946011176,-11.819385803695692,-10.149381240094844,6.412191886365364,-0.093444585,-0.95055909,0.35021883,-7.553699999999999,-2.4263399999999997,23.69878,72.0
1774821869.5092304,1.8358230590820312e-05,2026-03-29T22:04:29.509,2026-03-29T18:04:29.509,-31903.199999999997,-50073.03,-85568.715,-50335.424999999996,-15966.314999999999,-20865.78,4433.175,-54393.57,0.8946596353252267,-6.51068199209323,-15.110782735791195,-16.95623129859611,-14.884921594671411,-14.13965077688089,-12.140169710087356,1.766580143277535,-0.093444585,-0.95055909,0.35021883,-7.553699999999999,-2.4263399999999997,23.69878,72.0
1774821869.518197,0.008966684341430664,2026-03-29T22:04:29.518,2026-03-29T18:04:29.518,-31905.225,-50088.915,-85584.465,-50343.165,-15959.07,-20831.985,4433.22,-54371.655,-6.848846117777863,-14.810549754008353,-18.07740329005078,-12.045149227545258,-10.574438680799686,-10.964866578319988,-9.632798932636765,-3.362020591490109,-0.093444585,-0.95055909,0.35021883,-7.553699999999999,-2.4263399999999997,23.69878,72.0
1774821869.518216,1.8835067749023438e-05,2026-03-29T22:04:29.518,2026-03-29T18:04:29.518,-31902.66,-50089.409999999996,-85572.045,-50323.86,-15923.564999999999,-20790.855,4429.9349999999995,-54353.07,-11.186843576621925,-16.524969371807682,-13.325954605233429,-2.3325505986084574,-2.2977056066337957,-3.5956641018533295,-3.456169150109936,-6.798656619004477,-0.093444585,-0.95055909,0.35021883,-7.553699999999999,-2.4263399999999997,23.69878,72.0
1774821869.5182352,1.9311904907226562e-05,2026-03-29T22:04:29.518,2026-03-29T18:04:29.518,-31933.574999999997,-50128.56,-85609.305,-50345.369999999995,-15924.015,-20773.755,4466.07,-54355.86,-10.274665170797547,-10.454372067928048,-2.419105997527312,8.306298550362333,6.707593414134453,5.111730432349916,4.225924001399461,-7.202518839149352,-0.093444585,-0.95055909,0.35021883,-7.553699999999999,-2.4263399999999997,23.69878,72.0
1774821869.5182421,6.9141387939453125e-06,2026-03-29T22:04:29.518,2026-03-29T18:04:29.518,-31908.195,-50112.09,-85608.36,-50356.89,-15942.51,-20794.454999999998,4551.84,-54326.744999999995,-4.745497293657704,0.9136868056380882,10.207772441124389,15.618331984013691,12.99877135803785,11.817969099047577,10.601165357679209,-4.585984070790212,-0.093444585,-0.95055909,0.35021883,-7.553699999999999,-2.4263399999999997,23.69878,72.0
1774821869.5182505,8.344650268554688e-06,2026-03-29T22:04:29.518,2026-03-29T18:04:29.518,-31860.045,-50058.09,-85564.62,-50334.255,-15931.89,-20786.489999999998,4548.6449999999995,-54318.015,2.6766945917561116,12.4167631475077,19.035240710034234,16.657259173956945,14.206824785986079,13.93825935600385,13.170539987590749,-0.22983668395732842,-0.093444585,-0.95055909,0.35021883,-7.553699999999999,-2.4263399999999997,23.69878,72.0
1774821869.518257,6.4373016357421875e-06,2026-03-29T22:04:29.518,2026-03-29T18:04:29.518,-31864.32,-50059.755,-85571.595,-50347.53,-15943.14,-20795.13,4521.51,-54298.439999999995,8.519074111618002,18.5780044392685,19.890878146168944,10.97054986458275,9.904910321997304,10.611866465492259,10.69877244752751,3.9348714451858817,-0.093444585,-0.95055909,0.35021883,-7.553699999999999,-2.4263399999999997,23.69878,72.0
1774821869.5228438,0.004586935043334961,2026-03-29T22:04:29.522,2026-03-29T18:04:29.522,-31832.504999999997,-50029.47,-85558.68,-50359.86,-15956.595,-20813.895,4480.785,-54286.515,10.194378113924575,16.22705288533626,11.942242937354214,0.8094219915213954,1.7607615512048866,3.0557785201783405,3.809366272445124,6.1833971553616625,-0.093444585,-0.95055909,0.35021883,-7.553699999999999,-2.4263399999999997,23.69878,72.0
1774821869.5228753,3.147125244140625e-05,2026-03-29T22:04:29.522,2026-03-29T18:04:29.522,-31833.585,-50035.005,-85545.855,-50335.965,-15929.144999999999,-20796.614999999998,4472.55,-54295.74,7.153526312204699,6.120078839369077,-1.7106652636794715,-9.742803595404554,-7.083912839510014,-5.844509510691751,-5.063083541622278,5.7122556741654495,-0.093444585,-0.95055909,0.35021883,-7.553699999999999,-2.4263399999999997,23.69878,72.0
1774821869.5265658,0.003690481185913086,2026-03-29T22:04:29.526,2026-03-29T18:04:29.526,-31850.055,-50041.35,-85534.965,-50308.92,-15904.305,-20784.465,4495.635,-54306.494999999995,1.0395249718314323,-7.265135536328431,-15.21771406297408,-16.39814551534201,-13.191643551319315,-12.591793772100026,-12.454794639958985,2.915901583754394,-0.102233625,-0.95422119,0.35021883,-0.59514,-0.85456,22.26434,72.0
1774821869.526575,9.298324584960938e-06,2026-03-29T22:04:29.526,2026-03-29T18:04:29.526,-31902.66,-50055.345,-85535.415,-50301.27,-15900.57,-20796.57,4504.455,-54349.29,-5.183266595027282,-17.72790069879341,-22.499574457015548,-16.40565565341692,-14.142364428966749,-14.421372618592043,-15.187780224977637,-0.8649312198232306,-0.102233625,-0.95422119,0.35021883,-0.59514,-0.85456,22.26434,72.0
1774821869.5332384,0.006663322448730469,2026-03-29T22:04:29.533,2026-03-29T18:04:29.533,-31894.425,-50072.22,-85578.75,-50355.72,-15959.654999999999,-20853.63,4472.73,-54338.085,-8.668421914559604,-20.23707186590266,-20.013277158134226,-9.699293737556033,-9.492030204855721,-10.433700207177925,-11.74099857461916,-3.9800960219603554,-0.102233625,-0.95422119,0.35021883,-0.59514,-0.85456,22.26434,72.0
1774821869.533307,6.866455078125e-05,2026-03-29T22:04:29.533,2026-03-29T18:04:29.533,-31876.245,-50080.95,-85591.125,-50371.11,-15979.14,-20879.55,4441.455,-54316.215,-7.994458657229491,-13.357795468701354,-8.48944247620795,1.0338453352343673,-0.9962581925221171,-2.052253192942279,-3.084398979903805,-5.192053148612683,-0.102233625,-0.95422119,0.35021883,-0.59514,-0.85456,22.26434,72.0
1774821869.5350142,0.0017070770263671875,2026-03-29T22:04:29.535,2026-03-29T18:04:29.535,-31874.579999999998,-50056.965,-85539.19499999999,-50314.545,-15934.59,-20872.035,4448.79,-54322.604999999996,-3.7366236151722103,-0.03778654358106229,7.21731227539028,11.418748018540768,8.0205819773101,7.432252548040849,7.476531611239743,-4.166341996736652,-0.102233625,-0.95422119,0.35021883,-0.59514,-0.85456,22.26434,72.0
1774821869.5350692,5.507469177246094e-05,2026-03-29T22:04:29.535,2026-03-29T18:04:29.535,-31898.925,-50040.9,-85500.09,-50265.99,-15884.73,-20822.715,4499.235,-54333.81,1.9219730186659738,13.665958311335404,20.181310622821968,17.175114872656753,13.943081432414976,14.119215619506164,15.513860226300713,-1.5363587885993544,-0.102233625,-0.95422119,0.35021883,-0.59514,-0.85456,22.26434,72.0
1774821869.5385,0.0034308433532714844,2026-03-29T22:04:29.538,2026-03-29T18:04:29.538,-31883.355,-50033.115,-85525.56,-50296.994999999995,-15905.789999999999,-20802.015,4501.755,-54319.86,6.301563582212967,21.36430157360097,24.489485660130367,15.89063768204468,14.31079526556461,15.097173696569723,17.332392593337442,1.4522738859706255,-0.102233625,-0.95422119,0.35021883,-0.59514,-0.85456,22.26434,72.0
1774821869.5385263,2.6226043701171875e-05,2026-03-29T22:04:29.538,2026-03-29T18:04:29.538,-31864.5,-50055.255,-85555.98,-50329.845,-15937.244999999999,-20820.105,4468.635,-54301.814999999995,7.495839234545827,19.332143002522113,17.967493812964037,8.044392544478896,8.855512998324954,9.73249120780834,11.691598886339902,3.5289914824040345,-0.102233625,-0.95422119,0.35021883,-0.59514,-0.85456,22.26434,72.0
1774821869.5431435,0.004617214202880859,2026-03-29T22:04:29.543,2026-03-29T18:04:29.543,-31874.355,-50096.88,-85573.89,-50348.205,-15959.43,-20840.94,4476.24,-54265.185,5.197701264722542,8.309878260906833,3.27710860487263,-3.161028541555039,-0.3158610643336418,0.06713840156343172,0.5816306194065752,3.941413337704562,-0.102233625,-0.95422119,0.35021883,-0.59514,-0.85456,22.26434,72.0
1774821869.5431595,1.5974044799804688e-05,2026-03-29T22:04:29.543,2026-03-29T18:04:29.543,-31897.62,-50113.08,-85604.715,-50373.45,-15969.06,-20835.945,4470.4349999999995,-54268.155,0.724978564125506,-6.761155022606838,-13.169403741111479,-13.106472627716029,-9.511149940801294,-9.917219690546778,-11.408478976010306,2.7204761564819364,-0.102233625,-0.95422119,0.35021883,-0.59514,-0.85456,22.26434,72.0
1774821869.5490751,0.005915641784667969,2026-03-29T22:04:29.549,2026-03-29T18:04:29.549,-31839.66,-50066.549999999996,-85602.555,-50373.27,-15968.97,-20852.235,4457.79,-54278.325,-3.7098325480544925,-18.976409545969737,-24.035027822004487,-17.668461828901382,-14.932921842992563,-15.929057636827658,-18.975285491140657,0.5772767466954256,-0.1037595,-0.94469973,0.34496982,-0.07629999999999999,-0.07629999999999999,20.26528,72.0
1774821869.5490916,1.6450881958007812e-05,2026-03-29T22:04:29.549,2026-03-29T18:04:29.549,-31833.09,-50051.205,-85582.035,-50349.284999999996,-15953.49,-20852.64,4494.735,-54275.715,-6.0897008695508275,-22.654403749438558,-24.364835525373472,-14.939901549916708,-14.25842721323632,-15.229963434697176,-18.47149256268216,-1.4856149550147097,-0.1037595,-0.94469973,0.34496982,-0.07629999999999999,-0.07629999999999999,20.26528,72.0
1774821869.551041,0.001949310302734375,2026-03-29T22:04:29.551,2026-03-29T18:04:29.551,-31811.489999999998,-50020.155,-85556.565,-50326.515,-15951.195,-20864.565,4491.495,-54275.04,-5.506822741107936,-15.989893062575732,-13.866806389118336,-6.034693515510511,-7.655475163993529,-7.912948735357162,-9.691895288497541,-2.6443011148021696,-0.1037595,-0.94469973,0.34496982,-0.07629999999999999,-0.07629999999999999,20.26528,72.0
1774821869.5510592,1.8358230590820312e-05,2026-03-29T22:04:29.551,2026-03-29T18:04:29.551,-31844.43,-50031.09,-85536.18,-50301.54,-15943.365,-20884.32,4431.24,-54293.49,-2.487424925089765,-1.9297277840826152,2.8934569678096445,5.36721889209228,2.220747679618758,3.015327862831253,3.8115641466158667,-2.583914417675347,-0.1037595,-0.94469973,0.34496982,-0.07629999999999999,-0.07629999999999999,20.26528,72.0
1774821869.5547135,0.0036542415618896484,2026-03-29T22:04:29.554,2026-03-29T18:04:29.554,-31891.14,-50055.119999999995,-85531.5,-50290.02,-15928.92,-20858.625,4424.445,-54324.405,1.3755857335038555,13.149397215511545,18.499650607965247,14.5480466158952,11.286841454536491,12.854238783004602,16.142791166388616,-1.5553161225633623,-0.1037595,-0.94469973,0.34496982,-0.07629999999999999,-0.07629999999999999,20.26528,72.0
1774821869.55474,2.6464462280273438e-05,2026-03-29T22:04:29.554,2026-03-29T18:04:29.554,-31906.89,-50070.689999999995,-85542.93,-50307.57,-15929.505,-20842.155,4479.525,-54315.314999999995,4.25159738425838,22.358326740639846,26.000099859004727,17.714332420738963,15.728330326993861,17.24539282720499,21.654922829224574,-0.1669730161350557,-0.1037595,-0.94469973,0.34496982,-0.07629999999999999,-0.07629999999999999,20.26528,72.0
1774821869.5591607,0.004420757293701172,2026-03-29T22:04:29.559,2026-03-29T18:04:29.559,-31908.195,-50074.11,-85565.87999999999,-50343.93,-15950.385,-20855.88,4476.735,-54311.265,4.935255324001183,21.461028575841937,22.032781210398756,13.571156505070892,13.624414644720131,14.136272269683857,17.575202708701116,0.9539050105423685,-0.1037595,-0.94469973,0.34496982,-0.07629999999999999,-0.07629999999999999,20.26528,72.0
1774821869.5591917,3.0994415283203125e-05,2026-03-29T22:04:29.559,2026-03-29T18:04:29.559,-31882.68,-50072.58,-85595.58,-50380.875,-15971.175,-20849.265,4462.065,-54309.329999999994,3.33804228651009,10.825211821067898,8.341550307595746,3.851388777267867,5.797706072310816,4.7701047590725425,5.423714637834782,1.4490133797295763,-0.1037595,-0.94469973,0.34496982,-0.07629999999999999,-0.07629999999999999,20.26528,72.0
1774821869.5631387,0.003947019577026367,2026-03-29T22:04:29.563,2026-03-29T18:04:29.563,-31899.645,-50102.82,-85614.3,-50380.47,-15969.465,-20850.075,4421.16,-54314.505,0.4153625959261399,-4.741109824350991,-9.004285431893956,-7.415869289094839,-4.496627543072041,-6.789650550056872,-9.509088044204772,1.3309412871800106,-0.1037595,-0.94469973,0.34496982,-0.07629999999999999,-0.07629999999999999,20.26528,72.0
1774821869.5631604,2.1696090698242188e-05,2026-03-29T22:04:29.563,2026-03-29T18:04:29.563,-31858.875,-50082.479999999996,-85564.575,-50317.02,-15937.38,-20875.635,4412.745,-54261.945,-2.3800520813237886,-18.187421363104214,-22.33052128779287,-15.58482611460211,-12.931161365426433,-15.431688862189084,-20.4743588107589,0.8767913011478466,-0.1037595,-0.94469973,0.34496982,-0.07629999999999999,-0.07629999999999999,20.26528,72.0
1774821869.5713193,0.00815892219543457,2026-03-29T22:04:29.571,2026-03-29T18:04:29.571,-31906.664999999997,-50112.99,-85536.94499999999,-50277.015,-15913.935,-20853.809999999998,4469.175,-54226.755,-3.814399061414824,-23.436637494258015,-25.784470631069535,-17.315136912260364,-15.944005003996889,-17.28849723613374,-22.352771964130692,0.4041299238484718,-0.10217259000000001,-0.934873095,0.346617765,-3.9676,1.2207999999999999,22.26434,72.0
1774821869.5713391,1.9788742065429688e-05,2026-03-29T22:04:29.571,2026-03-29T18:04:29.571,-31986.0,-50135.985,-85573.89,-50310.045,-15931.935,-20845.8,4478.3099999999995,-54290.43,-3.407430978306198,-18.141785818486955,-17.922467632944862,-11.937880656358258,-12.263652059211738,-11.503794944680912,-14.088393671722873,0.07454898711612538,-0.10217259000000001,-0.934873095,0.346617765,-3.9676,1.2207999999999999,22.26434,72.0
1774821869.57136,2.09808349609375e-05,2026-03-29T22:04:29.571,2026-03-29T18:04:29.571,-31905.405,-50063.67,-85601.34,-50376.915,-15991.56,-20872.665,4457.295,-54346.545,-1.5586371297586652,-4.728514562136529,-2.3067455292639796,-1.7069901236296037,-3.457095303157474,-0.6495571267658696,0.7079674799333192,-0.16072244676126232,-0.10217259000000001,-0.934873095,0.346617765,-3.9676,1.2207999999999999,22.26434,72.0
1774821869.5713644,4.291534423828125e-06,2026-03-29T22:04:29.571,2026-03-29T18:04:29.571,-31814.91,-50021.595,-85577.12999999999,-50403.465,-16020.945,-20894.04,4497.21,-54272.115,0.7436159977683138,10.735861951425013,14.130864805900087,9.153947676450635,6.741302742625786,10.421026622367645,15.331820821692364,-0.45404021456211485,-0.10217259000000001,-0.934873095,0.346617765,-3.9676,1.2207999999999999,22.26434,72.0
1774821869.5747707,0.0034062862396240234,2026-03-29T22:04:29.574,2026-03-29T18:04:29.574,-31823.28,-50009.354999999996,-85522.23,-50325.479999999996,-15944.76,-20858.85,4560.345,-54253.71,2.4420458526861046,21.31023485456855,24.195967352925244,16.20187759985172,14.030873846510758,16.771647203372048,23.052181352829535,-0.8775311175345786,-0.10217259000000001,-0.934873095,0.346617765,-3.9676,1.2207999999999999,22.26434,72.0
1774821869.574792,2.1219253540039062e-05,2026-03-29T22:04:29.574,2026-03-29T18:04:29.574,-31838.039999999997,-50013.09,-85506.20999999999,-50285.744999999995,-15908.67,-20829.87,4518.9,-54262.485,2.8889469259587903,22.310940162784426,23.602427650363786,16.592836157267598,15.380074432316798,15.622315057046233,20.256457888423366,-1.296698328425146,-0.10217259000000001,-0.934873095,0.346617765,-3.9676,1.2207999999999999,22.26434,72.0
1774821869.582997,0.008205175399780273,2026-03-29T22:04:29.582,2026-03-29T18:04:29.582,-31836.195,-50025.465,-85532.265,-50313.465,-15933.599999999999,-20830.545,4480.335,-54252.045,2.069786278734106,13.38684542841499,12.799453923630495,10.224313191079002,10.301268659023963,7.594543437364528,8.182559238913395,-1.402378390333774,-0.10217259000000001,-0.934873095,0.346617765,-3.9676,1.2207999999999999,22.26434,72.0
1774821869.583016,1.8835067749023438e-05,2026-03-29T22:04:29.583,2026-03-29T18:04:29.583,-31841.64,-50062.14,-85587.795,-50356.439999999995,-15969.195,-20856.329999999998,4465.755,-54238.454999999994,0.5093790954957695,-1.3806060452059088,-3.3238442073139165,-0.25434622108151456,1.0208608141345463,-3.6104744014403223,-7.6104858430473685,-0.901984246516833,-0.10217259000000001,-0.934873095,0.346617765,-3.9676,1.2207999999999999,22.26434,72.0
1774821869.5830388,2.288818359375e-05,2026-03-29T22:04:29.583,2026-03-29T18:04:29.583,-31883.085,-50085.54,-85591.845,-50332.545,-15921.494999999999,-20810.295,4488.345,-54286.155,-1.0437303587270268,-15.364364702239127,-17.675047889987894,-10.550493689978758,-8.511694277817838,-12.939397411883895,-19.816717948350256,0.2379655064332263,-0.10217259000000001,-0.934873095,0.346617765,-3.9676,1.2207999999999999,22.26434,72.0
1774821869.5830467,7.867813110351562e-06,2026-03-29T22:04:29.583,2026-03-29T18:04:29.583,-31906.89,-50105.744999999995,-85575.23999999999,-50319.99,-15907.14,-20798.37,4509.675,-54308.159999999996,-1.9721739610388431,-22.383982477713523,-24.101701971769344,-16.488675792959075,-14.327530177451637,-16.30325982975278,-22.80345783064357,1.6574921542088215,-0.10217259000000001,-0.934873095,0.346617765,-3.9676,1.2207999999999999,22.26434,72.0
1774821869.597833,0.014786243438720703,2026-03-29T22:04:29.597,2026-03-29T18:04:29.597,-31871.204999999998,-50122.305,-85570.02,-50331.915,-15930.269999999999,-20806.2,4481.6849999999995,-54247.095,-2.017390115725242,-19.443922104770216,-20.037523723948997,-15.700353643959836,-14.107724155149674,-12.401989644188035,-15.258028439351122,2.6932352141096487,-0.11059542,-0.93176031,0.35156160000000003,-7.477399999999999,-1.03768,21.608159999999998,72.0
1774821869.5978537,2.0742416381835938e-05,2026-03-29T22:04:29.597,2026-03-29T18:04:29.597,-31812.524999999998,-50096.295,-85575.825,-50355.765,-15965.505,-20836.079999999998,4472.955,-54169.92,-1.3068438118566892,-8.002441234373965,-7.510300281218034,-8.561278491368883,-8.10665619747773,-3.225599693274948,-0.7959299880603565,2.687212003080731,-0.11059542,-0.93176031,0.35156160000000003,-7.477399999999999,-1.03768,21.608159999999998,72.0
1774821869.5978715,1.7881393432617188e-05,2026-03-29T22:04:29.597,2026-03-29T18:04:29.597,-31879.71,-50111.775,-85578.84,-50363.145,-15978.15,-20852.28,4482.855,-54178.2,-0.2174790383990215,6.760640283735805,7.874117322109371,1.9903445197290033,1.038417544473232,6.961844441744383,13.765961307400683,1.3717819538469054,-0.11059542,-0.93176031,0.35156160000000003,-7.477399999999999,-1.03768,21.608159999999998,72.0
1774821869.597878,6.4373016357421875e-06,2026-03-29T22:04:29.597,2026-03-29T18:04:29.597,-31922.46,-50052.78,-85501.62,-50288.939999999995,-15900.795,-20766.329999999998,4515.66,-54242.64,0.8211503273407134,18.305867219565105,19.460423381259833,11.665813121606194,9.488453300762579,13.635812933503171,21.648146918753323,-0.8835509442604235,-0.11059542,-0.93176031,0.35156160000000003,-7.477399999999999,-1.03768,21.608159999999998,72.0
1774821869.5978851,7.152557373046875e-06,2026-03-29T22:04:29.597,2026-03-29T18:04:29.597,-31876.559999999998,-50022.945,-85513.31999999999,-50298.03,-15906.644999999999,-20782.575,4505.04,-54232.335,1.4825470887785863,21.641219091403805,22.435379163986855,16.56703832590968,13.834303971244484,14.055626530009931,19.30853092014264,-3.134265297984921,-0.11059542,-0.93176031,0.35156160000000003,-7.477399999999999,-1.03768,21.608159999999998,72.0
1774821869.5978916,6.4373016357421875e-06,2026-03-29T22:04:29.597,2026-03-29T18:04:29.597,-31879.079999999998,-50025.6,-85546.665,-50320.665,-15928.695,-20833.065,4493.07,-54268.965,1.609982683408399,15.478041587290129,15.821082488637678,14.751422061618499,12.474396180840499,8.397531357403283,8.073388875310744,-4.253668177336899,-0.11059542,-0.93176031,0.35156160000000003,-7.477399999999999,-1.03768,21.608159999999998,72.0
1774821869.5994956,0.0016040802001953125,2026-03-29T22:04:29.599,2026-03-29T18:04:29.599,-31899.555,-50078.475,-85601.655,-50363.685,-15970.769999999999,-20893.094999999998,4481.01,-54294.84,1.2089431093644079,2.707295476643968,2.7492570696608123,6.995509203822973,6.17953765959736,-0.49711510801544795,-6.569874982927968,-3.495221576785566,-0.11059542,-0.93176031,0.35156160000000003,-7.477399999999999,-1.03768,21.608159999999998,72.0
1774821869.5995767,8.106231689453125e-05,2026-03-29T22:04:29.599,2026-03-29T18:04:29.599,-31848.614999999998,-50076.405,-85602.51,-50370.479999999996,-15988.23,-20920.364999999998,4445.955,-54221.4,0.4112426012815815,-10.966667967153837,-11.029000072907367,-3.5394088979025446,-2.3399368915127243,-8.562523626467609,-17.65520367822361,-0.9447344108709159,-0.11059542,-0.93176031,0.35156160000000003,-7.477399999999999,-1.03768,21.608159999999998,72.0
1774821869.603772,0.004195213317871094,2026-03-29T22:04:29.603,2026-03-29T18:04:29.603,-31820.129999999997,-50062.59,-85587.075,-50372.055,-15999.255,-20924.64,4387.41,-54176.67,-0.5556326943020639,-19.584622170397342,-19.685318926679376,-12.594846414301255,-9.623439113981373,-12.400749162938737,-20.08194385669206,2.397117743050419,-0.11059542,-0.93176031,0.35156160000000003,-7.477399999999999,-1.03768,21.608159999999998,72.0
1774821869.6037853,1.33514404296875e-05,2026-03-29T22:04:29.603,2026-03-29T18:04:29.603,-31849.469999999998,-50057.189999999995,-85578.39,-50380.83,-16013.07,-20909.565,4418.865,-54216.405,-1.396852025979374,-19.53158776270826,-19.779625838810425,-16.532350729010542,-12.87217259247465,-10.727662344617661,-13.001071173228741,4.997396263937448,-0.11059542,-0.93176031,0.35156160000000003,-7.477399999999999,-1.03768,21.608159999999998,72.0
1774821869.6126947,0.008909463882446289,2026-03-29T22:04:29.612,2026-03-29T18:04:29.612,-31895.324999999997,-50056.604999999996,-85548.19499999999,-50332.725,-15945.39,-20824.2,4477.455,-54273.42,-1.8046979299370791,-11.043382228413579,-11.607821278940365,-13.79051017559266,-11.00347260266351,-4.748785491061371,-0.10922810537249505,5.498539780382122,-0.117858585,-0.94128177,0.345763275,-3.79974,1.2818399999999999,23.82086,72.0
1774821869.612717,2.2172927856445312e-05,2026-03-29T22:04:29.612,2026-03-29T18:04:29.612,-31893.03,-50036.985,-85503.42,-50266.215,-15859.394999999999,-20737.305,4505.58,-54270.27,-1.5576295190121505,2.0009282702191897,1.0845992204710142,-5.501070781668833,-4.961544064495415,2.6107043230727407,12.251276751297565,3.4227961983278257,-0.117858585,-0.94128177,0.345763275,-3.79974,1.2818399999999999,23.82086,72.0
1774821869.6127377,2.0742416381835938e-05,2026-03-29T22:04:29.612,2026-03-29T18:04:29.612,-31845.6,-50041.89,-85522.635,-50288.85,-15887.43,-20771.28,4520.655,-54194.805,-0.6407224130612993,13.858083053022696,12.823428065516739,4.977426564297083,2.7716000868956616,8.159145670424063,18.21968511448471,-0.49021709054017926,-0.117858585,-0.94128177,0.345763275,-3.79974,1.2818399999999999,23.82086,72.0
1774821869.612746,8.344650268554688e-06,2026-03-29T22:04:29.612,2026-03-29T18:04:29.612,-31883.445,-50103.81,-85587.61499999999,-50346.54,-15940.619999999999,-20809.89,4525.425,-54201.195,0.6783913608831248,19.452829000223858,18.76889979836825,13.417041248472751,9.206588098124534,9.84207144675441,15.224621458829086,-4.524978742929352,-0.117858585,-0.94128177,0.345763275,-3.79974,1.2818399999999999,23.82086,72.0
1774821869.6149776,0.002231597900390625,2026-03-29T22:04:29.614,2026-03-29T18:04:29.614,-31920.75,-50123.115,-85597.73999999999,-50352.84,-15950.88,-20826.045,4516.155,-54229.095,1.8903155497054889,16.546501585902543,16.701497091013476,16.42246299392919,11.98416613458943,7.468351445946862,5.113803930334264,-6.745802946172431,-0.117858585,-0.94128177,0.345763275,-3.79974,1.2818399999999999,23.82086,72.0
1774821869.6149964,1.8835067749023438e-05,2026-03-29T22:04:29.614,2026-03-29T18:04:29.614,-31915.62,-50076.045,-85518.72,-50274.314999999995,-15888.599999999999,-20808.54,4498.245,-54236.655,2.426590816964174,6.618826205842681,7.822311587813995,12.794918327342588,10.19635519947633,2.5221944053485306,-6.901401336776556,-5.932754090787099,-0.117858585,-0.94128177,0.345763275,-3.79974,1.2818399999999999,23.82086,72.0
1774821869.619228,0.004231452941894531,2026-03-29T22:04:29.619,2026-03-29T18:04:29.619,-31879.98,-50035.77,-85502.43,-50271.39,-15896.744999999999,-20844.315,4444.5599999999995,-54226.979999999996,1.9273938654510585,-5.876126006838665,-3.904140589322692,4.011274966151953,4.631515470893511,-2.719240249698652,-14.90917610744387,-2.2422283977634354,-0.117858585,-0.94128177,0.345763275,-3.79974,1.2818399999999999,23.82086,72.0
1774821869.6192572,2.9325485229492188e-05,2026-03-29T22:04:29.619,2026-03-29T18:04:29.619,-31851.945,-50036.04,-85562.19,-50345.1,-15971.039999999999,-20895.704999999998,4427.235,-54230.354999999996,0.46721232976908783,-15.509361124937564,-13.51823797463088,-6.373833993244345,-2.5870144893139577,-6.253287191637037,-15.214004397861023,2.7618404995372874,-0.117858585,-0.94128177,0.345763275,-3.79974,1.2818399999999999,23.82086,72.0
1774821869.628656,0.009398698806762695,2026-03-29T22:04:29.628,2026-03-29T18:04:29.628,-31868.055,-50087.25,-85626.045,-50407.38,-16019.189999999999,-20906.684999999998,4480.155,-54227.295,-1.3977359276436028,-18.23477079040485,-17.157840943147935,-14.163011363286884,-8.795872923202712,-7.094095294787413,-8.062867039527813,6.77040692341577,-0.117858585,-0.94128177,0.345763275,-3.79974,1.2818399999999999,23.82086,72.0
1774821869.628674,1.811981201171875e-05,2026-03-29T22:04:29.628,2026-03-29T18:04:29.628,-31866.344999999998,-50087.52,-85586.895,-50359.455,-15967.215,-20861.82,4528.349999999999,-54213.93,-2.8255175729584536,-13.083440466338889,-13.596563381943458,-16.21123643058981,-11.730489064525587,-5.427629301877265,2.6352423322217082,7.805667202907022,-0.117858585,-0.94128177,0.345763275,-3.79974,1.2818399999999999,23.82086,72.0
1774821869.6286907,1.6689300537109375e-05,2026-03-29T22:04:29.628,2026-03-29T18:04:29.628,-31869.315,-50080.365,-85571.19,-50337.854999999996,-15943.904999999999,-20854.125,4491.405,-54201.869999999995,-3.0689351247928047,-2.4887473280695356,-4.623236032372868,-11.697599124750576,-10.302601385986964,-2.2502024511511642,11.394122805342818,5.2049372853536955,-0.11987274,-0.94897218,0.34399326,3.95234,5.1273599999999995,23.22572,72.0
1774821869.6287003,9.5367431640625e-06,2026-03-29T22:04:29.628,2026-03-29T18:04:29.628,-31842.855,-50019.57,-85527.94499999999,-50310.81,-15929.279999999999,-20853.315,4439.295,-54199.755,-1.8680819961227495,8.85585928312968,5.83525739193351,-2.4584649157472094,-4.979248216852018,1.2072690046242056,13.944638549610707,0.019124383416914734,-0.11987274,-0.94897218,0.34399326,3.95234,5.1273599999999995,23.22572,72.0
1774821869.6444976,0.01579737663269043,2026-03-29T22:04:29.644,2026-03-29T18:04:29.644,-31830.164999999997,-50003.549999999996,-85497.56999999999,-50298.57,-15949.98,-20888.64,4461.705,-54190.215,0.3522987552305213,16.073871379753577,13.426060155042032,7.755569558984614,2.3530736539073867,3.9431532419364794,9.320521643321939,-5.405227450722657,-0.11987274,-0.94897218,0.34399326,3.95234,5.1273599999999995,23.22572,72.0
1774821869.6445267,2.9087066650390625e-05,2026-03-29T22:04:29.644,2026-03-29T18:04:29.644,-31838.039999999997,-50034.465,-85528.845,-50330.97,-15986.88,-20893.995,4484.925,-54191.655,2.612858930647127,16.200777174449662,15.175315023366458,14.800843941020632,9.009416088030848,5.3696508369752145,0.21313803788739583,-8.498552296948983,-0.11987274,-0.94897218,0.34399326,3.95234,5.1273599999999995,23.22572,72.0
1774821869.64455,2.3365020751953125e-05,2026-03-29T22:04:29.644,2026-03-29T18:04:29.644,-31844.699999999997,-50048.82,-85555.845,-50350.365,-15992.595,-20879.01,4486.005,-54189.045,3.811182370479863,9.398988564490308,10.642457786647306,15.824163484414603,12.437024182778508,5.265403437068306,-8.528561803046289,-7.700671098024143,-0.11987274,-0.94897218,0.34399326,3.95234,5.1273599999999995,23.22572,72.0
1774821869.64456,1.0013580322265625e-05,2026-03-29T22:04:29.644,2026-03-29T18:04:29.644,-31860.719999999998,-50068.665,-85576.995,-50357.295,-15965.144999999999,-20828.07,4491.36,-54197.1,3.2649410290894005,-1.2034899397565704,1.9818315742009152,10.423694135220593,11.164935703351516,3.6719679599010586,-12.438520252945382,-3.2551814751075674,-0.11987274,-0.94897218,0.34399326,3.95234,5.1273599999999995,23.22572,72.0
1774821869.6445727,1.2636184692382812e-05,2026-03-29T22:04:29.644,2026-03-29T18:04:29.644,-31864.364999999998,-50120.189999999995,-85576.545,-50329.979999999996,-15901.695,-20743.785,4532.13,-54175.77,1.0962162552535788,-10.94324715959249,-7.062908896556587,0.8120878504310337,5.437037521784334,0.8812041992317291,-9.696757205168694,2.8420423706953,-0.11987274,-0.94897218,0.34399326,3.95234,5.1273599999999995,23.22572,72.0
1774821869.6445832,1.049041748046875e-05,2026-03-29T22:04:29.644,2026-03-29T18:04:29.644,-31950.045,-50195.564999999995,-85596.705,-50323.68,-15881.31,-20727.405,4544.37,-54148.14,-1.7579703776165407,-15.671209383834768,-12.770395096573347,-9.08754264848566,-2.744221739865934,-2.4851066697147717,-1.973556953808946,7.747264142672936,-0.11987274,-0.94897218,0.34399326,3.95234,5.1273599999999995,23.22572,72.0
1774821869.644595,1.1682510375976562e-05,2026-03-29T22:04:29.644,2026-03-29T18:04:29.644,-31964.94,-50122.259999999995,-85623.97499999999,-50373.225,-15943.635,-20797.739999999998,4482.945,-54216.63,-3.948751230041583,-13.522966123866006,-12.969837788538657,-15.245217901879169,-10.256134055491444,-5.44576312879805,6.536218411251225,9.11315875998631,-0.11987274,-0.94897218,0.34399326,3.95234,5.1273599999999995,23.22572,72.0
1774821869.6446035,8.58306884765625e-06,2026-03-29T22:04:29.644,2026-03-29T18:04:29.644,-31861.53,-50032.755,-85598.01,-50371.38,-15961.14,-20838.329999999998,4466.79,-54216.045,-4.359978729197261,-5.653726670619937,-7.860638199851384,-15.171052336398459,-14.011563349519683,-6.848102380195587,11.347800270287737,6.22960019195568,-0.11987274,-0.94897218,0.34399326,3.95234,5.1273599999999995,23.22572,72.0
1774821869.6542873,0.009683847427368164,2026-03-29T22:04:29.654,2026-03-29T18:04:29.654,-31845.465,-50056.02,-85579.515,-50351.895,-15958.26,-20871.315,4482.945,-54171.854999999996,-2.6828489460525065,4.352306736922241,0.183739606319456,-8.92945535393037,-12.226073782584212,-5.812243977687883,10.01430019854392,0.3985969951327856,-0.121520685,-0.950253915,0.34399326,9.85796,11.231359999999999,20.55522,72.0
1774821869.6544306,0.00014328956604003906,2026-03-29T22:04:29.654,2026-03-29T18:04:29.654,-31856.085,-50055.255,-85547.745,-50326.515,-15944.58,-20859.39,4518.405,-54178.604999999996,0.37802026529926075,12.107455219055566,7.702166356586887,0.8964523274863748,-5.277878820068206,-2.263040853607592,3.3506736158027723,-5.6572759470963545,-0.121520685,-0.950253915,0.34399326,9.85796,11.231359999999999,20.55522,72.0
1774821869.65445,1.9311904907226562e-05,2026-03-29T22:04:29.654,2026-03-29T18:04:29.654,-31884.704999999998,-50054.354999999996,-85514.12999999999,-50292.27,-15920.955,-20849.895,4505.76,-54174.24,3.3964511536870523,14.347898093041861,11.632785078982788,10.274621205926314,4.259221189058625,2.7638375442939194,-5.052071434694889,-9.083334375062856,-0.121520685,-0.950253915,0.34399326,9.85796,11.231359999999999,20.55522,72.0
1774821869.6544561,6.198883056640625e-06,2026-03-29T22:04:29.654,2026-03-29T18:04:29.654,-31879.62,-50052.195,-85505.715,-50283.27,-15910.199999999999,-20834.055,4465.575,-54173.7,4.8964055562069495,10.315575167664752,10.563558142415545,15.385096892750575,12.523736399874426,7.318731509011875,-10.739194077740056,-8.261082477361992,-0.121520685,-0.950253915,0.34399326,9.85796,11.231359999999999,20.55522,72.0
1774821869.6544633,7.152557373046875e-06,2026-03-29T22:04:29.654,2026-03-29T18:04:29.654,-31858.739999999998,-50026.59,-85487.04,-50253.57,-15868.845,-20776.454999999998,4467.96,-54194.579999999994,4.083930302825809,2.005526247678133,5.233846348985488,14.185132861095775,15.92268032733296,9.281283744420973,-10.720726910399502,-3.5903705671117803,-0.121520685,-0.950253915,0.34399326,9.85796,11.231359999999999,20.55522,72.0
1774821869.6544688,5.4836273193359375e-06,2026-03-29T22:04:29.654,2026-03-29T18:04:29.654,-31810.905,-49991.939999999995,-85503.19499999999,-50287.814999999995,-15901.74,-20787.66,4487.67,-54172.575,1.2717745283404709,-6.799237556008731,-1.890143187182807,7.232608963961232,12.71375111511908,7.374467342098386,-5.009689475451286,2.70092639702865,-0.121520685,-0.950253915,0.34399326,9.85796,11.231359999999999,20.55522,72.0
1774821869.6586971,0.004228353500366211,2026-03-29T22:04:29.658,2026-03-29T18:04:29.658,-31850.73,-50062.14,-85606.515,-50401.395,-16006.68,-20888.64,4489.065,-54184.905,-2.23224240001007,-12.247770367607504,-7.7446620975138485,-2.5679678157735113,3.907214827152849,1.952042610536432,3.410757473654452,7.631753638020082,-0.121520685,-0.950253915,0.34399326,9.85796,11.231359999999999,20.55522,72.0
1774821869.6587121,1.5020370483398438e-05,2026-03-29T22:04:29.658,2026-03-29T18:04:29.658,-31887.27,-50105.52,-85649.44499999999,-50434.92,-16033.32,-20922.614999999998,4507.47,-54201.509999999995,-4.739256686454465,-12.115817407591544,-9.990732608056028,-11.183622417554691,-6.982983758120894,-4.910061393124245,10.153150221806797,8.904029401607188,-0.121520685,-0.950253915,0.34399326,9.85796,11.231359999999999,20.55522,72.0
1774821869.6632235,0.004511356353759766,2026-03-29T22:04:29.663,2026-03-29T18:04:29.663,-31886.954999999998,-50103.99,-85629.015,-50408.28,-16012.305,-20901.015,4514.3099999999995,-54189.45,-5.0050756658787945,-6.7247455762222925,-7.956715892617074,-15.12238589942597,-15.326653249515523,-10.18652901460316,11.700348134309774,5.998029126474524,-0.121520685,-0.950253915,0.34399326,9.85796,11.231359999999999,20.55522,72.0
1774821869.6632457,2.2172927856445312e-05,2026-03-29T22:04:29.663,2026-03-29T18:04:29.663,-31872.285,-50094.72,-85597.47,-50360.85,-15958.349999999999,-20824.245,4494.825,-54165.329999999994,-2.8586436852789108,1.301315708947198,-2.816371486216688,-12.858353841723192,-17.364550160595822,-11.265298661682463,7.21303790836198,0.39359074091477375,-0.121520685,-0.950253915,0.34399326,9.85796,11.231359999999999,20.55522,72.0
1774821869.667007,0.00376129150390625,2026-03-29T22:04:29.667,2026-03-29T18:04:29.667,-31845.465,-50072.265,-85569.61499999999,-50328.18,-15939.404999999999,-20809.079999999998,4485.375,-54145.125,0.6890958307429212,8.296162786936195,3.0344218961813665,-5.425821683809074,-11.933756296051085,-7.272474763828272,-1.050408757643594,-5.182758969380075,-0.124816575,-0.945859395,0.34960848,10.02582,14.14602,18.28148,72.0
1774821869.6670327,2.574920654296875e-05,2026-03-29T22:04:29.667,2026-03-29T18:04:29.667,-31886.73,-50087.61,-85580.55,-50332.455,-15944.445,-20820.239999999998,4495.679999999999,-54199.17,3.924248159843683,11.231675663369801,7.088393320679172,4.0509302660948645,-1.1244684514022625,0.3258249214303713,-8.900435201700603,-8.102722614203723,-0.124816575,-0.945859395,0.34960848,10.02582,14.14602,18.28148,72.0
1774821869.6749184,0.00788569450378418,2026-03-29T22:04:29.674,2026-03-29T18:04:29.674,-31909.725,-50094.72,-85595.04,-50338.979999999996,-15936.435,-20822.489999999998,4477.455,-54230.759999999995,5.268959599790108,9.045314219463583,7.812502011147794,11.679543004213858,10.499670342191232,8.227971570524854,-12.356085246589705,-7.102386936510011,-0.124816575,-0.945859395,0.34960848,10.02582,14.14602,18.28148,72.0
1774821869.675006,8.749961853027344e-05,2026-03-29T22:04:29.675,2026-03-29T18:04:29.675,-31873.094999999998,-50079.915,-85599.045,-50350.545,-15938.595,-20844.36,4448.925,-54183.645,4.064857460059608,3.0246665456711868,5.232788797980671,14.410063678136597,17.84204555163444,12.755747623410128,-9.658817003479285,-2.847530146007537,-0.124816575,-0.945859395,0.34960848,10.02582,14.14602,18.28148,72.0
1774821869.6763449,0.001338958740234375,2026-03-29T22:04:29.676,2026-03-29T18:04:29.676,-31830.164999999997,-50068.53,-85601.11499999999,-50373.0,-15963.75,-20888.505,4431.15,-54134.46,0.9057177654884406,-3.89281491709393,0.7908632184815977,11.261967827586481,17.543160506898232,11.611658385486832,-2.1422005979100813,2.464379678621987,-0.124816575,-0.945859395,0.34960848,10.02582,14.14602,18.28148,72.0
1774821869.6763527,7.867813110351562e-06,2026-03-29T22:04:29.676,2026-03-29T18:04:29.676,-31815.855,-50034.6,-85508.595,-50306.49,-15933.33,-20876.579999999998,4474.575,-54121.59,-2.6534867135805293,-8.543160824458598,-3.4157848686519534,3.6698771108566532,9.55231083167345,5.07473534618888,6.464346154333866,6.241652852840554,-0.124816575,-0.945859395,0.34960848,10.02582,14.14602,18.28148,72.0
1774821869.6784408,0.0020880699157714844,2026-03-29T22:04:29.678,2026-03-29T18:04:29.678,-31877.145,-50044.275,-85422.78,-50211.09,-15864.39,-20785.23,4530.87,-54147.284999999996,-4.86974565279446,-8.996826755640074,-5.624337824384805,-5.171449428255322,-2.7505435732549115,-3.9993678648277227,11.921421477234963,6.786148130857213,-0.124816575,-0.945859395,0.34960848,10.02582,14.14602,18.28148,72.0
1774821869.6784532,1.239776611328125e-05,2026-03-29T22:04:29.678,2026-03-29T18:04:29.678,-31904.055,-50079.15,-85504.59,-50295.104999999996,-15938.505,-20832.57,4520.655,-54141.345,-4.679734812348115,-5.3762341759244014,-5.159769552476924,-11.663444491804858,-13.99091483514248,-11.44185071277339,11.587690152884678,4.0819534823003005,-0.124816575,-0.945859395,0.34960848,10.02582,14.14602,18.28148,72.0
1774821869.6831605,0.00470733642578125,2026-03-29T22:04:29.683,2026-03-29T18:04:29.683,-31900.32,-50070.645,-85621.995,-50432.67,-16057.439999999999,-20923.38,4452.48,-54197.549999999996,-2.22387440572546,0.32622023622279966,-2.621005521937119,-13.280014002625455,-19.18139110650624,-13.731990621344444,5.693093313841186,-0.2933232452932469,-0.124816575,-0.945859395,0.34960848,10.02582,14.14602,18.28148,72.0
1774821869.683182,2.1457672119140625e-05,2026-03-29T22:04:29.683,2026-03-29T18:04:29.683,-31885.739999999998,-50072.04,-85631.625,-50436.45,-16041.42,-20898.63,4427.595,-54229.095,1.2380718653291807,5.300501797668809,0.5424586894396656,-9.55211089751507,-15.977392400943234,-9.71285315411137,-2.835493143181487,-4.054913979330424,-0.124816575,-0.945859395,0.34960848,10.02582,14.14602,18.28148,72.0
1774821869.6871643,0.0039823055267333984,2026-03-29T22:04:29.687,2026-03-29T18:04:29.687,-31879.62,-50074.875,-85590.045,-50372.189999999995,-15966.314999999999,-20829.78,4463.235,-54205.515,3.974473967912873,7.30162303701034,2.8130887605804333,-2.175130509436725,-5.766331241732861,-1.2033913615701481,-9.869567109449653,-5.409348320507087,-0.13330044,-0.93188238,0.339415635,6.683879999999999,13.67296,19.54806,72.0
1774821869.6871862,2.193450927734375e-05,2026-03-29T22:04:29.687,2026-03-29T18:04:29.687,-31874.715,-50087.88,-85599.94499999999,-50369.625,-15969.015,-20850.03,4485.735,-54173.744999999995,4.659271809972308,5.682931783550424,3.3390595095070315,5.767905704521756,6.930209950443933,7.82766006319178,-12.115700426673754,-3.934968389727935,-0.13330044,-0.93188238,0.339415635,6.683879999999999,13.67296,19.54806,72.0
1774821869.6907723,0.0035860538482666016,2026-03-29T22:04:29.690,2026-03-29T18:04:29.690,-31861.8,-50090.805,-85609.44,-50357.475,-15959.744999999999,-20851.245,4516.92,-54149.579999999994,3.0299372610027984,1.5944967365655611,2.261378192789587,11.10899680106375,16.486001032653505,13.150669032324803,-8.672915862430525,-0.7015104053831434,-0.13330044,-0.93188238,0.339415635,6.683879999999999,13.67296,19.54806,72.0
1774821869.6908104,3.814697265625e-05,2026-03-29T22:04:29.690,2026-03-29T18:04:29.690,-31890.69,-50105.34,-85614.435,-50356.439999999995,-15960.15,-20851.38,4497.66,-54181.665,-0.00756146868204898,-2.7118072697611844,0.5026288011705351,11.866129631850079,18.707843085161326,12.311571208566283,-1.3669743979208495,2.399959716911292,-0.13330044,-0.93188238,0.339415635,6.683879999999999,13.67296,19.54806,72.0
1774821869.6947527,0.003942251205444336,2026-03-29T22:04:29.694,2026-03-29T18:04:29.694,-31893.3,-50108.04,-85615.83,-50366.295,-15967.305,-20866.68,4464.45,-54181.079999999994,-2.8721959458074107,-5.083947132906106,-0.8311906521330749,7.968014052189071,12.715595775578736,5.811136942523855,6.246534959450094,3.7265626617375527,-0.13330044,-0.93188238,0.339415635,6.683879999999999,13.67296,19.54806,72.0
1774821869.694764,1.1205673217773438e-05,2026-03-29T22:04:29.694,2026-03-29T18:04:29.694,-31867.289999999997,-50080.095,-85579.73999999999,-50350.409999999996,-15950.88,-20848.995,4475.385,-54149.49,-4.1350842600540485,-4.550789206983681,-1.0898576764499812,1.172099011800518,1.3019818945179809,-3.161404499095091,10.658100005077438,2.761226369117598,-0.13330044,-0.93188238,0.339415635,6.683879999999999,13.67296,19.54806,72.0
1774821869.7020597,0.007295846939086914,2026-03-29T22:04:29.702,2026-03-29T18:04:29.702,-31867.469999999998,-50063.985,-85557.33,-50337.54,-15939.269999999999,-20816.19,4546.53,-54150.255,-3.246024175068387,-1.7367892021999647,-0.4066347415873705,-5.738648231589657,-10.381975557292602,-10.309665878900558,10.053960693462692,0.3277619296988539,-0.13330044,-0.93188238,0.339415635,6.683879999999999,13.67296,19.54806,72.0
1774821869.7020762,1.6450881958007812e-05,2026-03-29T22:04:29.702,2026-03-29T18:04:29.702,-31861.079999999998,-50053.59,-85551.3,-50338.755,-15937.65,-20798.37,4530.014999999999,-54170.055,-0.7838706904682414,1.5771113869519826,0.45579044360025917,-10.107951152685791,-17.19147512779561,-12.336153545500341,5.04971356830843,-1.9538440471776697,-0.13330044,-0.93188238,0.339415635,6.683879999999999,13.67296,19.54806,72.0
1774821869.7020907,1.4543533325195312e-05,2026-03-29T22:04:29.702,2026-03-29T18:04:29.702,-31875.03,-50061.195,-85561.65,-50350.409999999996,-15944.355,-20813.04,4478.985,-54197.82,1.8891171056743556,3.485109647761714,0.6385223814380098,-10.423263234023533,-16.298455677571063,-8.52050245724434,-1.7820377035452262,-2.647847926789917,-0.13330044,-0.93188238,0.339415635,6.683879999999999,13.67296,19.54806,72.0
1774821869.702098,7.152557373046875e-06,2026-03-29T22:04:29.702,2026-03-29T18:04:29.702,-31867.92,-50061.96,-85573.08,-50366.205,-15970.59,-20865.195,4442.175,-54203.67,3.3727786238454542,3.013128976252416,-0.2200718806743954,-6.808924477565777,-8.388527416438775,-0.9890463674628847,-7.269233411063177,-1.3557281973917261,-0.13330044,-0.93188238,0.339415635,6.683879999999999,13.67296,19.54806,72.0
