unix_time_s,dt_s,UTC,LOCAL,EMG1_Raw,EMG2_Raw,EMG3_Raw,EMG4_Raw,EMG5_Raw,EMG6_Raw,EMG7_Raw,EMG8_Raw,EMG1_Filtered,EMG2_Filtered,EMG3_Filtered,EMG4_Filtered,EMG5_Filtered,EMG6_Filtered,EMG7_Filtered,EMG8_Filtered,Accel1_Raw,Accel2_Raw,Accel3_Raw,Gyro1_Raw,Gyro2_Raw,Gyro3_Raw,Battery
1774821857.3331835,,2026-03-29T22:04:17.333,2026-03-29T18:04:17.333,-31761.945,-50170.095,-85388.84999999999,-50206.68,-15762.015,-20659.635,4523.085,-51135.345,-0.5562333324612991,1.2532178433043815,1.9945644026600051,1.9349706129145554,1.9157339504083377,1.4556236892506866,-1.561065292189922,-3.7232423217188755,-0.07580547,-0.89672622,0.44128305,-5.85984,4.5017,-17.36588,72.0
1774821857.3332124,2.8848648071289062e-05,2026-03-29T22:04:17.333,2026-03-29T18:04:17.333,-31781.204999999998,-50195.655,-85424.805,-50259.869999999995,-15833.97,-20757.645,4517.46,-51144.435,3.0180232968561866,-3.993046408000744,-12.745042435592234,-25.932453228268535,-31.991214486696933,-31.061618150101346,1.3996580983066949,3.4161412201163417,-0.07580547,-0.89672622,0.44128305,-5.85984,4.5017,-17.36588,72.0
1774821857.3371203,0.003907918930053711,2026-03-29T22:04:17.337,2026-03-29T18:04:17.337,-31790.52,-50237.1,-85498.155,-50382.72,-15984.72,-20903.085,4603.139999999999,-51128.28,5.225689459776539,-7.417544582970711,-21.54761819760032,-41.59648538263928,-50.92265748594343,-49.0936371478738,3.722368448384644,9.23663996138136,-0.07580547,-0.89672622,0.44128305,-5.85984,4.5017,-17.36588,72.0
1774821857.3371797,5.936622619628906e-05,2026-03-29T22:04:17.337,2026-03-29T18:04:17.337,-31794.254999999997,-50244.255,-85511.385,-50407.29,-16026.255,-20957.579999999998,4586.04,-51144.255,4.837356425587115,-7.603039727519638,-20.534877790624222,-38.12512504800289,-46.5061454472948,-44.462656568009564,4.087172184141464,10.818437575971183,-0.07580547,-0.89672622,0.44128305,-5.85984,4.5017,-17.36588,72.0
1774821857.340411,0.0032312870025634766,2026-03-29T22:04:17.340,2026-03-29T18:04:17.340,-31825.035,-50254.515,-85502.565,-50355.494999999995,-15960.15,-20912.805,4522.23,-51182.775,1.890683863552727,-4.570546936619421,-10.35530110609815,-17.49771538992518,-21.203838472328666,-19.562601575046003,2.1850341108318183,7.172727533894262,-0.07580547,-0.89672622,0.44128305,-5.85984,4.5017,-17.36588,72.0
1774821857.3404243,1.33514404296875e-05,2026-03-29T22:04:17.340,2026-03-29T18:04:17.340,-31829.399999999998,-50257.439999999995,-85490.55,-50299.335,-15889.365,-20859.12,4499.235,-51179.534999999996,-2.251790179503535,0.28866956677915134,4.208588991231277,10.496397507314317,13.039892706253857,13.892686579298921,-1.068621661234962,-0.1777516416276667,-0.07580547,-0.89672622,0.44128305,-5.85984,4.5017,-17.36588,72.0
1774821857.3445804,0.0041561126708984375,2026-03-29T22:04:17.344,2026-03-29T18:04:17.344,-31794.614999999998,-50218.83,-85440.825,-50263.604999999996,-15868.619999999999,-20841.885,4512.554999999999,-51168.465,-5.520493435838749,4.868595235410475,16.516778197399052,32.95628674831601,40.50350169220696,40.44407963907239,-3.969491846794152,-7.818646444830788,-0.07434063,-0.901670055,0.44982795000000003,-3.4335,6.08874,-18.22044,72.0
1774821857.344593,1.2636184692382812e-05,2026-03-29T22:04:17.344,2026-03-29T18:04:17.344,-31771.98,-50208.525,-85444.56,-50282.055,-15883.605,-20841.704999999998,4518.0,-51171.479999999996,-6.158139685746002,7.274450155469049,21.134811120838457,39.88619933676185,48.9908347524616,48.101741818904394,-4.9034579373954115,-12.020871588549921,-0.07434063,-0.901670055,0.44982795000000003,-3.4335,6.08874,-18.22044,72.0
1774821857.3492942,0.004701137542724609,2026-03-29T22:04:17.349,2026-03-29T18:04:17.349,-31765.68,-50209.965,-85459.995,-50307.615,-15911.189999999999,-20862.45,4520.385,-51149.204999999994,-3.6443543615826224,6.605328465454734,16.253733441567377,28.691784169144835,35.30017759682944,33.79929078578322,-3.2206211739504065,-10.550562568415668,-0.07434063,-0.901670055,0.44982795000000003,-3.4335,6.08874,-18.22044,72.0
1774821857.3493192,2.5033950805664062e-05,2026-03-29T22:04:17.349,2026-03-29T18:04:17.349,-31793.355,-50216.939999999995,-85455.94499999999,-50305.365,-15912.269999999999,-20863.305,4518.045,-51140.52,0.9535448612077444,3.2711795318523738,4.380041912428585,5.111320298772794,6.382876993420803,4.588109109464161,0.35989911688833576,-3.837953960455735,-0.07434063,-0.901670055,0.44982795000000003,-3.4335,6.08874,-18.22044,72.0
1774821857.353391,0.004071712493896484,2026-03-29T22:04:17.353,2026-03-29T18:04:17.353,-31814.235,-50235.165,-85469.535,-50318.415,-15923.205,-20872.934999999998,4513.815,-51136.604999999996,5.42022782273779,-1.2545331695889959,-8.956114326977538,-19.728327422511352,-24.19812151065022,-25.87283079327411,4.051278722008732,5.099023942318801,-0.07434063,-0.901670055,0.44982795000000003,-3.4335,6.08874,-18.22044,72.0
1774821857.353423,3.218650817871094e-05,2026-03-29T22:04:17.353,2026-03-29T18:04:17.353,-31810.41,-50236.38,-85476.015,-50326.02,-15931.26,-20879.82,4501.9349999999995,-51156.99,7.4492634056450235,-5.099405837673714,-17.80633342261558,-34.61869337863503,-42.69974696542735,-43.76877254109379,5.88285811691437,12.00144790173923,-0.07434063,-0.901670055,0.44982795000000003,-3.4335,6.08874,-18.22044,72.0
1774821857.356934,0.0035109519958496094,2026-03-29T22:04:17.356,2026-03-29T18:04:17.356,-31800.105,-50230.485,-85476.23999999999,-50328.99,-15935.58,-20886.03,4490.595,-51177.195,5.817614258964545,-6.767438654404476,-18.481727233102905,-33.38282544601947,-41.438569854812094,-41.4447934006788,4.732055274400859,13.39088200930122,-0.07434063,-0.901670055,0.44982795000000003,-3.4335,6.08874,-18.22044,72.0
1774821857.3569536,1.9550323486328125e-05,2026-03-29T22:04:17.356,2026-03-29T18:04:17.356,-31756.995,-50191.2,-85441.185,-50296.545,-15904.89,-20855.88,4514.22,-51181.244999999995,1.0856906218063562,-5.70398132721171,-11.086470437822335,-17.436741620816974,-21.976770133561416,-20.674935220933662,0.9715789397008368,8.309956876674578,-0.07434063,-0.901670055,0.44982795000000003,-3.4335,6.08874,-18.22044,72.0
1774821857.3608387,0.003885030746459961,2026-03-29T22:04:17.360,2026-03-29T18:04:17.360,-31782.375,-50202.27,-85438.75499999999,-50290.29,-15899.175,-20851.559999999998,4520.429999999999,-51172.02,-4.5653110048546495,-2.447417123888892,0.7269934289327968,5.260785504751994,6.062083424130582,8.506259680327744,-3.626945630288668,-1.083875610014526,-0.07434063,-0.901670055,0.44982795000000003,-3.4335,6.08874,-18.22044,72.0
1774821857.3608546,1.5974044799804688e-05,2026-03-29T22:04:17.360,2026-03-29T18:04:17.360,-31826.34,-50238.134999999995,-85470.12,-50320.619999999995,-15928.515,-20881.98,4495.86,-51155.145,-8.332321672162639,1.6506666356183277,11.572961628299725,24.195640656497616,29.777725890246987,32.69352464450809,-6.724312054371549,-10.418953061186295,-0.07434063,-0.901670055,0.44982795000000003,-3.4335,6.08874,-18.22044,72.0
1774821857.364532,0.0036773681640625,2026-03-29T22:04:17.364,2026-03-29T18:04:17.364,-31823.235,-50241.375,-85475.97,-50327.28,-15939.72,-20909.835,4496.535,-51146.369999999995,-8.171598011999599,4.9882717717716,16.81037463701433,31.21781307454885,38.98727771806068,41.31970858133452,-6.591031029249433,-15.137382789282194,-0.074401665,-0.9054542250000001,0.458433885,2.9451799999999997,6.45498,-18.06784,72.0
1774821857.3645492,1.71661376953125e-05,2026-03-29T22:04:17.364,2026-03-29T18:04:17.364,-31803.03,-50223.24,-85464.315,-50318.82,-15939.855,-20941.785,4495.905,-51163.2,-3.8850840944102303,6.323547305340503,14.533308941362908,24.069087191550825,30.617016708714914,31.284821009251722,-3.0429084642856954,-12.713156727569043,-0.074401665,-0.9054542250000001,0.458433885,2.9451799999999997,6.45498,-18.06784,72.0
1774821857.3709867,0.006437540054321289,2026-03-29T22:04:17.370,2026-03-29T18:04:17.370,-31780.664999999997,-50217.345,-85465.26,-50321.52,-15938.955,-20913.524999999998,4503.69,-51149.52,2.657716991369623,5.209982689692581,6.2194481824371435,6.984169112096942,9.590456427935115,7.973879030380975,2.3600207172360586,-3.9840899593292223,-0.074401665,-0.9054542250000001,0.458433885,2.9451799999999997,6.45498,-18.06784,72.0
1774821857.371014,2.7418136596679688e-05,2026-03-29T22:04:17.371,2026-03-29T18:04:17.371,-31763.745,-50217.255,-85480.785,-50344.83,-15964.785,-20944.844999999998,4495.095,-51134.085,8.328563177957376,2.1207995301286924,-4.155657622889068,-11.709824049730958,-13.952691685061659,-17.608371348105898,6.995912260559671,7.09698873134071,-0.074401665,-0.9054542250000001,0.458433885,2.9451799999999997,6.45498,-18.06784,72.0
1774821857.3774257,0.006411552429199219,2026-03-29T22:04:17.377,2026-03-29T18:04:17.377,-31741.515,-50221.755,-85508.685,-50392.35,-16026.48,-21021.39,4465.035,-51113.564999999995,10.23423951715443,-1.7545066565828717,-12.030474496083254,-23.67115168457948,-29.57496523027845,-34.06971145127661,8.44805323810439,15.245453220604446,-0.074401665,-0.9054542250000001,0.458433885,2.9451799999999997,6.45498,-18.06784,72.0
1774821857.377455,2.9325485229492188e-05,2026-03-29T22:04:17.377,2026-03-29T18:04:17.377,-31768.11,-50217.884999999995,-85481.415,-50367.195,-15998.76,-20944.844999999998,4448.88,-51141.465,7.182756489577023,-4.952692659296063,-14.270947952106177,-24.292685809127633,-31.19807675942705,-34.72502314654426,5.746240827975064,16.362235249848112,-0.074401665,-0.9054542250000001,0.458433885,2.9451799999999997,6.45498,-18.06784,72.0
1774821857.377482,2.6941299438476562e-05,2026-03-29T22:04:17.377,2026-03-29T18:04:17.377,-31776.254999999997,-50214.15,-85468.275,-50345.865,-15968.25,-20882.34,4450.005,-51150.375,0.3822185163979977,-6.263209968569456,-10.39403434719252,-14.42616640116284,-19.40831919337818,-20.266807564891835,-0.04787303370668074,9.587718942913193,-0.074401665,-0.9054542250000001,0.458433885,2.9451799999999997,6.45498,-18.06784,72.0
1774821857.377493,1.0967254638671875e-05,2026-03-29T22:04:17.377,2026-03-29T18:04:17.377,-31806.855,-50220.225,-85459.5,-50316.03,-15928.83,-20854.844999999998,4478.67,-51181.47,-7.022403156487089,-5.165475852255457,-2.5384021385526077,0.533282373438123,-0.5722717531686968,2.027508535545217,-6.245055203041864,-2.1339075371333767,-0.074401665,-0.9054542250000001,0.458433885,2.9451799999999997,6.45498,-18.06784,72.0
1774821857.3805723,0.0030794143676757812,2026-03-29T22:04:17.380,2026-03-29T18:04:17.380,-31821.66,-50223.42,-85456.08,-50287.5,-15888.599999999999,-20827.035,4505.49,-51195.735,-11.40645312702801,-2.032202452230078,5.686045946715905,13.535248628116515,16.541221752134287,21.95627040763139,-9.775788502529462,-13.322964439760511,-0.074401665,-0.9054542250000001,0.458433885,2.9451799999999997,6.45498,-18.06784,72.0
1774821857.380584,1.1682510375976562e-05,2026-03-29T22:04:17.380,2026-03-29T18:04:17.380,-31811.625,-50216.04,-85440.645,-50261.354999999996,-15846.48,-20777.445,4524.615,-51194.79,-10.440636001329143,1.9783662662556996,10.860964701004704,19.21047964518037,24.86163584381357,31.080704394644236,-8.702666457720873,-18.525842962008213,-0.074401665,-0.9054542250000001,0.458433885,2.9451799999999997,6.45498,-18.06784,72.0
1774821857.3847203,0.004136323928833008,2026-03-29T22:04:17.384,2026-03-29T18:04:17.384,-31808.789999999997,-50219.415,-85453.02,-50297.759999999995,-15901.154999999999,-20849.489999999998,4514.985,-51192.854999999996,-4.313818770820233,5.323019385117249,11.167366357239422,16.071064703498184,21.91477762996124,26.277598167252325,-3.255977296271405,-14.97302042066457,-0.065856765,-0.90197523,0.46179081,1.64808,6.45498,-15.4126,72.0
1774821857.3847342,1.3828277587890625e-05,2026-03-29T22:04:17.384,2026-03-29T18:04:17.384,-31801.004999999997,-50227.47,-85479.03,-50348.88,-15962.894999999999,-20901.78,4519.485,-51178.68,4.233393763217109,6.645970135254918,6.9671738580396605,6.68437156069415,10.346025285312885,10.676387477215023,4.150929134970457,-4.037858408874937,-0.065856765,-0.90197523,0.46179081,1.64808,6.45498,-15.4126,72.0
1774821857.3886852,0.003951072692871094,2026-03-29T22:04:17.388,2026-03-29T18:04:17.388,-31805.145,-50243.265,-85502.79,-50371.695,-15981.615,-20913.03,4504.365,-51171.84,11.137929719679784,5.324052839180875,0.40969382076509103,-4.022124474640294,-3.8864040062319534,-8.212858041893657,9.990162842852,9.266619268868697,-0.065856765,-0.90197523,0.46179081,1.64808,6.45498,-15.4126,72.0
1774821857.38871,2.47955322265625e-05,2026-03-29T22:04:17.388,2026-03-29T18:04:17.388,-31799.745,-50234.805,-85486.14,-50342.67,-15954.435,-20894.265,4478.49,-51169.86,12.95402744080223,1.7683825286563637,-5.651427961232005,-11.305695887763832,-14.54242020002997,-22.112823938304796,11.299619262110161,18.586038412872746,-0.065856765,-0.90197523,0.46179081,1.64808,6.45498,-15.4126,72.0
1774821857.3926964,0.003986358642578125,2026-03-29T22:04:17.392,2026-03-29T18:04:17.392,-31800.239999999998,-50227.064999999995,-85467.555,-50303.564999999995,-15905.789999999999,-20846.204999999998,4492.9349999999995,-51182.595,8.573549447578264,-2.6671672813409835,-8.891240914346286,-12.703792291880667,-17.82738762833695,-25.596156296464528,7.174988932156642,19.265197865753773,-0.065856765,-0.90197523,0.46179081,1.64808,6.45498,-15.4126,72.0
1774821857.3927248,2.8371810913085938e-05,2026-03-29T22:04:17.392,2026-03-29T18:04:17.392,-31778.46,-50225.13,-85473.18,-50308.65,-15910.154999999999,-20855.07,4508.82,-51160.32,-0.13308234403177333,-6.177789807132629,-8.369395151158365,-8.758790106993313,-13.630719413366213,-18.134054400595755,-0.674014679268308,10.673415587400099,-0.065856765,-0.90197523,0.46179081,1.64808,6.45498,-15.4126,72.0
1774821857.3982124,0.005487680435180664,2026-03-29T22:04:17.398,2026-03-29T18:04:17.398,-31759.289999999997,-50225.85,-85487.805,-50332.814999999995,-15935.805,-20882.204999999998,4504.455,-51138.674999999996,-9.11454055762985,-7.2359556339817415,-4.715974094100124,-2.2304507499964124,-4.943512551921353,-3.8465822547414374,-8.625197926507596,-3.347541943717706,-0.065856765,-0.90197523,0.46179081,1.64808,6.45498,-15.4126,72.0
1774821857.3982391,2.6702880859375e-05,2026-03-29T22:04:17.398,2026-03-29T18:04:17.398,-31779.855,-50230.575,-85487.355,-50335.92,-15940.845,-20886.48,4492.485,-51158.159999999996,-14.035927152862634,-5.26610112567244,0.32541309798777646,3.592924688049202,3.9852151891412935,10.699993802828805,-12.819995226759056,-16.19850120244798,-0.065856765,-0.90197523,0.46179081,1.64808,6.45498,-15.4126,72.0
1774821857.4007232,0.0024840831756591797,2026-03-29T22:04:17.400,2026-03-29T18:04:17.400,-31804.605,-50221.35,-85460.44499999999,-50305.994999999995,-15908.445,-20854.035,4505.76,-51201.27,-12.38174122704077,-0.9628999033861897,4.714823391816817,6.519200654015106,9.69662271417684,19.497098350701446,-11.037085072006546,-21.63775882817596,-0.065856765,-0.90197523,0.46179081,1.64808,6.45498,-15.4126,72.0
1774821857.40075,2.6702880859375e-05,2026-03-29T22:04:17.400,2026-03-29T18:04:17.400,-31797.855,-50210.955,-85447.395,-50297.49,-15902.369999999999,-20847.825,4509.9,-51209.145,-4.73906139299464,3.9243796931562462,6.91734261654105,6.223061427541807,10.800585524695828,19.533405020589218,-3.853145322718093,-16.82168016993038,-0.065856765,-0.90197523,0.46179081,1.64808,6.45498,-15.4126,72.0
1774821857.4048464,0.004096508026123047,2026-03-29T22:04:17.404,2026-03-29T18:04:17.404,-31791.914999999997,-50193.81,-85425.25499999999,-50277.735,-15885.359999999999,-20834.46,4493.88,-51224.625,5.393280525334428,7.294172174508151,6.38850326959092,3.9266899051019695,8.050747067451578,11.706128742422266,5.510370598834906,-3.785184855545354,-0.057189795,-0.899472795,0.46136356500000003,-0.71722,7.05012,-10.26998,72.0
1774821857.4048667,2.0265579223632812e-05,2026-03-29T22:04:17.404,2026-03-29T18:04:17.404,-31774.905,-50186.025,-85426.29,-50283.405,-15899.265,-20880.765,4500.179999999999,-51205.77,13.218785305713496,7.604903879134448,3.6228215823254,1.3567506487461223,3.443951572187854,0.005943610969895818,12.636905062508754,11.406985446604953,-0.057189795,-0.899472795,0.46136356500000003,-0.71722,7.05012,-10.26998,72.0
1774821857.408785,0.00391840934753418,2026-03-29T22:04:17.408,2026-03-29T18:04:17.408,-31753.89,-50191.83,-85447.89,-50314.59,-15946.289999999999,-20974.5,4496.535,-51155.28,14.9304922502755,4.597019540802789,-0.16900988830340447,-0.32681619090653985,-0.9954131607313952,-10.470770915355367,14.007087779994603,21.491295020855908,-0.057189795,-0.899472795,0.46136356500000003,-0.71722,7.05012,-10.26998,72.0
1774821857.408814,2.8848648071289062e-05,2026-03-29T22:04:17.408,2026-03-29T18:04:17.408,-31787.28,-50218.335,-85460.76,-50327.909999999996,-15963.48,-20970.18,4493.835,-51147.854999999996,9.572891647073424,-0.5213695498997524,-3.57098819321669,-1.0234271284537169,-4.0676845289131895,-15.711644863048289,8.738569270459337,21.49307895313131,-0.057189795,-0.899472795,0.46136356500000003,-0.71722,7.05012,-10.26998,72.0
1774821857.414983,0.00616908073425293,2026-03-29T22:04:17.414,2026-03-29T18:04:17.414,-31832.82,-50237.505,-85465.935,-50330.205,-15968.295,-20937.555,4475.745,-51186.42,-0.4369677596315212,-5.547552003030572,-5.455751745102482,-1.4134865700676957,-5.549363975006625,-14.257693975079444,-0.8881016098314767,11.188913494889553,-0.057189795,-0.899472795,0.46136356500000003,-0.71722,7.05012,-10.26998,72.0
1774821857.4150064,2.3365020751953125e-05,2026-03-29T22:04:17.415,2026-03-29T18:04:17.415,-31821.84,-50245.02,-85491.9,-50352.255,-15982.154999999999,-20925.45,4493.295,-51183.585,-10.409176091776176,-8.237881327648227,-5.3108658807936,-2.1957804892817427,-5.767716143185725,-7.455475088345038,-10.418029635990626,-4.679818692290147,-0.057189795,-0.899472795,0.46136356500000003,-0.71722,7.05012,-10.26998,72.0
1774821857.4172423,0.002235889434814453,2026-03-29T22:04:17.417,2026-03-29T18:04:17.417,-31814.954999999998,-50243.715,-85500.405,-50366.295,-16004.789999999999,-20992.005,4507.74,-51185.97,-15.596913241276027,-7.326256193864446,-3.33263159389176,-3.3959730975550073,-5.031656130921723,1.4377644687249092,-15.296914877670426,-18.596716466975664,-0.057189795,-0.899472795,0.46136356500000003,-0.71722,7.05012,-10.26998,72.0
1774821857.4172647,2.2411346435546875e-05,2026-03-29T22:04:17.417,2026-03-29T18:04:17.417,-31821.885,-50250.24,-85510.935,-50411.744999999995,-16067.835,-21064.32,4403.385,-51225.255,-13.47296884700965,-3.1367495784886366,-0.30023913822864057,-4.220479836438177,-3.3538836716474854,8.77446133400963,-13.060290744376703,-23.848790572416167,-0.057189795,-0.899472795,0.46136356500000003,-0.71722,7.05012,-10.26998,72.0
1774821857.4214587,0.004194021224975586,2026-03-29T22:04:17.421,2026-03-29T18:04:17.421,-31804.92,-50228.145,-85487.44499999999,-50402.07,-16038.404999999999,-20956.274999999998,4358.835,-51253.064999999995,-4.967021512391179,2.5135394691066724,2.70664189531079,-3.564961335422787,-0.6298859848870579,11.972132309227485,-4.578640425240057,-17.781085776307545,-0.057189795,-0.899472795,0.46136356500000003,-0.71722,7.05012,-10.26998,72.0
1774821857.4214904,3.170967102050781e-05,2026-03-29T22:04:17.421,2026-03-29T18:04:17.421,-31778.414999999997,-50206.634999999995,-85472.415,-50359.68,-15967.08,-20854.665,4449.78,-51227.369999999995,5.945097549204346,7.104523128854845,4.659501705866258,-0.8615316096469436,2.9114559670218023,10.347735569065874,6.271774747805707,-3.141068057138786,-0.057189795,-0.899472795,0.46136356500000003,-0.71722,7.05012,-10.26998,72.0
1774821857.4250855,0.003595113754272461,2026-03-29T22:04:17.425,2026-03-29T18:04:17.425,-31753.89,-50194.935,-85453.69499999999,-50313.33,-15927.974999999999,-20847.825,4545.675,-51175.89,14.116844462259385,8.551367436699536,4.907090395890895,3.285179360820586,6.379845089618763,5.106470946788323,14.39439536354377,13.169954436719513,-0.051940785,-0.896298975,0.461119425,-3.15882,9.33912,-9.354379999999999,72.0
1774821857.4251063,2.0742416381835938e-05,2026-03-29T22:04:17.425,2026-03-29T18:04:17.425,-31725.315,-50168.25,-85407.705,-50225.58,-15828.39,-20796.255,4562.099999999999,-51137.505,15.678414907589197,6.16958333085871,3.386321312779337,7.127722816795296,8.352200585172529,-1.377119495078565,15.885864472094715,23.369315698328553,-0.051940785,-0.896298975,0.461119425,-3.15882,9.33912,-9.354379999999999,72.0
1774821857.4288473,0.003741025924682617,2026-03-29T22:04:17.428,2026-03-29T18:04:17.428,-31730.085,-50179.814999999995,-85407.165,-50198.534999999996,-15776.82,-20767.23,4554.405,-51115.409999999996,9.882855500226702,1.0114472202725184,0.6503672411020551,8.551508878515506,7.5011389071322485,-6.60183084250427,9.925574170750854,22.52836201379883,-0.051940785,-0.896298975,0.461119425,-3.15882,9.33912,-9.354379999999999,72.0
1774821857.4288774,3.0040740966796875e-05,2026-03-29T22:04:17.428,2026-03-29T18:04:17.428,-31780.754999999997,-50221.89,-85459.68,-50291.729999999996,-15892.74,-20851.785,4532.76,-51139.485,-0.5361641846897982,-4.59673881971106,-2.3086200558894263,6.2317478187002475,3.4214047371403766,-8.866011149979347,-0.7803722836730305,10.966812233463221,-0.051940785,-0.896298975,0.461119425,-3.15882,9.33912,-9.354379999999999,72.0
1774821857.4358313,0.0069539546966552734,2026-03-29T22:04:17.435,2026-03-29T18:04:17.435,-31815.989999999998,-50239.89,-85494.33,-50366.07,-15979.365,-20901.915,4507.65,-51194.52,-10.666410429923825,-8.11360780903759,-4.400186830797798,0.543320570202923,-2.8359658837634014,-7.756514373676711,-11.239032025949232,-5.863933369695105,-0.051940785,-0.896298975,0.461119425,-3.15882,9.33912,-9.354379999999999,72.0
1774821857.435852,2.0742416381835938e-05,2026-03-29T22:04:17.435,2026-03-29T18:04:17.435,-31823.73,-50234.625,-85484.47499999999,-50361.705,-15978.42,-20908.079999999998,4479.255,-51230.159999999996,-15.752734758565238,-7.9505172165515114,-4.832538570963367,-6.32971486724411,-8.918895827733262,-4.0968966849278505,-16.521638406268686,-19.96928087188031,-0.051940785,-0.896298975,0.461119425,-3.15882,9.33912,-9.354379999999999,72.0
1774821857.435871,1.8835067749023438e-05,2026-03-29T22:04:17.435,2026-03-29T18:04:17.435,-31805.145,-50231.159999999996,-85480.47,-50336.055,-15941.744999999999,-20884.59,4486.455,-51210.765,-13.446465758753446,-4.2035499863975945,-3.4220087367633294,-11.248460304911257,-12.074771547994782,0.5327712077939029,-14.108464913613842,-24.63400385880676,-0.051940785,-0.896298975,0.461119425,-3.15882,9.33912,-9.354379999999999,72.0
1774821857.435877,6.198883056640625e-06,2026-03-29T22:04:17.435,2026-03-29T18:04:17.435,-31787.414999999997,-50221.17,-85460.04,-50287.994999999995,-15872.535,-20807.684999999998,4533.885,-51185.835,-4.896445008157694,1.3941425279519686,-0.6874343913544348,-11.59169848222707,-10.437898890842478,4.457282042503992,-5.101331124608454,-17.63862397701695,-0.051940785,-0.896298975,0.461119425,-3.15882,9.33912,-9.354379999999999,72.0
1774821857.4413333,0.005456209182739258,2026-03-29T22:04:17.441,2026-03-29T18:04:17.441,-31784.579999999998,-50213.205,-85448.295,-50280.119999999995,-15869.519999999999,-20817.315,4563.855,-51180.03,5.82789220248704,6.278244911868577,2.3252975798872564,-6.63915911384003,-4.083510352231377,6.482629242004226,6.285320440378114,-2.3189935478404906,-0.051940785,-0.896298975,0.461119425,-3.15882,9.33912,-9.354379999999999,72.0
1774821857.4413686,3.528594970703125e-05,2026-03-29T22:04:17.441,2026-03-29T18:04:17.441,-31774.68,-50206.95,-85456.62,-50303.115,-15900.3,-20838.015,4526.28,-51185.295,13.689286420245987,8.239724900616059,4.437296580141949,1.8569611077284593,4.727627926922511,6.203467142805236,14.71757908494255,14.039139794193567,-0.051940785,-0.896298975,0.461119425,-3.15882,9.33912,-9.354379999999999,72.0
1774821857.4577975,0.01642894744873047,2026-03-29T22:04:17.457,2026-03-29T18:04:17.457,-31786.559999999998,-50222.97,-85476.105,-50326.02,-15930.675,-20882.385,4500.179999999999,-51191.82,15.066586389756331,6.436722428561195,4.8025325488067585,10.27633138608106,12.338960012012034,3.9919807072034725,16.26722087669711,23.69117585712941,-0.05566392,-0.9012428100000001,0.455748345,-1.6022999999999998,8.43878,-10.666739999999999,72.0
1774821857.4578128,1.52587890625e-05,2026-03-29T22:04:17.457,2026-03-29T18:04:17.457,-31804.02,-50240.025,-85486.815,-50332.994999999995,-15944.039999999999,-20922.344999999998,4531.139999999999,-51199.2,9.433268075532672,1.7623295759058557,3.257902830130783,14.707237370716694,15.249195502985307,0.7432823531942607,10.260874114027626,22.12476475023539,-0.05566392,-0.9012428100000001,0.455748345,-1.6022999999999998,8.43878,-10.666739999999999,72.0
1774821857.457827,1.430511474609375e-05,2026-03-29T22:04:17.457,2026-03-29T18:04:17.457,-31781.07,-50230.979999999996,-85489.065,-50349.555,-15967.98,-20937.6,4492.035,-51190.829999999994,-0.4521198930131992,-3.5949924965501356,0.40702826670021347,12.792586793061872,11.749479857868998,-2.4792983692840336,-0.4267295490547174,10.179355517974914,-0.05566392,-0.9012428100000001,0.455748345,-1.6022999999999998,8.43878,-10.666739999999999,72.0
1774821857.4578319,4.76837158203125e-06,2026-03-29T22:04:17.457,2026-03-29T18:04:17.457,-31783.59,-50219.595,-85468.545,-50337.765,-15960.869999999999,-20908.44,4466.205,-51201.54,-9.905375777939904,-7.181905611800118,-2.6082387298998593,4.963579462921129,2.871838044272095,-4.760258435309155,-10.763900102742848,-6.406894616241154,-0.05566392,-0.9012428100000001,0.455748345,-1.6022999999999998,8.43878,-10.666739999999999,72.0
1774821857.457837,5.245208740234375e-06,2026-03-29T22:04:17.457,2026-03-29T18:04:17.457,-31801.004999999997,-50212.305,-85445.86499999999,-50312.25,-15933.465,-20865.69,4484.5199999999995,-51227.549999999996,-14.551670247683381,-7.412660859069295,-4.564756055466421,-5.57451649439623,-7.856060639866177,-5.529783269941681,-15.9576497717293,-19.77762046511637,-0.05566392,-0.9012428100000001,0.455748345,-1.6022999999999998,8.43878,-10.666739999999999,72.0
1774821857.4578412,4.0531158447265625e-06,2026-03-29T22:04:17.457,2026-03-29T18:04:17.457,-31800.555,-50211.494999999995,-85451.895,-50307.39,-15918.119999999999,-20847.6,4504.275,-51249.42,-12.36247724829888,-4.276296171521477,-4.659898759053754,-14.171672925789032,-15.825123128943982,-4.6371182194465295,-13.700820650886754,-23.7073454957084,-0.05566392,-0.9012428100000001,0.455748345,-1.6022999999999998,8.43878,-10.666739999999999,72.0
1774821857.4578464,5.245208740234375e-06,2026-03-29T22:04:17.457,2026-03-29T18:04:17.457,-31759.605,-50191.29,-85454.81999999999,-50321.97,-15931.664999999999,-20853.315,4518.179999999999,-51213.329999999994,-4.540519936018681,0.6992731318808064,-2.8495592645555683,-16.816977128535623,-17.353188215530608,-2.3392208672275676,-5.205224067596379,-16.516294298212944,-0.05566392,-0.9012428100000001,0.455748345,-1.6022999999999998,8.43878,-10.666739999999999,72.0
1774821857.4578505,4.0531158447265625e-06,2026-03-29T22:04:17.457,2026-03-29T18:04:17.457,-31770.989999999998,-50208.39,-85471.965,-50359.59,-15973.019999999999,-20886.48,4513.995,-51183.0,5.13221006071749,5.190953049578403,0.12332353794001115,-12.03004672340712,-11.400906267758993,0.7559451062941205,5.446161473242575,-1.7777781943278523,-0.05566392,-0.9012428100000001,0.455748345,-1.6022999999999998,8.43878,-10.666739999999999,72.0
1774821857.4613712,0.0035207271575927734,2026-03-29T22:04:17.461,2026-03-29T18:04:17.461,-31798.89,-50233.005,-85483.98,-50353.74,-15956.369999999999,-20875.635,4516.11,-51185.564999999995,12.132874989122392,7.168997826476842,3.0286065152833026,-1.6619215769159055,-0.19251562266593686,3.786424219907636,13.283076826702075,13.474040449380581,-0.05566392,-0.9012428100000001,0.455748345,-1.6022999999999998,8.43878,-10.666739999999999,72.0
1774821857.4613993,2.8133392333984375e-05,2026-03-29T22:04:17.461,2026-03-29T18:04:17.461,-31808.25,-50238.81,-85486.635,-50333.22,-15935.4,-20881.8,4520.745,-51198.93,13.324212483027821,5.817919653296179,4.65787015837973,9.815951170470422,11.602095728452746,5.80049189066991,14.794194387616894,22.12969615366668,-0.05566392,-0.9012428100000001,0.455748345,-1.6022999999999998,8.43878,-10.666739999999999,72.0
1774821857.4649324,0.0035331249237060547,2026-03-29T22:04:17.464,2026-03-29T18:04:17.464,-31800.645,-50218.695,-85457.16,-50289.84,-15898.005,-20864.7,4515.885,-51206.174999999996,8.363962859169341,1.8704743652315434,4.3319823140806974,17.262959066830017,18.828451972910912,6.008330702206397,9.515404999039133,20.340083154350605,-0.06188949,-0.902768685,0.449888985,-1.49548,9.5375,-11.155059999999999,72.0
1774821857.4649525,2.002716064453125e-05,2026-03-29T22:04:17.464,2026-03-29T18:04:17.464,-31783.545,-50209.695,-85461.61499999999,-50307.93,-15915.779999999999,-20871.63,4507.65,-51215.49,-0.2369018857339978,-2.779992411724671,2.1925792448777965,17.19963048757675,18.121889054637254,4.08609512682253,0.13432243647005318,9.226322510026169,-0.06188949,-0.902768685,0.449888985,-1.49548,9.5375,-11.155059999999999,72.0
1774821857.4687457,0.0037932395935058594,2026-03-29T22:04:17.468,2026-03-29T18:04:17.468,-31786.829999999998,-50217.57,-85476.33,-50327.46,-15936.3,-20892.51,4496.535,-51242.445,-8.385057768517155,-5.986246614616164,-0.8505009660265649,9.450281148383466,9.484674380433031,0.4217331039950793,-8.885072861908093,-5.794827942813216,-0.06188949,-0.902768685,0.449888985,-1.49548,9.5375,-11.155059999999999,72.0
1774821857.4687684,2.2649765014648438e-05,2026-03-29T22:04:17.468,2026-03-29T18:04:17.468,-31771.125,-50209.335,-85467.645,-50310.045,-15921.404999999999,-20882.204999999998,4474.08,-51229.979999999996,-12.361158779057591,-6.3384727832477825,-3.5002313780853926,-2.682564020001334,-3.5749694285528797,-3.8489905179939594,-13.450834534904356,-17.675297002916373,-0.06188949,-0.902768685,0.449888985,-1.49548,9.5375,-11.155059999999999,72.0
1774821857.4756851,0.00691676139831543,2026-03-29T22:04:17.475,2026-03-29T18:04:17.475,-31779.495,-50213.295,-85466.11499999999,-50307.93,-15917.894999999999,-20875.5,4486.05,-51208.335,-10.52279846516799,-3.782534586703391,-4.625193133266995,-13.834380843852193,-15.465781238371045,-7.12537125420665,-11.719339010543262,-21.068003818074587,-0.06188949,-0.902768685,0.449888985,-1.49548,9.5375,-11.155059999999999,72.0
1774821857.475714,2.8848648071289062e-05,2026-03-29T22:04:17.475,2026-03-29T18:04:17.475,-31769.28,-50206.455,-85457.79,-50304.869999999995,-15907.949999999999,-20855.88,4519.53,-51182.009999999995,-3.9724038891460633,0.4044323461676113,-3.749323913333111,-18.974664312914687,-20.92306072129489,-7.920182771750798,-4.8295716709067245,-14.739323877500144,-0.06188949,-0.902768685,0.449888985,-1.49548,9.5375,-11.155059999999999,72.0
1774821857.4784932,0.002779245376586914,2026-03-29T22:04:17.478,2026-03-29T18:04:17.478,-31739.94,-50181.345,-85447.53,-50325.165,-15933.96,-20846.88,4532.445,-51179.085,4.075043182121833,4.246275623952807,-1.2645025991050212,-15.703344784672655,-17.361613543598992,-5.5396546973215,3.7913266211561063,-1.9704208933172849,-0.06188949,-0.902768685,0.449888985,-1.49548,9.5375,-11.155059999999999,72.0
1774821857.4785151,2.193450927734375e-05,2026-03-29T22:04:17.478,2026-03-29T18:04:17.478,-31744.215,-50193.765,-85469.265,-50362.965,-15991.47,-20911.905,4508.55,-51173.189999999995,9.871762804424085,5.996511972390647,1.7334447238347093,-5.389060370603045,-6.113210510414169,-0.5547810375282478,10.146117532136673,11.152297114393265,-0.06188949,-0.902768685,0.449888985,-1.49548,9.5375,-11.155059999999999,72.0
1774821857.4865055,0.007990360260009766,2026-03-29T22:04:17.486,2026-03-29T18:04:17.486,-31759.965,-50219.729999999996,-85495.905,-50376.015,-16013.564999999999,-20985.795,4488.3,-51158.34,10.887084362896385,4.928530320674347,3.92201062284914,7.3969124578912755,8.047480037215028,5.222781526685118,11.541907479342361,18.663523453564146,-0.06188949,-0.902768685,0.449888985,-1.49548,9.5375,-11.155059999999999,72.0
1774821857.4865255,2.002716064453125e-05,2026-03-29T22:04:17.486,2026-03-29T18:04:17.486,-31777.739999999998,-50245.244999999995,-85510.98,-50353.83,-15978.689999999999,-20967.84,4469.715,-51156.765,6.908604129981011,1.6319420191861989,4.33804409315289,16.920654916958476,18.933827556454958,9.359685156536854,7.732078287868696,17.443301849656798,-0.06188949,-0.902768685,0.449888985,-1.49548,9.5375,-11.155059999999999,72.0
1774821857.4865448,1.9311904907226562e-05,2026-03-29T22:04:17.486,2026-03-29T18:04:17.486,-31820.489999999998,-50238.854999999996,-85474.53,-50299.02,-15907.455,-20874.6,4480.245,-51213.78,0.01801706612221436,-2.3022591255141727,2.812451093804269,18.884002725043853,21.6712473317145,9.828843848098368,0.8413047467730295,8.489083094544903,-0.069518865,-0.89648208,0.44628792,-6.165039999999999,11.17032,-9.018659999999999,72.0
1774821857.4865515,6.67572021484375e-06,2026-03-29T22:04:17.486,2026-03-29T18:04:17.486,-31809.6,-50200.515,-85425.12,-50264.189999999995,-15867.18,-20810.204999999998,4496.67,-51246.945,-6.488066219416515,-5.042936498348666,0.0529639289178702,12.393133284820047,14.907422989941091,6.013255243422558,-5.8007999741950504,-3.7692018038459874,-0.069518865,-0.89648208,0.44628792,-6.165039999999999,11.17032,-9.018659999999999,72.0
1774821857.4890177,0.0024662017822265625,2026-03-29T22:04:17.489,2026-03-29T18:04:17.489,-31789.17,-50175.314999999995,-85397.355,-50252.805,-15864.615,-20809.215,4524.885,-51244.29,-9.676609693357385,-5.36478828209836,-2.671912275735447,0.38379540244227134,1.4956749393871611,-0.8142024177580071,-9.28425985562489,-13.678397180290656,-0.069518865,-0.89648208,0.44628792,-6.165039999999999,11.17032,-9.018659999999999,72.0
1774821857.4890463,2.86102294921875e-05,2026-03-29T22:04:17.489,2026-03-29T18:04:17.489,-31803.75,-50204.25,-85433.12999999999,-50296.095,-15907.32,-20863.35,4499.91,-51244.74,-8.29956669845376,-3.191286442551285,-4.112450757415099,-11.706909758323471,-12.699269445371774,-7.852232108688414,-8.401704695042811,-16.98600456946383,-0.069518865,-0.89648208,0.44628792,-6.165039999999999,11.17032,-9.018659999999999,72.0
1774821857.4979281,0.008881807327270508,2026-03-29T22:04:17.497,2026-03-29T18:04:17.497,-31821.795,-50228.64,-85463.73,-50314.229999999996,-15912.269999999999,-20863.395,4493.925,-51249.509999999995,-3.2637910357436626,0.4031976361956915,-3.618006225928078,-18.42180051582252,-21.379548846655403,-11.914384504123584,-4.02026017330648,-12.652937881243119,-0.069518865,-0.89648208,0.44628792,-6.165039999999999,11.17032,-9.018659999999999,72.0
1774821857.497952,2.384185791015625e-05,2026-03-29T22:04:17.497,2026-03-29T18:04:17.497,-31812.57,-50229.54,-85467.51,-50312.43,-15913.8,-20859.434999999998,4500.0,-51231.465,2.916367040792253,3.717429121997376,-1.445726627416755,-16.777655898524046,-20.63839576336362,-10.892945154124938,1.542175878563593,-3.0896886151203264,-0.069518865,-0.89648208,0.44628792,-6.165039999999999,11.17032,-9.018659999999999,72.0
1774821857.49797,1.811981201171875e-05,2026-03-29T22:04:17.497,2026-03-29T18:04:17.497,-31783.14,-50209.244999999995,-85447.44,-50291.64,-15896.925,-20846.295,4528.71,-51201.45,7.369369302298403,5.220741697816097,1.3553891693561666,-7.618875214059185,-10.75118765683507,-4.862457335592811,5.738395897896838,7.170347830605552,-0.069518865,-0.89648208,0.44628792,-6.165039999999999,11.17032,-9.018659999999999,72.0
1774821857.4979768,6.67572021484375e-06,2026-03-29T22:04:17.497,2026-03-29T18:04:17.497,-31780.71,-50205.825,-85456.75499999999,-50313.825,-15920.91,-20859.795,4515.03,-51203.025,8.200011711711198,4.253681174670574,3.440258198937537,4.796415260723342,3.902316524993373,3.7578456390957538,6.969166968118024,13.636245053700637,-0.069518865,-0.89648208,0.44628792,-6.165039999999999,11.17032,-9.018659999999999,72.0
1774821857.5015843,0.003607511520385742,2026-03-29T22:04:17.501,2026-03-29T18:04:17.501,-31765.815,-50200.65,-85461.39,-50324.4,-15933.51,-20871.63,4494.6449999999995,-51197.895,5.287442180382186,1.314275603184327,3.81366635262389,14.782516270308617,16.780338180720268,11.156635013983166,5.167080147683034,13.821825414592318,-0.069518865,-0.89648208,0.44628792,-6.165039999999999,11.17032,-9.018659999999999,72.0
1774821857.5016205,3.62396240234375e-05,2026-03-29T22:04:17.501,2026-03-29T18:04:17.501,-31768.559999999998,-50211.54,-85464.22499999999,-50316.525,-15922.664999999999,-20865.015,4502.88,-51203.655,0.21655961258303794,-2.1927937753658124,2.316051871916344,17.8555626450634,22.12471547344291,13.834409636091038,1.5890330610725452,8.150092226024086,-0.069518865,-0.89648208,0.44628792,-6.165039999999999,11.17032,-9.018659999999999,72.0
1774821857.5057023,0.00408172607421875,2026-03-29T22:04:17.505,2026-03-29T18:04:17.505,-31766.715,-50226.165,-85489.605,-50339.025,-15944.13,-20889.719999999998,4487.445,-51204.915,-4.566169123053254,-4.620228544651923,-0.29279636083023236,12.778879166638255,17.57255321332235,10.288935305010645,-1.971567183369509,-0.49736468642129633,-0.07922343,-0.8862282,0.44506722,-13.6577,11.71968,-8.942359999999999,72.0
1774821857.5057318,2.956390380859375e-05,2026-03-29T22:04:17.505,2026-03-29T18:04:17.505,-31763.07,-50212.215,-85484.925,-50349.825,-15961.5,-20908.755,4476.375,-51210.0,-6.92982953270729,-4.8449190441986705,-2.7030371091544008,2.0764963212288112,5.232416834653277,1.8574477215326397,-4.0866166997190145,-8.248703405993236,-0.07922343,-0.8862282,0.44506722,-13.6577,11.71968,-8.942359999999999,72.0
1774821857.5088851,0.0031533241271972656,2026-03-29T22:04:17.508,2026-03-29T18:04:17.508,-31797.0,-50212.35,-85471.83,-50346.045,-15970.005,-20936.024999999998,4456.71,-51230.564999999995,-6.0041635420287784,-2.7838694938810167,-3.7040031160839284,-9.207433676260502,-9.280096706927282,-7.754847683525368,-4.254166277255852,-11.977835673560222,-0.07922343,-0.8862282,0.44506722,-13.6577,11.71968,-8.942359999999999,72.0
1774821857.5089018,1.6689300537109375e-05,2026-03-29T22:04:17.508,2026-03-29T18:04:17.508,-31843.44,-50249.744999999995,-85511.87999999999,-50393.744999999995,-16016.939999999999,-20978.864999999998,4455.72,-51255.99,-2.4758386733592053,0.5762146984146401,-2.7944888293742935,-15.898887449842624,-19.41208060613765,-14.114426547869291,-2.904910448884312,-10.529255723180619,-0.07922343,-0.8862282,0.44506722,-13.6577,11.71968,-8.942359999999999,72.0
1774821857.513082,0.004180192947387695,2026-03-29T22:04:17.513,2026-03-29T18:04:17.513,-31819.004999999997,-50248.17,-85527.765,-50425.92,-16052.894999999999,-20991.059999999998,4460.04,-51250.545,1.8502909489059203,3.6461866325765886,-0.44497042729871666,-15.095107855635845,-20.66596756574327,-14.136550131849301,-0.959681198018199,-4.973397069013151,-0.07922343,-0.8862282,0.44506722,-13.6577,11.71968,-8.942359999999999,72.0
1774821857.5131168,3.4809112548828125e-05,2026-03-29T22:04:17.513,2026-03-29T18:04:17.513,-31781.835,-50201.055,-85468.36499999999,-50361.93,-15998.085,-20950.829999999998,4510.9349999999995,-51231.78,4.965045397672656,4.98007639319583,2.1301795934539665,-7.448912780027988,-12.632590168287173,-7.611867611655902,0.7393368806983419,2.0870407265313164,-0.07922343,-0.8862282,0.44506722,-13.6577,11.71968,-8.942359999999999,72.0
1774821857.5168028,0.0036859512329101562,2026-03-29T22:04:17.516,2026-03-29T18:04:17.516,-31792.454999999998,-50198.939999999995,-85450.59,-50310.674999999996,-15931.619999999999,-20886.57,4536.855,-51233.04,5.584983446573856,3.952170066124753,3.5865323849239394,3.2445508721041354,0.8719102640752187,2.5859200000897076,1.7908280539837318,7.739639834125977,-0.07922343,-0.8862282,0.44506722,-13.6577,11.71968,-8.942359999999999,72.0
1774821857.5168176,1.4781951904296875e-05,2026-03-29T22:04:17.516,2026-03-29T18:04:17.516,-31800.375,-50212.439999999995,-85450.545,-50259.195,-15842.699999999999,-20785.995,4523.175,-51242.174999999996,3.669564439264821,1.0500838588843744,3.144043119349955,11.923560999077026,13.616072986134723,11.767877508842945,2.235468973429369,9.93821098576955,-0.07922343,-0.8862282,0.44506722,-13.6577,11.71968,-8.942359999999999,72.0
1774821857.5207624,0.003944873809814453,2026-03-29T22:04:17.520,2026-03-29T18:04:17.520,-31780.079999999998,-50189.085,-85418.73,-50221.619999999995,-15799.545,-20733.3,4540.275,-51234.84,0.3233805169312,-2.3538865561348743,1.005367436424749,14.673088007489987,19.851952520887163,15.612619086357222,2.2849896669998353,8.172656848568202,-0.07922343,-0.8862282,0.44506722,-13.6577,11.71968,-8.942359999999999,72.0
1774821857.520792,2.956390380859375e-05,2026-03-29T22:04:17.520,2026-03-29T18:04:17.520,-31791.42,-50200.965,-85438.8,-50260.049999999996,-15848.685,-20783.204999999998,4547.205,-51234.165,-2.8161128969801954,-4.647886391430624,-1.727067540268458,10.51639135412367,16.942817401988442,12.23489381064532,2.026665204423805,3.45944924614733,-0.07922343,-0.8862282,0.44506722,-13.6577,11.71968,-8.942359999999999,72.0
1774821857.5297697,0.008977651596069336,2026-03-29T22:04:17.529,2026-03-29T18:04:17.529,-31803.12,-50227.29,-85479.84,-50316.119999999995,-15911.055,-20848.545,4510.26,-51234.704999999994,-4.375092715588031,-4.740998656920777,-3.6070348101101373,1.7526519417606785,6.501455201444491,3.133763274172617,1.3348186981442993,-2.2225226346118414,-0.089538345,-0.885190605,0.43920786,-18.90714,9.12548,-7.73682,72.0
1774821857.5297854,1.5735626220703125e-05,2026-03-29T22:04:17.529,2026-03-29T18:04:17.529,-31799.835,-50230.665,-85489.47,-50330.744999999995,-15929.955,-20869.875,4520.429999999999,-51238.53,-3.838602469651084,-2.5814432418117863,-3.5975855532956276,-7.272072794808294,-6.464419791327432,-7.466036444742818,0.051694328516163617,-6.745298930274488,-0.089538345,-0.885190605,0.43920786,-18.90714,9.12548,-7.73682,72.0
1774821857.529803,1.7642974853515625e-05,2026-03-29T22:04:17.529,2026-03-29T18:04:17.529,-31787.504999999997,-50220.99,-85484.025,-50329.799999999996,-15931.8,-20874.6,4517.01,-51239.79,-1.6895746564601466,0.8140547643540754,-1.6328373975130936,-12.317637767771535,-15.959527820821602,-14.592848679792803,-1.7077396094114303,-8.570737512367929,-0.089538345,-0.885190605,0.43920786,-18.90714,9.12548,-7.73682,72.0
1774821857.5298102,7.152557373046875e-06,2026-03-29T22:04:17.529,2026-03-29T18:04:17.529,-31785.39,-50209.695,-85465.98,-50317.155,-15924.869999999999,-20868.03,4512.915,-51248.159999999996,0.9250573170417163,3.8373494740901806,1.3130797375510694,-11.259374956444795,-17.799803207735106,-14.890817971971986,-3.381777645768405,-7.1953238057911815,-0.089538345,-0.885190605,0.43920786,-18.90714,9.12548,-7.73682,72.0
1774821857.533286,0.0034759044647216797,2026-03-29T22:04:17.533,2026-03-29T18:04:17.533,-31788.315,-50209.92,-85460.22,-50312.655,-15921.945,-20865.555,4511.429999999999,-51242.895,2.794675730644809,5.049938230248798,3.703384820428855,-4.99325196132069,-11.482784802625467,-8.22877140653452,-4.10857857229918,-3.2253062787943505,-0.089538345,-0.885190605,0.43920786,-18.90714,9.12548,-7.73682,72.0
1774821857.5333152,2.9087066650390625e-05,2026-03-29T22:04:17.533,2026-03-29T18:04:17.533,-31783.32,-50217.479999999996,-85477.545,-50330.88,-15939.09,-20883.735,4500.045,-51226.604999999996,3.2020723543022984,3.868200537726503,4.230702300678804,3.1546276326365166,-0.2803110330124901,2.229030826392417,-3.1772147349615674,1.8787720820746414,-0.089538345,-0.885190605,0.43920786,-18.90714,9.12548,-7.73682,72.0
1774821857.53847,0.005154848098754883,2026-03-29T22:04:17.538,2026-03-29T18:04:17.538,-31789.664999999997,-50215.545,-85473.94499999999,-50325.345,-15937.92,-20903.805,4505.13,-51228.27,2.1824163186255325,0.8455582078484496,2.518518323941294,9.163380972716924,10.43313864766029,11.532888344225203,-0.5445436394005327,6.287386654843101,-0.089538345,-0.885190605,0.43920786,-18.90714,9.12548,-7.73682,72.0
1774821857.5384989,2.8848648071289062e-05,2026-03-29T22:04:17.538,2026-03-29T18:04:17.538,-31801.004999999997,-50214.24,-85463.86499999999,-50312.835,-15927.885,-20898.719999999998,4502.97,-51244.56,0.3999570844841593,-2.586230259571449,-0.6403099391496184,10.301909912979962,15.76936933209173,15.312927826895217,2.9161121724132846,8.390165644587144,-0.089538345,-0.885190605,0.43920786,-18.90714,9.12548,-7.73682,72.0
1774821857.5409226,0.0024237632751464844,2026-03-29T22:04:17.540,2026-03-29T18:04:17.540,-31780.98,-50212.439999999995,-85476.825,-50330.159999999996,-15943.365,-20906.19,4495.724999999999,-51235.424999999996,-1.249345649088633,-4.796670119895552,-3.650765706661465,6.381432834173953,13.579164809872283,11.857627411465552,5.661166339753941,7.3419007295164365,-0.089538345,-0.885190605,0.43920786,-18.90714,9.12548,-7.73682,72.0
1774821857.5409405,1.7881393432617188e-05,2026-03-29T22:04:17.540,2026-03-29T18:04:17.540,-31762.8,-50214.465,-85488.56999999999,-50348.924999999996,-15965.55,-20936.34,4493.429999999999,-51211.079999999994,-2.08321019063693,-4.734117540350459,-4.918876132639314,-0.30421865304308476,5.319388098843836,2.904453974344084,6.177243298138685,3.407253784252263,-0.089538345,-0.885190605,0.43920786,-18.90714,9.12548,-7.73682,72.0
1774821857.545584,0.004643440246582031,2026-03-29T22:04:17.545,2026-03-29T18:04:17.545,-31776.074999999997,-50220.36,-85490.19,-50353.155,-15968.385,-20935.395,4494.69,-51219.18,-1.9069379759479566,-2.4289652213159663,-3.686811004965828,-6.2580156183985896,-4.816342533585905,-7.22947936485381,3.8122741807551304,-2.0399968142949803,-0.097106685,-0.89684829,0.435118515,-18.34252,6.7143999999999995,-4.48644,72.0
1774821857.5456064,2.2411346435546875e-05,2026-03-29T22:04:17.545,2026-03-29T18:04:17.545,-31776.12,-50198.265,-85462.155,-50334.705,-15952.14,-20903.219999999998,4479.4349999999995,-51251.715,-1.0103494620032556,1.0202430204453838,-0.464856632495448,-8.585546935453923,-12.013133289965344,-13.741720990593707,-0.7172029599516849,-6.92968562708429,-0.097106685,-0.89684829,0.435118515,-18.34252,6.7143999999999995,-4.48644,72.0
1774821857.5488598,0.003253459930419922,2026-03-29T22:04:17.548,2026-03-29T18:04:17.548,-31762.305,-50165.595,-85428.855,-50316.795,-15945.029999999999,-20892.735,4482.585,-51279.345,0.06556864435302899,3.9725000388741654,3.1795712009665666,-6.4020790674064925,-13.132636536925103,-13.640135475452785,-5.480327125875601,-9.24146562744648,-0.097106685,-0.89684829,0.435118515,-18.34252,6.7143999999999995,-4.48644,72.0
1774821857.5488887,2.8848648071289062e-05,2026-03-29T22:04:17.548,2026-03-29T18:04:17.548,-31753.62,-50176.17,-85450.185,-50343.84,-15983.055,-20935.8,4478.804999999999,-51261.345,0.8369949370733851,5.0296795191495285,5.389329006086559,-1.1557212493697921,-8.090420128786791,-7.1322762545617815,-8.160585030774032,-7.839995823683887,-0.097106685,-0.89684829,0.435118515,-18.34252,6.7143999999999995,-4.48644,72.0
1774821857.5533197,0.004431009292602539,2026-03-29T22:04:17.553,2026-03-29T18:04:17.553,-31784.805,-50193.99,-85445.81999999999,-50327.955,-15975.945,-20947.32,4427.054999999999,-51274.395,1.091119491447746,3.7035732126634198,4.963349392331896,4.243847909474185,0.2962161914914685,2.5435271374756305,-7.20026699213551,-3.0531859954419995,-0.097106685,-0.89684829,0.435118515,-18.34252,6.7143999999999995,-4.48644,72.0
1774821857.5533404,2.0742416381835938e-05,2026-03-29T22:04:17.553,2026-03-29T18:04:17.553,-31803.84,-50217.795,-85460.44499999999,-50305.994999999995,-15930.675,-20897.28,4422.69,-51252.075,0.912759637814154,0.6437784820420005,1.9987251134317552,6.993749115960361,7.833693945337765,10.732581660137788,-2.68743475255392,3.30995879228329,-0.097106685,-0.89684829,0.435118515,-18.34252,6.7143999999999995,-4.48644,72.0
1774821857.5571735,0.0038330554962158203,2026-03-29T22:04:17.557,2026-03-29T18:04:17.557,-31807.305,-50254.155,-85525.11,-50356.799999999996,-15950.115,-20891.295,4472.505,-51234.615,0.5470943551340114,-2.6815496245667765,-2.110830560205977,5.833213189568818,11.04084564431303,13.61554074770124,3.511957459156965,8.59998938056113,-0.097106685,-0.89684829,0.435118515,-18.34252,6.7143999999999995,-4.48644,72.0
1774821857.557192,1.8596649169921875e-05,2026-03-29T22:04:17.557,2026-03-29T18:04:17.557,-31837.094999999998,-50266.17,-85534.47,-50402.564999999995,-16001.64,-20915.37,4488.75,-51270.615,0.20952366666110897,-4.695046568496576,-5.338839442392728,1.6171586947427574,8.7619636958871,10.000741300749025,8.522562109073164,10.425836464174443,-0.097106685,-0.89684829,0.435118515,-18.34252,6.7143999999999995,-4.48644,72.0
1774821857.565123,0.007930994033813477,2026-03-29T22:04:17.565,2026-03-29T18:04:17.565,-31822.11,-50229.18,-85487.58,-50376.33,-15987.33,-20909.475,4505.94,-51275.835,-0.03309019863150181,-4.464719780434141,-6.032117195550446,-3.2311847121945885,2.553440412438905,1.810237986470074,9.813644509043252,7.75823068687471,-0.097106685,-0.89684829,0.435118515,-18.34252,6.7143999999999995,-4.48644,72.0
1774821857.565205,8.20159912109375e-05,2026-03-29T22:04:17.565,2026-03-29T18:04:17.565,-31796.235,-50198.85,-85443.39,-50302.845,-15900.57,-20849.715,4531.32,-51261.39,-0.24703728296753227,-2.1397298193366288,-3.7563034001798745,-6.061985723415236,-4.267354631414269,-6.9344796112681975,6.491146451494066,1.5170957600740904,-0.097106685,-0.89684829,0.435118515,-18.34252,6.7143999999999995,-4.48644,72.0
1774821857.5652192,1.4066696166992188e-05,2026-03-29T22:04:17.565,2026-03-29T18:04:17.565,-31780.125,-50206.32,-85452.97499999999,-50274.405,-15865.38,-20830.68,4551.165,-51228.18,-0.5131961928394528,1.1386766264283166,0.45161551028351854,-5.409451015940231,-8.362605160620856,-12.093454559868569,-0.13769667889137283,-5.693485099952934,-0.097961175,-0.90551526,0.436705425,-16.60288,5.31048,-3.3266799999999996,72.0
1774821857.565224,4.76837158203125e-06,2026-03-29T22:04:17.565,2026-03-29T18:04:17.565,-31808.655,-50241.6,-85488.93,-50307.615,-15900.885,-20857.59,4518.585,-51253.29,-0.8034706169805597,3.8005071668011388,4.5645205855085935,-1.7332944808265072,-8.001345652059678,-11.375368898099042,-7.065488982458432,-10.662546968695858,-0.097961175,-0.90551526,0.436705425,-16.60288,5.31048,-3.3266799999999996,72.0
1774821857.5709996,0.0057756900787353516,2026-03-29T22:04:17.570,2026-03-29T18:04:17.570,-31794.795,-50219.28,-85464.62999999999,-50310.45,-15916.994999999999,-20857.995,4488.4349999999995,-51269.939999999995,-0.950803088309827,4.605184482972317,6.5526856510408065,2.878018289955924,-3.781280509731494,-5.351569611485476,-10.966602848795349,-11.021089583236764,-0.097961175,-0.90551526,0.436705425,-16.60288,5.31048,-3.3266799999999996,72.0
1774821857.571028,2.8371810913085938e-05,2026-03-29T22:04:17.571,2026-03-29T18:04:17.571,-31783.635,-50194.485,-85441.77,-50295.104999999996,-15899.085,-20830.5,4477.679999999999,-51289.02,-0.7461260870447488,3.225478294553768,5.3914956767380575,5.860743346898532,1.8509417434565925,2.9298532030962092,-9.815932727549097,-6.39891699740895,-0.097961175,-0.90551526,0.436705425,-16.60288,5.31048,-3.3266799999999996,72.0
1774821857.57345,0.0024220943450927734,2026-03-29T22:04:17.573,2026-03-29T18:04:17.573,-31770.495,-50167.259999999995,-85405.36499999999,-50248.575,-15838.92,-20764.35,4520.34,-51282.045,-0.10606452875487732,0.3796268592287702,1.5862295391956291,5.561126925515962,5.962099929669325,9.48860889484801,-3.946076632963597,1.2880412838383481,-0.097961175,-0.90551526,0.436705425,-16.60288,5.31048,-3.3266799999999996,72.0
1774821857.573481,3.0994415283203125e-05,2026-03-29T22:04:17.573,2026-03-29T18:04:17.573,-31762.89,-50182.74,-85431.015,-50268.555,-15855.75,-20788.469999999998,4552.695,-51235.829999999994,0.8020212513907262,-2.5411711873689327,-3.0536518245348794,2.1181904399873446,6.637910891427544,11.330355837062317,4.0112334343897365,8.617451769559239,-0.097961175,-0.90551526,0.436705425,-16.60288,5.31048,-3.3266799999999996,72.0
1774821857.589219,0.01573801040649414,2026-03-29T22:04:17.589,2026-03-29T18:04:17.589,-31788.135,-50233.86,-85494.06,-50331.42,-15924.689999999999,-20870.01,4578.929999999999,-51217.38,1.5777141378137314,-4.157110043340047,-6.286723067435835,-2.6155459615816268,3.8662537327822646,7.810362777760092,10.318000457350445,12.198023963045042,-0.097961175,-0.90551526,0.436705425,-16.60288,5.31048,-3.3266799999999996,72.0
1774821857.5892394,2.0265579223632812e-05,2026-03-29T22:04:17.589,2026-03-29T18:04:17.589,-31814.145,-50243.625,-85497.435,-50340.465,-15938.369999999999,-20885.445,4551.075,-51248.564999999995,1.7676370784770186,-3.7572847248476915,-6.532368696491153,-6.0652123600949235,-0.6064712862637159,0.8228087921728044,11.909485093551812,10.266727313326289,-0.097961175,-0.90551526,0.436705425,-16.60288,5.31048,-3.3266799999999996,72.0
1774821857.5892558,1.6450881958007812e-05,2026-03-29T22:04:17.589,2026-03-29T18:04:17.589,-31808.969999999998,-50226.795,-85476.735,-50322.42,-15921.494999999999,-20870.145,4533.345,-51261.255,1.1250793837260995,-1.6144119715091414,-3.6468460036872723,-6.309234161446794,-4.3054029138745795,-6.214627659049864,7.9016244757256455,3.5798677254506597,-0.097961175,-0.90551526,0.436705425,-16.60288,5.31048,-3.3266799999999996,72.0
1774821857.5892632,7.3909759521484375e-06,2026-03-29T22:04:17.589,2026-03-29T18:04:17.589,-31794.344999999998,-50221.71,-85477.23,-50328.045,-15930.494999999999,-20882.07,4515.345,-51259.905,-0.19723909789543795,1.1833439346560282,0.9996958206792276,-3.1141850831712943,-5.3599735307723995,-10.03783026109486,0.07650643461429597,-4.862029018001034,-0.097961175,-0.90551526,0.436705425,-16.60288,5.31048,-3.3266799999999996,72.0
1774821857.589272,8.821487426757812e-06,2026-03-29T22:04:17.589,2026-03-29T18:04:17.589,-31789.62,-50217.84,-85474.44,-50327.505,-15932.295,-20885.579999999998,4508.46,-51262.604999999996,-1.6496326105642058,3.285014633353588,5.183737157520639,1.9157185498559177,-3.4345824023538474,-9.048577739429723,-7.918172330174015,-11.168303855024252,-0.09680151000000001,-0.915952245,0.438414405,-8.71346,4.4254,-2.1364,72.0
1774821857.5892792,7.152557373046875e-06,2026-03-29T22:04:17.589,2026-03-29T18:04:17.589,-31802.445,-50215.005,-85462.605,-50313.825,-15916.68,-20868.93,4514.804999999999,-51283.395,-2.5144497555167296,3.7328760004929213,6.903143848027552,6.156537577667565,0.20063256247240052,-3.9616043601979114,-12.291443126741592,-12.37588788304415,-0.09680151000000001,-0.915952245,0.438414405,-8.71346,4.4254,-2.1364,72.0
1774821857.5956962,0.006417036056518555,2026-03-29T22:04:17.595,2026-03-29T18:04:17.595,-31799.34,-50213.34,-85466.205,-50319.854999999996,-15923.744999999999,-20873.88,4511.7,-51280.695,-2.2657823920545406,2.401519250864693,5.341720669134104,7.328499067174571,3.4464333911502703,2.663727992064073,-10.928916942552597,-7.869202015844186,-0.09680151000000001,-0.915952245,0.438414405,-8.71346,4.4254,-2.1364,72.0
1774821857.5957153,1.9073486328125e-05,2026-03-29T22:04:17.595,2026-03-29T18:04:17.595,-31800.6,-50226.165,-85485.51,-50341.32,-15949.71,-20912.805,4484.295,-51265.215,-0.8772945772266154,0.017631447197972053,1.2562473619729309,4.699639482745363,4.54528933186819,7.7172597089382915,-4.425741522401149,0.2910824232126977,-0.09680151000000001,-0.915952245,0.438414405,-8.71346,4.4254,-2.1364,72.0
1774821857.5957372,2.193450927734375e-05,2026-03-29T22:04:17.595,2026-03-29T18:04:17.595,-31777.739999999998,-50226.615,-85499.55,-50359.77,-15973.199999999999,-20948.579999999998,4467.42,-51239.34,1.0975189869003186,-2.230124895518161,-3.396686643435504,-0.4974385916227172,3.0087515780076757,9.00045564481899,4.176927734550457,8.311176931075378,-0.09680151000000001,-0.915952245,0.438414405,-8.71346,4.4254,-2.1364,72.0
1774821857.595744,6.67572021484375e-06,2026-03-29T22:04:17.595,2026-03-29T18:04:17.595,-31759.695,-50221.395,-85499.64,-50367.465,-15985.17,-20955.645,4466.25,-51223.814999999995,2.7429291016168222,-3.283675808738043,-6.406580802378944,-5.660167795749937,-0.179240783421506,6.168339181308965,10.833067151643215,12.446557078792937,-0.09680151000000001,-0.915952245,0.438414405,-8.71346,4.4254,-2.1364,72.0
1774821857.5994627,0.003718852996826172,2026-03-29T22:04:17.599,2026-03-29T18:04:17.599,-31788.855,-50208.57,-85464.54,-50325.57,-15942.914999999999,-20920.77,4480.155,-51263.28,3.2124603638863367,-2.71482691231069,-6.366049162038678,-8.12796703963967,-3.160943122986785,0.7551026629142624,12.418094645642357,10.77679852281609,-0.09680151000000001,-0.915952245,0.438414405,-8.71346,4.4254,-2.1364,72.0
1774821857.5994756,1.2874603271484375e-05,2026-03-29T22:04:17.599,2026-03-29T18:04:17.599,-31796.37,-50197.365,-85447.035,-50307.03,-15932.654999999999,-20930.445,4457.97,-51302.204999999994,2.167610240556826,-0.8952334608552645,-3.3306522370389726,-6.547474712289632,-4.254385497100106,-4.6572178870877226,8.21172311691432,4.11895961449229,-0.09680151000000001,-0.915952245,0.438414405,-8.71346,4.4254,-2.1364,72.0
1774821857.605642,0.0061664581298828125,2026-03-29T22:04:17.605,2026-03-29T18:04:17.605,-31764.015,-50191.965,-85455.855,-50320.755,-15949.215,-20933.01,4461.615,-51286.545,-0.005002942193784715,1.2275580054462076,1.2278137774933746,-1.5938764875219895,-2.8744719108332264,-7.677537916596905,0.22575983995012544,-4.364718706603471,-0.09680151000000001,-0.915952245,0.438414405,-8.71346,4.4254,-2.1364,72.0
1774821857.6056657,2.3603439331054688e-05,2026-03-29T22:04:17.605,2026-03-29T18:04:17.605,-31793.625,-50207.49,-85461.345,-50330.384999999995,-15960.869999999999,-20917.62,4500.135,-51284.7,-2.329087129718868,2.6185584866343388,5.140301383477688,4.327711485464024,0.16813221629562938,-7.1546636104845645,-7.772474990478021,-10.678998887844534,-0.09680151000000001,-0.915952245,0.438414405,-8.71346,4.4254,-2.1364,72.0
1774821857.6056836,1.7881393432617188e-05,2026-03-29T22:04:17.605,2026-03-29T18:04:17.605,-31811.579999999998,-50218.38,-85478.44499999999,-50351.67,-15977.925,-20923.065,4505.76,-51271.2,-3.683776731321574,2.6579103735302883,6.577543285616581,8.263219500333287,3.1379263394633705,-3.5804015207344504,-12.060152334745501,-11.899097133188555,-0.09436011,-0.928403385,0.43798716,0.28994,2.50264,0.77826,72.0
1774821857.6056905,6.9141387939453125e-06,2026-03-29T22:04:17.605,2026-03-29T18:04:17.605,-31803.84,-50231.655,-85499.19,-50363.595,-15974.505,-20899.665,4493.25,-51269.625,-3.352263016744001,1.4143366002121203,4.907128959123131,8.188008758754709,4.3459199223669955,1.272055611768214,-10.711243460636279,-7.547951868716779,-0.09436011,-0.928403385,0.43798716,0.28994,2.50264,0.77826,72.0
1774821857.612594,0.006903409957885742,2026-03-29T22:04:17.612,2026-03-29T18:04:17.612,-31813.605,-50243.445,-85500.22499999999,-50345.46,-15936.48,-20859.795,4508.505,-51280.424999999996,-1.4016671890000423,-0.42922015511966105,0.9690096645650303,4.042003034770007,3.0867737069123877,5.236532560236825,-4.466720058981345,0.21170131298168626,-0.09436011,-0.928403385,0.43798716,0.28994,2.50264,0.77826,72.0
1774821857.612617,2.3126602172851562e-05,2026-03-29T22:04:17.612,2026-03-29T18:04:17.612,-31799.879999999997,-50230.665,-85491.045,-50341.634999999995,-15945.93,-20877.21,4519.17,-51261.704999999994,1.3074552481202781,-1.9416539896009635,-3.3479612812467106,-2.2038932114941714,0.031951331213169044,6.7212261374817155,3.673107677590575,7.650944727541545,-0.09436011,-0.928403385,0.43798716,0.28994,2.50264,0.77826,72.0
1774821857.6176176,0.005000591278076172,2026-03-29T22:04:17.617,2026-03-29T18:04:17.617,-31800.96,-50210.775,-85464.315,-50309.775,-15906.33,-20830.995,4530.0599999999995,-51271.02,3.505776767872473,-2.4079534385773274,-6.013608080592303,-7.495660607181564,-3.133186914385141,5.323761915587962,9.909963885637788,11.280628473064088,-0.09436011,-0.928403385,0.43798716,0.28994,2.50264,0.77826,72.0
1774821857.6176505,3.2901763916015625e-05,2026-03-29T22:04:17.617,2026-03-29T18:04:17.617,-31784.039999999997,-50195.52,-85449.51,-50305.905,-15892.244999999999,-20795.355,4522.32,-51273.765,4.1195699696082775,-1.662336239319402,-5.811058778772095,-9.197769683663012,-4.631133068601655,1.870673383825124,11.44169563820201,9.508076729376503,-0.09436011,-0.928403385,0.43798716,0.28994,2.50264,0.77826,72.0
1774821857.6176777,2.7179718017578125e-05,2026-03-29T22:04:17.617,2026-03-29T18:04:17.617,-31774.545,-50196.869999999995,-85468.00499999999,-50353.695,-15947.279999999999,-20843.73,4505.175,-51281.189999999995,2.8024451605158553,-0.13762224711317864,-2.89018657980067,-6.407637776452153,-3.5735855003883854,-2.061962665883865,7.731161141025389,3.3485117156682698,-0.09436011,-0.928403385,0.43798716,0.28994,2.50264,0.77826,72.0
1774821857.61769,1.239776611328125e-05,2026-03-29T22:04:17.617,2026-03-29T18:04:17.617,-31808.16,-50223.915,-85491.855,-50374.215,-15977.744999999999,-20889.765,4466.655,-51320.835,0.12776815130265867,1.3765780891991986,1.329659864907054,-0.4279427340875522,-0.46899613019653763,-4.874477007827359,0.6702933073433166,-4.132505334239623,-0.09436011,-0.928403385,0.43798716,0.28994,2.50264,0.77826,72.0
1774821857.6215007,0.0038106441497802734,2026-03-29T22:04:17.621,2026-03-29T18:04:17.621,-31817.655,-50233.455,-85487.895,-50338.935,-15948.765,-20892.239999999998,4451.67,-51303.329999999994,-2.6640032296545852,2.1344879082870207,4.847625584339037,5.846756609858786,3.0252989154820327,-5.5800375304530005,-6.394750208085664,-9.347030250891288,-0.09436011,-0.928403385,0.43798716,0.28994,2.50264,0.77826,72.0
1774821857.6215389,3.814697265625e-05,2026-03-29T22:04:17.621,2026-03-29T18:04:17.621,-31828.815,-50232.78,-85467.42,-50275.305,-15873.84,-20841.255,4506.974999999999,-51285.06,-4.2501980368004535,1.7931691054748247,6.026745638340912,9.337521413469618,4.98357035068566,-4.10737451315812,-10.271023063475516,-9.91971519440948,-0.09436011,-0.928403385,0.43798716,0.28994,2.50264,0.77826,72.0
1774821857.6256616,0.004122734069824219,2026-03-29T22:04:17.625,2026-03-29T18:04:17.625,-31806.27,-50222.205,-85471.155,-50285.43,-15881.939999999999,-20846.79,4514.085,-51269.22,-3.86270726329407,0.5607345911762495,4.351860299139132,8.295984305030872,4.259487124375571,-1.2054594055453751,-9.376630367871869,-5.784212542256421,-0.09326148000000001,-0.928159245,0.436705425,5.38678,0.16785999999999998,4.715339999999999,72.0
1774821857.6256797,1.811981201171875e-05,2026-03-29T22:04:17.625,2026-03-29T18:04:17.625,-31768.469999999998,-50194.619999999995,-85454.73,-50289.39,-15892.109999999999,-20848.77,4496.8949999999995,-51264.854999999996,-1.6653577988424848,-0.9261481798575644,0.6518960323344296,3.1807485441575425,1.138016906013572,1.9421665842431473,-4.376080431132946,0.8716165551314703,-0.09326148000000001,-0.928159245,0.436705425,5.38678,0.16785999999999998,4.715339999999999,72.0
1774821857.6332462,0.0075664520263671875,2026-03-29T22:04:17.633,2026-03-29T18:04:17.633,-31770.675,-50200.47,-85465.62,-50305.545,-15907.23,-20854.53,4514.985,-51268.545,1.3160367409849492,-1.9245277747712557,-3.3067794352755127,-3.54300037696097,-2.770220890430212,4.194768700381029,2.256395771806137,6.748766975116228,-0.09326148000000001,-0.928159245,0.436705425,5.38678,0.16785999999999998,4.715339999999999,72.0
1774821857.633268,2.193450927734375e-05,2026-03-29T22:04:17.633,2026-03-29T18:04:17.633,-31812.795,-50218.335,-85470.48,-50310.314999999995,-15915.15,-20864.114999999998,4551.255,-51298.56,3.6807774269586733,-1.94621431279658,-5.657187045231484,-8.593023834035323,-5.355762840888933,4.835459760072457,7.476977305648383,9.076045544197754,-0.09326148000000001,-0.928159245,0.436705425,5.38678,0.16785999999999998,4.715339999999999,72.0
1774821857.6332867,1.8596649169921875e-05,2026-03-29T22:04:17.633,2026-03-29T18:04:17.633,-31803.3,-50228.055,-85485.915,-50329.395,-15939.269999999999,-20892.015,4533.885,-51274.979999999996,4.32242809013993,-0.9863123780985319,-5.3051357384076505,-9.473931386952064,-5.135165411324186,3.7492024735824376,9.087706270849335,6.9285565968307194,-0.09326148000000001,-0.928159245,0.436705425,5.38678,0.16785999999999998,4.715339999999999,72.0
1774821857.6332924,5.7220458984375e-06,2026-03-29T22:04:17.633,2026-03-29T18:04:17.633,-31769.28,-50214.509999999995,-85476.735,-50327.369999999995,-15940.17,-20893.454999999998,4516.065,-51246.494999999995,2.955188311455652,0.48291486506766707,-2.4345250307846826,-5.711677141105762,-2.0802565104543707,1.388068453451097,6.660389378284473,1.5931362887167815,-0.09326148000000001,-0.928159245,0.436705425,5.38678,0.16785999999999998,4.715339999999999,72.0
1774821857.642326,0.009033679962158203,2026-03-29T22:04:17.642,2026-03-29T18:04:17.642,-31789.53,-50200.784999999996,-85445.145,-50294.564999999995,-15909.029999999999,-20865.105,4514.58,-51275.07,0.2429783543888053,1.7427516171450912,1.5858752035199921,0.8914243813097682,2.3018415027985712,-1.418927774260057,1.5814714732825257,-4.162275284436849,-0.09326148000000001,-0.928159245,0.436705425,5.38678,0.16785999999999998,4.715339999999999,72.0
1774821857.642345,1.8835067749023438e-05,2026-03-29T22:04:17.642,2026-03-29T18:04:17.642,-31806.585,-50206.59,-85464.0,-50310.72,-15920.189999999999,-20871.719999999998,4510.98,-51302.43,-2.528022418861552,2.170854756059335,4.847182179439575,7.116840343268485,5.707761182222599,-3.7323752934754166,-3.728270927710619,-7.513727980282014,-0.09326148000000001,-0.928159245,0.436705425,5.38678,0.16785999999999998,4.715339999999999,72.0
1774821857.6423633,1.8358230590820312e-05,2026-03-29T22:04:17.642,2026-03-29T18:04:17.642,-31791.87,-50206.634999999995,-85472.64,-50319.854999999996,-15927.21,-20875.815,4513.32,-51292.395,-4.069700084327959,1.5362917572156445,5.796241717188165,9.895364787176643,6.23427292974461,-4.775975572495384,-6.98560262576857,-6.9708722011245685,-0.09326148000000001,-0.928159245,0.436705425,5.38678,0.16785999999999998,4.715339999999999,72.0
1774821857.6423712,7.867813110351562e-06,2026-03-29T22:04:17.642,2026-03-29T18:04:17.642,-31793.805,-50209.965,-85468.31999999999,-50316.795,-15923.789999999999,-20871.27,4520.385,-51288.84,-3.7013057999517645,0.11239879746600812,3.9672219911467055,7.8180280947372776,3.415989220087026,-4.163523483659564,-7.0332831022471805,-3.045409833871646,-0.09326148000000001,-0.928159245,0.436705425,5.38678,0.16785999999999998,4.715339999999999,72.0
1774821857.6455548,0.003183603286743164,2026-03-29T22:04:17.645,2026-03-29T18:04:17.645,-31804.515,-50219.909999999996,-85470.56999999999,-50321.655,-15931.125,-20878.785,4515.165,-51288.21,-1.6545926730283638,-1.4428923288421343,0.20871534434958205,1.8503494184535774,-1.4507240276836384,-2.0329770597859094,-4.214064407241575,2.103840388647337,-0.09082008,-0.91943124,0.436949565,1.9380199999999999,-1.4191799999999999,4.4254,72.0
1774821857.6455708,1.5974044799804688e-05,2026-03-29T22:04:17.645,2026-03-29T18:04:17.645,-31788.989999999998,-50210.415,-85464.765,-50320.35,-15933.195,-20886.795,4503.51,-51283.079999999994,1.0643168971601578,-2.3855183441572048,-3.7029721355036678,-5.110763862473185,-5.899335076124598,0.9558506648546842,-0.03251846390896751,5.830449242471413,-0.09082008,-0.91943124,0.436949565,1.9380199999999999,-1.4191799999999999,4.4254,72.0
1774821857.649052,0.003481149673461914,2026-03-29T22:04:17.649,2026-03-29T18:04:17.649,-31786.245,-50205.555,-85466.385,-50316.75,-15928.199999999999,-20900.43,4499.28,-51292.755,3.1768349209064106,-2.2296712374806114,-5.891057406253737,-9.63577994476623,-7.530962652184098,3.78709510212781,3.650083021196529,6.351562118592446,-0.09082008,-0.91943124,0.436949565,1.9380199999999999,-1.4191799999999999,4.4254,72.0
1774821857.6490707,1.8835067749023438e-05,2026-03-29T22:04:17.649,2026-03-29T18:04:17.649,-31768.92,-50188.32,-85449.95999999999,-50299.02,-15910.47,-20877.704999999998,4485.51,-51288.93,3.744141129751057,-0.9840224006603446,-5.26647719641454,-9.444303473912818,-5.28107677732057,5.402318124551777,5.457207842693519,3.604192552504499,-0.09082008,-0.91943124,0.436949565,1.9380199999999999,-1.4191799999999999,4.4254,72.0
1774821857.6734529,0.02438211441040039,2026-03-29T22:04:17.673,2026-03-29T18:04:17.673,-31743.629999999997,-50181.705,-85452.39,-50302.575,-15912.99,-20877.12,4477.41,-51263.775,2.5915967144451897,0.8292502667821399,-2.0625536877166346,-4.54867114637633,-0.056476504133505974,5.082974286632809,4.988589011659244,-0.8059925363382927,-0.09082008,-0.91943124,0.436949565,1.9380199999999999,-1.4191799999999999,4.4254,72.0
1774821857.673476,2.3126602172851562e-05,2026-03-29T22:04:17.673,2026-03-29T18:04:17.673,-31735.395,-50191.155,-85471.69499999999,-50340.825,-15960.465,-20928.78,4478.8949999999995,-51264.54,0.3498847547699919,2.389028776915551,2.2427930072858704,2.710942453365603,5.6188693259149005,2.76881739287466,2.799837077438357,-4.502747465038245,-0.09082008,-0.91943124,0.436949565,1.9380199999999999,-1.4191799999999999,4.4254,72.0
1774821857.6734948,1.8835067749023438e-05,2026-03-29T22:04:17.673,2026-03-29T18:04:17.673,-31765.454999999998,-50193.405,-85467.555,-50363.28,-15996.689999999999,-20968.785,4465.9349999999995,-51328.305,-1.8881364360833615,2.937581701683743,5.597011798784317,8.776645625802578,8.815611455785778,-0.8305464494077714,-0.02256088142362217,-5.595695051343123,-0.09082008,-0.91943124,0.436949565,1.9380199999999999,-1.4191799999999999,4.4254,72.0
1774821857.673501,6.198883056640625e-06,2026-03-29T22:04:17.673,2026-03-29T18:04:17.673,-31749.614999999998,-50162.04,-85437.9,-50337.314999999995,-15977.564999999999,-20952.225,4452.03,-51322.5,-3.109228830329548,2.1356060100020966,6.336970481608389,10.60448274913092,7.688324884621483,-4.417508893146502,-2.4109249317538266,-3.6396126502325163,-0.09082008,-0.91943124,0.436949565,1.9380199999999999,-1.4191799999999999,4.4254,72.0
1774821857.6735096,8.58306884765625e-06,2026-03-29T22:04:17.673,2026-03-29T18:04:17.673,-31736.699999999997,-50180.534999999996,-85470.56999999999,-50369.13,-16019.595,-21017.745,4456.845,-51263.505,-2.847823247659078,0.24943298926328614,4.000939072777377,7.1795462502861715,2.4932722777243685,-6.556631017512641,-3.7090653808374006,0.18732201841547752,-0.09082008,-0.91943124,0.436949565,1.9380199999999999,-1.4191799999999999,4.4254,72.0
1774821857.6735156,5.9604644775390625e-06,2026-03-29T22:04:17.673,2026-03-29T18:04:17.673,-31800.239999999998,-50224.68,-85494.23999999999,-50388.705,-16046.685,-21039.93,4462.92,-51286.814999999995,-1.359669388332462,-1.9259039450732167,-0.4024634258668531,0.06578036090170439,-4.409539360631227,-6.244426514695627,-3.7699909663375903,3.755674707041492,-0.09082008,-0.91943124,0.436949565,1.9380199999999999,-1.4191799999999999,4.4254,72.0
1774821857.6735232,7.62939453125e-06,2026-03-29T22:04:17.673,2026-03-29T18:04:17.673,-31800.78,-50218.11,-85475.925,-50378.985,-16052.355,-21010.41,4471.92,-51307.155,0.5617497933329513,-3.3927671726856556,-4.818360191313746,-7.301302762650705,-9.624819746557803,-3.372672884134104,-2.809026425297821,5.136448570334848,-0.084777615,-0.915463965,0.43688853,-3.15882,-3.9981199999999997,9.32386,72.0
1774821857.6735291,5.9604644775390625e-06,2026-03-29T22:04:17.673,2026-03-29T18:04:17.673,-31782.78,-50210.055,-85492.665,-50424.345,-16085.34,-21006.045,4465.9349999999995,-51316.11,2.009326486334574,-3.3975718092675717,-7.090555986644465,-11.261603644354578,-10.37749652859375,1.127241760833547,-1.1828597825088236,3.621460327847872,-0.084777615,-0.915463965,0.43688853,-3.15882,-3.9981199999999997,9.32386,72.0
1774821857.6735363,7.152557373046875e-06,2026-03-29T22:04:17.673,2026-03-29T18:04:17.673,-31769.504999999997,-50213.34,-85514.67,-50422.905,-16044.435,-20945.295,4490.01,-51299.28,2.400269582257038,-1.8033999942518903,-5.999350527950347,-9.732072271877334,-5.952798938765577,5.560140178255914,0.7430108263071006,0.0810419168492925,-0.084777615,-0.915463965,0.43688853,-3.15882,-3.9981199999999997,9.32386,72.0
1774821857.673542,5.7220458984375e-06,2026-03-29T22:04:17.673,2026-03-29T18:04:17.673,-31814.864999999998,-50225.939999999995,-85479.03,-50327.64,-15906.689999999999,-20796.39,4576.275,-51293.655,1.712216022565196,0.790093926009135,-1.8990198712401778,-3.282775828949679,1.8130013088105454,8.093997507945755,2.589017595220931,-3.519318654668953,-0.084777615,-0.915463965,0.43688853,-3.15882,-3.9981199999999997,9.32386,72.0
1774821857.6735492,7.152557373046875e-06,2026-03-29T22:04:17.673,2026-03-29T18:04:17.673,-31862.114999999998,-50243.985,-85463.81999999999,-50255.775,-15820.38,-20763.18,4588.605,-51321.465,0.42085181575098624,3.258873772801714,3.371873883044053,5.060633180210642,9.287614727171123,7.509794223359734,3.900593661659353,-5.180877286353594,-0.084777615,-0.915463965,0.43688853,-3.15882,-3.9981199999999997,9.32386,72.0
1774821857.673555,5.7220458984375e-06,2026-03-29T22:04:17.673,2026-03-29T18:04:17.673,-31818.239999999998,-50213.744999999995,-85428.315,-50209.02,-15792.57,-20759.04,4550.04,-51312.375,-0.798441749202779,4.431978311834315,7.302625772882844,11.22798592471744,12.735537320463319,3.7695354355792197,4.170322039695507,-3.9490873426896016,-0.084777615,-0.915463965,0.43688853,-3.15882,-3.9981199999999997,9.32386,72.0
1774821857.6770887,0.0035338401794433594,2026-03-29T22:04:17.677,2026-03-29T18:04:17.677,-31789.035,-50200.83,-85435.37999999999,-50257.979999999996,-15855.525,-20789.954999999998,4518.72,-51303.915,-1.4278882270455808,3.6367998881763137,7.892508414435231,12.074192281010085,10.161190012405463,-1.855277438542115,3.0221426863610503,-0.4376021325028405,-0.084777615,-0.915463965,0.43688853,-3.15882,-3.9981199999999997,9.32386,72.0
1774821857.67711,2.1219253540039062e-05,2026-03-29T22:04:17.677,2026-03-29T18:04:17.677,-31773.105,-50201.955,-85455.045,-50288.4,-15884.279999999999,-20815.065,4465.08,-51304.545,-1.333403981380611,1.062668236220677,4.65221317022265,6.9602937394859685,2.4016486649741573,-7.191324951019852,0.49771325393122884,3.4802022050363166,-0.084777615,-0.915463965,0.43688853,-3.15882,-3.9981199999999997,9.32386,72.0
1774821857.6813557,0.004245758056640625,2026-03-29T22:04:17.681,2026-03-29T18:04:17.681,-31774.364999999998,-50214.555,-85477.455,-50302.935,-15892.109999999999,-20827.71,4490.19,-51296.715,-0.7576114518992995,-2.246727628127691,-1.0704134052758179,-1.840115497075644,-7.108155966065362,-9.987442621178777,-2.7386992495954523,5.655909452511095,-0.084777615,-0.915463965,0.43688853,-3.15882,-3.9981199999999997,9.32386,72.0
1774821857.6813843,2.86102294921875e-05,2026-03-29T22:04:17.681,2026-03-29T18:04:17.681,-31815.539999999997,-50226.57,-85466.97,-50276.115,-15854.49,-20782.44,4546.035,-51322.5,-0.11359271636321572,-4.80514969062669,-6.637371211034152,-10.146788076648706,-13.854231162307345,-8.849352505997327,-5.475533599644996,4.815108038649894,-0.084777615,-0.915463965,0.43688853,-3.15882,-3.9981199999999997,9.32386,72.0
1774821857.6853645,0.003980159759521484,2026-03-29T22:04:17.685,2026-03-29T18:04:17.685,-31799.61,-50211.36,-85459.31999999999,-50279.4,-15862.545,-20794.094999999998,4535.1449999999995,-51319.755,0.28048435109712105,-5.344121759413991,-9.326146283455824,-13.84808174448063,-14.374829396444007,-3.9044370018816923,-6.382606851623743,1.2672138750086677,-0.080261025,-0.917050875,0.438902685,-3.4945399999999998,-5.15788,10.9872,72.0
1774821857.6853807,1.621246337890625e-05,2026-03-29T22:04:17.685,2026-03-29T18:04:17.685,-31773.195,-50215.14,-85493.295,-50337.854999999996,-15934.095,-20870.505,4471.0199999999995,-51319.215,0.36568543357360506,-3.4319348269060623,-7.647801406095976,-10.916078120130773,-8.002002267875316,3.1081092964999453,-4.6561004630806515,-3.206452329962942,-0.080261025,-0.917050875,0.438902685,-3.4945399999999998,-5.15788,10.9872,72.0
1774821857.6891909,0.0038101673126220703,2026-03-29T22:04:17.689,2026-03-29T18:04:17.689,-31774.815,-50207.445,-85481.81999999999,-50333.354999999996,-15935.265,-20873.969999999998,4465.9349999999995,-51337.395,0.3182376533627386,0.24721805709751746,-2.144286682101439,-2.4814084308520705,2.6498465589758573,9.416409243208468,-0.5673279761515932,-6.246437718767014,-0.080261025,-0.917050875,0.438902685,-3.4945399999999998,-5.15788,10.9872,72.0
1774821857.6892128,2.193450927734375e-05,2026-03-29T22:04:17.689,2026-03-29T18:04:17.689,-31809.914999999997,-50229.0,-85494.19499999999,-50347.845,-15959.295,-20907.0,4507.425,-51348.195,0.3696971804807061,4.118545254159151,4.752939609467644,7.589133870483382,12.749770879610873,12.288222036354156,4.4212273781524205,-6.1426694782619204,-0.080261025,-0.917050875,0.438902685,-3.4945399999999998,-5.15788,10.9872,72.0
1774821857.6934764,0.004263639450073242,2026-03-29T22:04:17.693,2026-03-29T18:04:17.693,-31835.295,-50235.03,-85487.4,-50331.104999999996,-15942.555,-20894.219999999998,4534.0199999999995,-51344.325,0.5997549917046433,6.384580251621233,9.789541133009772,14.461954399323131,17.439064362210384,10.194287164507765,8.138313476037332,-2.76390589779743,-0.080261025,-0.917050875,0.438902685,-3.4945399999999998,-5.15788,10.9872,72.0
1774821857.6934967,2.0265579223632812e-05,2026-03-29T22:04:17.693,2026-03-29T18:04:17.693,-31801.59,-50204.7,-85454.45999999999,-50290.155,-15897.15,-20860.155,4551.345,-51310.845,0.8454464933227104,5.855923931864233,10.41639132225811,14.644640867318845,14.152029797211808,3.57819850075187,8.65041727000774,2.3039737398202256,-0.080261025,-0.917050875,0.438902685,-3.4945399999999998,-5.15788,10.9872,72.0
1774821857.69705,0.0035533905029296875,2026-03-29T22:04:17.697,2026-03-29T18:04:17.697,-31778.91,-50192.909999999996,-85444.37999999999,-50279.625,-15889.005,-20865.51,4557.285,-51292.845,0.7963635940771698,2.5621868366595506,6.064287746212471,7.734811747794028,3.9665038213074957,-5.138485023379664,5.259056860075166,6.508326167617934,-0.080261025,-0.917050875,0.438902685,-3.4945399999999998,-5.15788,10.9872,72.0
1774821857.6970708,2.0742416381835938e-05,2026-03-29T22:04:17.697,2026-03-29T18:04:17.697,-31776.66,-50191.695,-85448.25,-50289.615,-15899.76,-20861.64,4529.7,-51303.06,0.22516583580952892,-2.166546453608578,-1.467204014748561,-3.2567927786623,-8.708416111060844,-12.401791020706373,-0.9626369649809774,7.611146559324783,-0.080261025,-0.917050875,0.438902685,-3.4945399999999998,-5.15788,10.9872,72.0
1774821857.70303,0.005959272384643555,2026-03-29T22:04:17.703,2026-03-29T18:04:17.703,-31769.64,-50185.665,-85450.05,-50297.354999999996,-15906.644999999999,-20857.995,4507.83,-51308.505,-0.7920401227474458,-6.228683668203146,-8.744564192243228,-13.218287947144953,-18.041849873701807,-14.94972074400113,-7.4423705762959695,4.860386970647631,-0.080261025,-0.917050875,0.438902685,-3.4945399999999998,-5.15788,10.9872,72.0
1774821857.7030473,1.71661376953125e-05,2026-03-29T22:04:17.703,2026-03-29T18:04:17.703,-31755.96,-50173.965,-85441.23,-50292.81,-15907.68,-20863.98,4515.345,-51309.18,-1.8207934435062092,-7.685033922819766,-12.264404449868374,-17.312259942841603,-19.460832864118423,-11.259191947774214,-11.166641561537869,-0.5537019571935988,-0.080261025,-0.917050875,0.438902685,-3.4945399999999998,-5.15788,10.9872,72.0
1774821857.705262,0.002214670181274414,2026-03-29T22:04:17.705,2026-03-29T18:04:17.705,-31777.379999999997,-50201.235,-85473.765,-50337.54,-15967.98,-20946.105,4501.26,-51324.299999999996,-2.2473267762022897,-5.682576498193829,-10.13469784013346,-13.311323954403868,-11.869733942481293,-2.3831657549357117,-10.092191280446864,-6.016899255064019,-0.07470684,-0.9154029300000001,0.43359264000000003,-2.8078399999999997,-5.81406,11.155059999999999,72.0
1774821857.7052772,1.52587890625e-05,2026-03-29T22:04:17.705,2026-03-29T18:04:17.705,-31789.17,-50215.86,-85496.355,-50374.034999999996,-16004.43,-20979.585,4521.0599999999995,-51314.13,-1.6209439789944478,-0.9279484735979653,-3.0673428903351923,-2.770375044215386,1.6601526359087209,8.25952402110587,-4.245126969148635,-8.75668225789987,-0.07470684,-0.9154029300000001,0.43359264000000003,-2.8078399999999997,-5.81406,11.155059999999999,72.0
1774821857.7071142,0.001837015151977539,2026-03-29T22:04:17.707,2026-03-29T18:04:17.707,-31777.379999999997,-50213.295,-85509.315,-50396.67,-16033.095,-21016.079999999998,4506.3,-51298.829999999994,0.023753139308125056,4.544373419602826,5.831085744998838,9.56844173966427,15.1268996752317,16.163493119596023,4.0756259980672995,-7.241411639815085,-0.07470684,-0.9154029300000001,0.43359264000000003,-2.8078399999999997,-5.81406,11.155059999999999,72.0
1774821857.7071283,1.4066696166992188e-05,2026-03-29T22:04:17.707,2026-03-29T18:04:17.707,-31742.774999999998,-50190.119999999995,-85484.97,-50363.1,-16004.744999999999,-21020.67,4479.525,-51285.284999999996,2.0652815567800356,8.24405591321858,12.427775018074234,17.915851111484894,22.266528665316073,17.629318335713855,11.184715849949786,-2.0106933074590954,-0.07470684,-0.9154029300000001,0.43359264000000003,-2.8078399999999997,-5.81406,11.155059999999999,72.0
1774821857.714815,0.007686614990234375,2026-03-29T22:04:17.714,2026-03-29T18:04:17.714,-31734.315,-50184.72,-85469.895,-50335.92,-15982.875,-20995.515,4502.655,-51280.335,3.5156453045430482,8.362719844271073,13.48741600845594,18.151888949111054,19.46512418393325,11.483763053890776,13.65469868065777,4.50321627171849,-0.07470684,-0.9154029300000001,0.43359264000000003,-2.8078399999999997,-5.81406,11.155059999999999,72.0
1774821857.7148345,1.9550323486328125e-05,2026-03-29T22:04:17.714,2026-03-29T18:04:17.714,-31787.01,-50208.975,-85479.61499999999,-50351.895,-15991.244999999999,-20955.555,4515.929999999999,-51320.115,3.492772429530776,4.654961092837804,8.25290575724252,9.84301165338028,7.56071138160522,-0.16740904550143484,9.978965581500722,9.111666856518964,-0.07470684,-0.9154029300000001,0.43359264000000003,-2.8078399999999997,-5.81406,11.155059999999999,72.0
1774821857.7174628,0.002628326416015625,2026-03-29T22:04:17.717,2026-03-29T18:04:17.717,-31827.015,-50230.619999999995,-85496.985,-50380.74,-15996.869999999999,-20887.829999999998,4490.865,-51361.604999999996,1.7210961940370113,-1.36667662461079,-1.0885973201149022,-3.4228177276218372,-8.354495215845613,-12.593647313001414,1.4415555173315135,9.430745709790456,-0.07470684,-0.9154029300000001,0.43359264000000003,-2.8078399999999997,-5.81406,11.155059999999999,72.0
1774821857.7174797,1.6927719116210938e-05,2026-03-29T22:04:17.717,2026-03-29T18:04:17.717,-31803.93,-50226.615,-85488.39,-50351.805,-15957.359999999999,-20848.005,4478.445,-51344.369999999995,-1.2121992185521888,-7.048926006057613,-10.321940336647266,-15.595311500098662,-21.120440985603746,-20.34086750651525,-8.291754418010733,5.103533814346727,-0.07470684,-0.9154029300000001,0.43359264000000003,-2.8078399999999997,-5.81406,11.155059999999999,72.0
1774821857.721182,0.003702402114868164,2026-03-29T22:04:17.721,2026-03-29T18:04:17.721,-31807.844999999998,-50234.58,-85484.79,-50305.5,-15895.17,-20810.204999999998,4503.0599999999995,-51338.61,-4.021996138337941,-9.775426307983125,-15.11812907346702,-20.933788373946133,-24.74285545448978,-19.62862570154802,-14.755382959683926,-1.938142780829246,-0.07470684,-0.9154029300000001,0.43359264000000003,-2.8078399999999997,-5.81406,11.155059999999999,72.0
1774821857.7212036,2.1457672119140625e-05,2026-03-29T22:04:17.721,2026-03-29T18:04:17.721,-31813.739999999998,-50216.04,-85463.64,-50267.52,-15849.18,-20772.0,4526.55,-51337.979999999996,-5.283958530059726,-8.177591174348999,-13.071046360712954,-16.715914672970243,-17.208326513671455,-10.18913485787953,-14.752598116738609,-8.338181600444845,-0.07470684,-0.9154029300000001,0.43359264000000003,-2.8078399999999997,-5.81406,11.155059999999999,72.0
1774821857.727614,0.006410360336303711,2026-03-29T22:04:17.727,2026-03-29T18:04:17.727,-31772.16,-50194.845,-85463.775,-50284.799999999996,-15874.74,-20808.945,4490.55,-51323.265,-4.146130705133164,-2.8144928160931095,-4.8937929794060295,-4.602982023229313,-1.5571990234434119,4.34596913408288,-7.943379107809979,-10.91945062599958,-0.069274725,-0.918637785,0.42773328,-2.65524,-7.08064,14.756419999999999,72.0
1774821857.7276306,1.6689300537109375e-05,2026-03-29T22:04:17.727,2026-03-29T18:04:17.727,-31769.594999999998,-50200.11,-85468.815,-50303.25,-15896.07,-20829.51,4467.0599999999995,-51331.725,-0.8416959777873775,4.014377924184058,5.817848103416888,10.01619162339682,15.343573653697948,17.81006217595131,2.840488445688049,-8.258967506718925,-0.069274725,-0.918637785,0.42773328,-2.65524,-7.08064,14.756419999999999,72.0
1774821857.7276459,1.52587890625e-05,2026-03-29T22:04:17.727,2026-03-29T18:04:17.727,-31770.449999999997,-50195.34,-85470.20999999999,-50307.119999999995,-15899.894999999999,-20836.035,4501.17,-51344.145,3.2870867603898755,9.265430008861838,14.1834789324146,20.443441032489286,25.833783721489006,24.125827815423143,12.772984566062576,-1.4556269228166867,-0.069274725,-0.918637785,0.42773328,-2.65524,-7.08064,14.756419999999999,72.0
1774821857.7276511,5.245208740234375e-06,2026-03-29T22:04:17.727,2026-03-29T18:04:17.727,-31762.17,-50187.555,-85463.73,-50300.1,-15897.465,-20840.625,4547.205,-51335.145,6.324278528631584,10.519378555876884,16.279458910796915,21.75710919840318,24.95105412586036,20.07078647074957,17.214833832806352,6.316829581712305,-0.069274725,-0.918637785,0.42773328,-2.65524,-7.08064,14.756419999999999,72.0
1774821857.7334917,0.0058405399322509766,2026-03-29T22:04:17.733,2026-03-29T18:04:17.733,-31781.969999999998,-50202.945,-85474.75499999999,-50318.82,-15920.414999999999,-20859.84,4563.72,-51322.814999999995,6.66654923297375,7.100164888875766,10.985011269797393,13.13539689319348,12.779381545668409,6.914624279972911,13.902353833287915,11.293649199306811,-0.069274725,-0.918637785,0.42773328,-2.65524,-7.08064,14.756419999999999,72.0
1774821857.7335255,3.3855438232421875e-05,2026-03-29T22:04:17.733,2026-03-29T18:04:17.733,-31788.27,-50218.92,-85500.405,-50359.59,-15976.619999999999,-20929.14,4514.804999999999,-51312.329999999994,3.851407700525187,0.4239090474859688,0.5600732562625127,-1.6817213774003288,-5.459054197017695,-9.904036983993791,4.101374931292746,10.94507654929412,-0.069274725,-0.918637785,0.42773328,-2.65524,-7.08064,14.756419999999999,72.0
1774821857.7373521,0.003826618194580078,2026-03-29T22:04:17.737,2026-03-29T18:04:17.737,-31804.02,-50229.945,-85507.11,-50363.64,-15987.42,-20953.53,4456.98,-51338.384999999995,-1.0937913698373807,-6.597539002410864,-10.336921349398862,-16.03807570763209,-21.66620730361772,-23.032062293958166,-7.862428129491475,5.258474203608456,-0.069274725,-0.918637785,0.42773328,-2.65524,-7.08064,14.756419999999999,72.0
1774821857.7373824,3.0279159545898438e-05,2026-03-29T22:04:17.737,2026-03-29T18:04:17.737,-31780.035,-50232.33,-85524.705,-50367.509999999995,-15970.41,-20919.285,4481.1449999999995,-51322.59,-6.003808820619295,-10.84202152519852,-16.75616400067523,-23.38016137698927,-28.49578454142226,-26.452733733502864,-16.530695644363572,-3.1711503771030807,-0.069274725,-0.918637785,0.42773328,-2.65524,-7.08064,14.756419999999999,72.0
1774821857.7457342,0.008351802825927734,2026-03-29T22:04:17.745,2026-03-29T18:04:17.745,-31761.719999999998,-50212.395,-85497.705,-50332.59,-15930.269999999999,-20876.805,4528.845,-51325.155,-8.521158394698539,-10.376097523948136,-15.722952540126022,-20.266674747398792,-22.70659579465124,-18.27921343833138,-17.830057000491855,-10.325452170286905,-0.069274725,-0.918637785,0.42773328,-2.65524,-7.08064,14.756419999999999,72.0
1774821857.745756,2.1696090698242188e-05,2026-03-29T22:04:17.745,2026-03-29T18:04:17.745,-31812.164999999997,-50195.52,-85442.84999999999,-50273.505,-15879.779999999999,-20830.905,4529.655,-51398.145,-7.2236072082590415,-5.33494392983689,-7.616076179698717,-7.97713582592857,-6.698842878034543,-1.7751126781466116,-11.006388279194944,-12.681857905946783,-0.069274725,-0.918637785,0.42773328,-2.65524,-7.08064,14.756419999999999,72.0
1774821857.7457743,1.8358230590820312e-05,2026-03-29T22:04:17.745,2026-03-29T18:04:17.745,-31816.485,-50201.505,-85455.765,-50287.814999999995,-15888.24,-20829.015,4496.13,-51393.195,-2.3959290036825163,2.117662402089997,3.982115215241744,8.032555854968376,12.496754439199814,15.946031095307248,0.9520493347851273,-8.949894930101566,-0.06292708500000001,-0.922055745,0.43279918500000003,-1.9227599999999998,-5.2646999999999995,15.717799999999999,72.0
1774821857.7457807,6.4373016357421875e-06,2026-03-29T22:04:17.745,2026-03-29T18:04:17.745,-31791.329999999998,-50201.909999999996,-85461.165,-50295.869999999995,-15890.76,-20823.48,4527.99,-51329.655,3.961792372326683,8.735084754678581,13.898165437693905,20.587594958682725,26.345346449989076,27.028820354092105,12.63494542721118,-0.7684862747090382,-0.06292708500000001,-0.922055745,0.43279918500000003,-1.9227599999999998,-5.2646999999999995,15.717799999999999,72.0
1774821857.7496245,0.0038437843322753906,2026-03-29T22:04:17.749,2026-03-29T18:04:17.749,-31785.12,-50202.765,-85457.565,-50297.85,-15900.75,-20846.745,4564.304999999999,-51298.064999999995,8.95576388349905,11.617258795851455,17.7026975055549,24.041825717736415,28.642633792784807,26.414825293818563,18.685007158553148,8.008489991556948,-0.06292708500000001,-0.922055745,0.43279918500000003,-1.9227599999999998,-5.2646999999999995,15.717799999999999,72.0
1774821857.7496517,2.7179718017578125e-05,2026-03-29T22:04:17.749,2026-03-29T18:04:17.749,-31800.78,-50218.47,-85479.435,-50325.345,-15939.494999999999,-20913.48,4517.82,-51324.57,10.116242920524561,9.486626056895176,13.700518134987963,16.829811658457007,18.31580638130586,14.190248334616728,16.282897262805573,13.130053126843759,-0.06292708500000001,-0.922055745,0.43279918500000003,-1.9227599999999998,-5.2646999999999995,15.717799999999999,72.0
1774821857.753612,0.003960371017456055,2026-03-29T22:04:17.753,2026-03-29T18:04:17.753,-31792.635,-50222.205,-85497.97499999999,-50348.744999999995,-15971.31,-20942.055,4470.4349999999995,-51343.02,6.6110295842368005,3.246304799193311,3.674924648857927,2.162337329744896,-0.08562238577011998,-4.367955566321074,6.476389774763049,12.011212675830333,-0.06292708500000001,-0.922055745,0.43279918500000003,-1.9227599999999998,-5.2646999999999995,15.717799999999999,72.0
1774821857.7536387,2.6702880859375e-05,2026-03-29T22:04:17.753,2026-03-29T18:04:17.753,-31784.715,-50213.475,-85491.045,-50344.515,-15975.404999999999,-20954.655,4486.995,-51336.09,-0.23868904803353852,-4.419657449769184,-7.936096539480367,-13.438754849173527,-18.431700654836057,-21.110382499654122,-6.2799696686480315,5.038460181129407,-0.06292708500000001,-0.922055745,0.43279918500000003,-1.9227599999999998,-5.2646999999999995,15.717799999999999,72.0
1774821857.7708273,0.017188549041748047,2026-03-29T22:04:17.770,2026-03-29T18:04:17.770,-31780.98,-50212.979999999996,-85500.765,-50358.689999999995,-15992.595,-20967.57,4467.78,-51333.479999999996,-7.4373680419979555,-10.218451131408173,-16.037992366045046,-23.082169646585545,-28.654222971877825,-28.662169388205253,-16.171105083964875,-4.5418427907184,-0.06292708500000001,-0.922055745,0.43279918500000003,-1.9227599999999998,-5.2646999999999995,15.717799999999999,72.0
1774821857.7708535,2.6226043701171875e-05,2026-03-29T22:04:17.770,2026-03-29T18:04:17.770,-31796.414999999997,-50234.715,-85530.915,-50411.025,-16047.675,-21002.805,4448.07,-51344.685,-11.626054510970413,-11.672068517084718,-17.13614758202208,-22.578774067081202,-26.33410343135222,-23.734139573349683,-18.703242782241627,-12.13513141555306,-0.06292708500000001,-0.922055745,0.43279918500000003,-1.9227599999999998,-5.2646999999999995,15.717799999999999,72.0
1774821857.7708807,2.7179718017578125e-05,2026-03-29T22:04:17.770,2026-03-29T18:04:17.770,-31809.015,-50243.265,-85543.56,-50447.835,-16072.109999999999,-20994.57,4420.08,-51371.055,-10.651214539770828,-8.171942120570142,-10.840395384960443,-12.260052525827959,-12.619072524474696,-8.579644922692154,-12.770319077047798,-14.006712282499446,-0.06292708500000001,-0.922055745,0.43279918500000003,-1.9227599999999998,-5.2646999999999995,15.717799999999999,72.0
1774821857.7708924,1.1682510375976562e-05,2026-03-29T22:04:17.770,2026-03-29T18:04:17.770,-31795.875,-50209.47,-85494.645,-50402.7,-16028.73,-20936.34,4438.845,-51384.195,-4.657727306593948,-1.217942061988381,0.02925164383958157,3.2464725420729486,6.365996579822892,10.063047054047122,-1.143245779883975,-9.123145677933788,-0.06292708500000001,-0.922055745,0.43279918500000003,-1.9227599999999998,-5.2646999999999995,15.717799999999999,72.0
1774821857.7709067,1.430511474609375e-05,2026-03-29T22:04:17.770,2026-03-29T18:04:17.770,-31788.765,-50181.39,-85429.53,-50278.59,-15885.9,-20801.34,4551.705,-51357.645,3.8436461788974206,6.243232654371846,10.741022192986957,17.137472321190696,22.307041104089592,24.036895271663433,10.837531502351878,0.28303021802597705,-0.06561262500000001,-0.9130836,0.433531605,-7.996239999999999,-4.39488,14.054459999999999,72.0
1774821857.7709167,1.0013580322265625e-05,2026-03-29T22:04:17.770,2026-03-29T18:04:17.770,-31801.41,-50199.03,-85438.665,-50238.09,-15826.68,-20756.745,4567.86,-51355.215,11.025315302002104,11.078801374060596,16.739650137370113,23.457719207581317,28.394279137210127,27.41368876628773,17.74350722973191,9.731432100549622,-0.06561262500000001,-0.9130836,0.433531605,-7.996239999999999,-4.39488,14.054459999999999,72.0
1774821857.770929,1.239776611328125e-05,2026-03-29T22:04:17.770,2026-03-29T18:04:17.770,-31756.905,-50175.674999999996,-85439.47499999999,-50251.59,-15846.66,-20788.92,4509.54,-51355.89,13.471703728643723,11.283980254165241,15.58862130709622,19.664391275759847,22.254707836890027,19.05329159623469,16.547752107468604,14.632166964264622,-0.06561262500000001,-0.9130836,0.433531605,-7.996239999999999,-4.39488,14.054459999999999,72.0
1774821857.7709389,9.775161743164062e-06,2026-03-29T22:04:17.770,2026-03-29T18:04:17.770,-31740.48,-50163.39,-85440.915,-50282.1,-15894.045,-20853.27,4477.59,-51358.905,9.804306563268032,6.798912914887062,7.935520238007853,7.621274667464494,6.847847824735195,2.9451216879846958,7.967123256688274,12.521975185422587,-0.06561262500000001,-0.9130836,0.433531605,-7.996239999999999,-4.39488,14.054459999999999,72.0
1774821857.7753816,0.004442691802978516,2026-03-29T22:04:17.775,2026-03-29T18:04:17.775,-31764.195,-50195.025,-85479.165,-50343.345,-15966.404999999999,-20921.625,4521.285,-51336.585,1.4289646844785528,-0.4964647184235935,-2.8684316694578795,-7.350325959878387,-10.998132051481935,-13.745401644090805,-3.9456303336367795,4.305590938077426,-0.06561262500000001,-0.9130836,0.433531605,-7.996239999999999,-4.39488,14.054459999999999,72.0
1774821857.7753983,1.6689300537109375e-05,2026-03-29T22:04:17.775,2026-03-29T18:04:17.775,-31800.87,-50222.88,-85486.905,-50344.604999999996,-15965.369999999999,-20910.015,4582.62,-51324.615,-7.989801563066813,-7.584307099167889,-12.268395325049875,-18.868374121203342,-23.67160354591843,-23.949160198561913,-13.735453517215795,-6.12511715094818,-0.06561262500000001,-0.9130836,0.433531605,-7.996239999999999,-4.39488,14.054459999999999,72.0
1774821857.777476,0.002077817916870117,2026-03-29T22:04:17.777,2026-03-29T18:04:17.777,-31839.164999999997,-50252.85,-85512.78,-50354.865,-15964.47,-20906.73,4556.295,-51350.265,-14.138183451233889,-11.557989955855659,-16.43813371777498,-22.233145031426787,-26.0620309131475,-23.749926667010897,-17.073409727310818,-13.738359953012313,-0.06561262500000001,-0.9130836,0.433531605,-7.996239999999999,-4.39488,14.054459999999999,72.0
1774821857.77749,1.3828277587890625e-05,2026-03-29T22:04:17.777,2026-03-29T18:04:17.777,-31811.489999999998,-50244.345,-85517.81999999999,-50344.92,-15943.365,-20887.649999999998,4518.2699999999995,-51351.479999999996,-14.036524559998732,-10.80106826675697,-13.81862760958048,-16.32583257897311,-17.606778401886604,-13.870629269324459,-12.694320314188065,-14.797740089309505,-0.06561262500000001,-0.9130836,0.433531605,-7.996239999999999,-4.39488,14.054459999999999,72.0
1774821857.7832851,0.00579524040222168,2026-03-29T22:04:17.783,2026-03-29T18:04:17.783,-31793.94,-50228.325,-85496.805,-50323.229999999996,-15923.789999999999,-20865.465,4514.085,-51345.674999999996,-7.480955849212023,-5.625295073225455,-5.65498831637063,-3.905811086878112,-2.2869930228937942,0.9680854875725856,-2.8652442600193453,-8.703077652165165,-0.06561262500000001,-0.9130836,0.433531605,-7.996239999999999,-4.39488,14.054459999999999,72.0
1774821857.7833056,2.0503997802734375e-05,2026-03-29T22:04:17.783,2026-03-29T18:04:17.783,-31786.695,-50212.215,-85478.76,-50311.755,-15908.894999999999,-20839.905,4519.17,-51355.439999999995,2.7539687341612313,1.8726786430616547,4.624390921035548,9.720143882511017,13.296572562334902,14.370374428148288,7.782999955716054,1.674046506136603,-0.06561262500000001,-0.9130836,0.433531605,-7.996239999999999,-4.39488,14.054459999999999,72.0
1774821857.786041,0.0027353763580322266,2026-03-29T22:04:17.786,2026-03-29T18:04:17.786,-31783.725,-50217.165,-85490.415,-50329.799999999996,-15926.49,-20874.6,4505.804999999999,-51354.36,12.092806709206291,8.662290254767509,12.86481823531875,18.99662736294339,22.81652084899683,21.09829334180254,14.461387333897079,11.346374868221409,-0.06921369,-0.9130836,0.43273815,-9.568019999999999,-5.646199999999999,15.00058,72.0
1774821857.7860737,3.266334533691406e-05,2026-03-29T22:04:17.786,2026-03-29T18:04:17.786,-31789.844999999998,-50228.685,-85506.25499999999,-50356.935,-15958.305,-20917.62,4500.495,-51351.615,16.215673897073327,11.991251999541758,15.850378506947418,20.37464504407054,22.788067799008147,19.122218532889242,14.404650287537164,15.617370916219915,-0.06921369,-0.9130836,0.43273815,-9.568019999999999,-5.646199999999999,15.00058,72.0
1774821857.7895951,0.003521442413330078,2026-03-29T22:04:17.789,2026-03-29T18:04:17.789,-31770.719999999998,-50221.17,-85510.665,-50379.255,-15992.055,-20927.745,4492.755,-51336.0,13.063990112025067,10.481399344383448,12.517946106606184,13.612935369170588,13.770604424305358,10.081646700583459,8.022587103040916,12.372346068552195,-0.06921369,-0.9130836,0.43273815,-9.568019999999999,-5.646199999999999,15.00058,72.0
1774821857.7896268,3.170967102050781e-05,2026-03-29T22:04:17.789,2026-03-29T18:04:17.789,-31793.489999999998,-50235.93,-85528.215,-50406.479999999996,-16024.32,-20957.579999999998,4457.295,-51363.945,3.8603588464209806,4.683537736296611,4.286157529585459,1.6817377882944564,-0.16885392717379608,-1.8430224402323327,-1.4621227730248565,3.131062895949242,-0.06921369,-0.9130836,0.43273815,-9.568019999999999,-5.646199999999999,15.00058,72.0
1774821857.7949424,0.005315542221069336,2026-03-29T22:04:17.794,2026-03-29T18:04:17.794,-31818.555,-50236.38,-85518.045,-50388.84,-16012.845,-20971.035,4439.205,-51393.689999999995,-7.360139012740362,-3.1228694706327347,-5.5691809598031385,-10.577788666085347,-13.34054541567673,-11.936671557213725,-9.64383254687987,-7.665610317522165,-0.06921369,-0.9130836,0.43273815,-9.568019999999999,-5.646199999999999,15.00058,72.0
1774821857.794963,2.0503997802734375e-05,2026-03-29T22:04:17.794,2026-03-29T18:04:17.794,-31774.184999999998,-50198.445,-85471.605,-50329.575,-15971.445,-20963.565,4446.495,-51363.854999999996,-15.530465567693858,-9.811776724023618,-13.207822064495502,-18.415952729596444,-20.767918938478566,-16.838219654792628,-13.006578980760384,-14.800325815843204,-0.06921369,-0.9130836,0.43273815,-9.568019999999999,-5.646199999999999,15.00058,72.0
1774821857.7977705,0.0028076171875,2026-03-29T22:04:17.797,2026-03-29T18:04:17.797,-31784.579999999998,-50176.619999999995,-85427.28,-50285.88,-15929.414999999999,-20903.67,4486.41,-51377.579999999994,-16.852820651872676,-12.641123616397739,-15.682068746183608,-18.964284084204746,-20.007916634499026,-15.539994775832339,-10.452886110179596,-14.814868833490928,-0.06921369,-0.9130836,0.43273815,-9.568019999999999,-5.646199999999999,15.00058,72.0
1774821857.797793,2.2411346435546875e-05,2026-03-29T22:04:17.797,2026-03-29T18:04:17.797,-31830.164999999997,-50204.79,-85448.43,-50282.595,-15912.269999999999,-20869.29,4493.295,-51421.095,-10.569137517160817,-10.360025642474437,-12.028524735081133,-12.207496156475859,-11.82386462880199,-9.273981549096462,-3.615098016149385,-7.697384160361856,-0.06921369,-0.9130836,0.43273815,-9.568019999999999,-5.646199999999999,15.00058,72.0
1774821857.8012702,0.003477334976196289,2026-03-29T22:04:17.801,2026-03-29T18:04:17.801,-31806.27,-50194.439999999995,-85446.09,-50287.725,-15920.505,-20879.37,4478.985,-51407.685,0.6273453987024178,-3.7555902827472702,-3.6178539007526944,-0.856986763843526,0.3864142802156679,-0.6091812789764313,4.1102871878137694,3.1080383295796556,-0.06921369,-0.9130836,0.43273815,-9.568019999999999,-5.646199999999999,15.00058,72.0
1774821857.801293,2.2649765014648438e-05,2026-03-29T22:04:17.801,2026-03-29T18:04:17.801,-31766.985,-50183.685,-85450.95,-50297.58,-15930.945,-20915.01,4496.76,-51356.97,11.755578469808668,4.5963364362664665,6.348763472406783,10.742126526763935,12.026879818681985,7.647099564537137,9.259675561651505,12.377775005176709,-0.06921369,-0.9130836,0.43273815,-9.568019999999999,-5.646199999999999,15.00058,72.0
1774821857.8058395,0.004546642303466797,2026-03-29T22:04:17.805,2026-03-29T18:04:17.805,-31771.079999999998,-50186.7,-85439.06999999999,-50275.89,-15895.26,-20869.92,4522.635,-51352.965,17.77824535988397,11.311168767992653,14.017399373608932,18.226833126376203,18.983021612582398,13.249286497061112,9.879174846265299,15.651301403941124,-0.06677229,-0.91711191,0.4296864,-4.92898,-4.97476,13.45932,72.0
1774821857.8058653,2.574920654296875e-05,2026-03-29T22:04:17.805,2026-03-29T18:04:17.805,-31795.245,-50197.14,-85434.795,-50265.765,-15867.765,-20802.239999999998,4521.51,-51365.61,15.894221485188416,13.548077431662316,16.324253483821366,18.78160699696778,18.959347012481146,14.853678857462098,6.252150574872622,11.394402612693435,-0.06677229,-0.91711191,0.4296864,-4.92898,-4.97476,13.45932,72.0
1774821857.8095422,0.003676891326904297,2026-03-29T22:04:17.809,2026-03-29T18:04:17.809,-31810.364999999998,-50207.354999999996,-85466.16,-50304.42,-15898.365,-20803.77,4537.304999999999,-51385.634999999995,6.842721347643045,10.20594549149561,12.191738053656495,12.137350728860536,12.112104801405726,12.057235865568826,0.5133346068966166,1.7253453872502598,-0.06677229,-0.91711191,0.4296864,-4.92898,-4.97476,13.45932,72.0
1774821857.8095694,2.7179718017578125e-05,2026-03-29T22:04:17.809,2026-03-29T18:04:17.809,-31788.945,-50203.08,-85484.745,-50340.015,-15947.82,-20862.899999999998,4538.429999999999,-51366.96,-5.389106225734013,2.4630306436390423,3.0273202375231976,0.6865857713602145,0.8876907362348302,5.394450626184984,-4.557266508098765,-8.64425141838402,-0.06677229,-0.91711191,0.4296864,-4.92898,-4.97476,13.45932,72.0
1774821857.8163705,0.006801128387451172,2026-03-29T22:04:17.816,2026-03-29T18:04:17.816,-31780.98,-50222.43,-85516.69499999999,-50374.395,-15979.095,-20905.02,4524.03,-51355.439999999995,-15.338059020691981,-6.6036006943460945,-7.704137815764513,-11.327166460027849,-10.806201948431015,-3.601751350154454,-6.897615261979635,-14.723070272143378,-0.06677229,-0.91711191,0.4296864,-4.92898,-4.97476,13.45932,72.0
1774821857.8163886,1.811981201171875e-05,2026-03-29T22:04:17.816,2026-03-29T18:04:17.816,-31790.61,-50233.14,-85522.41,-50367.06,-15955.515,-20867.94,4516.0199999999995,-51357.195,-18.52153725283054,-13.217942846981357,-15.737853195559847,-19.301621610815438,-18.841555044317236,-12.428751311895041,-6.008675230026573,-13.664556726480452,-0.06677229,-0.91711191,0.4296864,-4.92898,-4.97476,13.45932,72.0
1774821857.8249884,0.00859975814819336,2026-03-29T22:04:17.824,2026-03-29T18:04:17.824,-31809.555,-50232.915,-85511.925,-50359.545,-15959.115,-20879.864999999998,4504.5,-51356.07,-13.466477816854669,-14.470050289414873,-17.67166320792727,-19.973362222787244,-20.203087700498056,-18.023565750910095,-2.9309147655321577,-6.114161728816738,-0.06677229,-0.91711191,0.4296864,-4.92898,-4.97476,13.45932,72.0
1774821857.8250208,3.24249267578125e-05,2026-03-29T22:04:17.825,2026-03-29T18:04:17.825,-31796.1,-50225.67,-85507.56,-50380.965,-15997.769999999999,-20912.85,4483.17,-51349.994999999995,-2.3877321086261176,-9.602387054961877,-12.404537276751276,-12.73379533460308,-14.06073762499636,-17.707817958589487,0.5253624216767214,4.165928094423657,-0.06677229,-0.91711191,0.4296864,-4.92898,-4.97476,13.45932,72.0
1774821857.8250468,2.5987625122070312e-05,2026-03-29T22:04:17.825,2026-03-29T18:04:17.825,-31763.969999999998,-50208.39,-85489.065,-50361.21,-15981.705,-20910.96,4490.1449999999995,-51354.54,9.795388876117059,-0.4459751908546001,-1.7443640327457448,-0.04436570983701929,-2.236358066961895,-10.45413733168527,2.8065340658118836,12.18404389047969,-0.06677229,-0.91711191,0.4296864,-4.92898,-4.97476,13.45932,72.0
1774821857.8250575,1.0728836059570312e-05,2026-03-29T22:04:17.825,2026-03-29T18:04:17.825,-31753.35,-50204.744999999995,-85477.995,-50319.27,-15930.539999999999,-20888.28,4506.3,-51347.384999999995,17.661691214371277,9.237624945025097,10.144344244481495,13.302162866011889,11.18536791017836,2.117797833535797,3.3311621808384917,14.166760303349433,-0.06677229,-0.91711191,0.4296864,-4.92898,-4.97476,13.45932,72.0
1774821857.825071,1.3589859008789062e-05,2026-03-29T22:04:17.825,2026-03-29T18:04:17.825,-31803.254999999997,-50204.655,-85440.105,-50249.115,-15870.375,-20874.87,4506.4349999999995,-51375.78,17.715161241653142,15.290779041545793,18.328311491397976,21.91605092386266,21.126921292139674,15.71164614526313,2.5567329512880517,9.356149403275804,-0.06481917,-0.91943124,0.427916385,0.16785999999999998,-3.8912999999999998,13.840819999999999,72.0
1774821857.8250818,1.0728836059570312e-05,2026-03-29T22:04:17.825,2026-03-29T18:04:17.825,-31822.155,-50188.814999999995,-85410.27,-50232.195,-15864.795,-20865.69,4515.929999999999,-51379.29,9.943019085680223,14.951361670755203,19.146452520051696,21.958330758708136,23.363227651870414,24.66133079735306,1.453285245772621,0.2900493775437885,-0.06481917,-0.91943124,0.427916385,0.16785999999999998,-3.8912999999999998,13.840819999999999,72.0
1774821857.8294125,0.004330635070800781,2026-03-29T22:04:17.829,2026-03-29T18:04:17.829,-31793.355,-50190.299999999996,-85449.915,-50290.244999999995,-15912.765,-20871.315,4506.48,-51369.39,-2.191707795357134,8.126497304927053,11.863436498503948,12.863066511647709,16.316779765142797,24.28116578217354,0.7702072700111094,-8.533845633129312,-0.06481917,-0.91943124,0.427916385,0.16785999999999998,-3.8912999999999998,13.840819999999999,72.0
1774821857.8294315,1.9073486328125e-05,2026-03-29T22:04:17.829,2026-03-29T18:04:17.829,-31797.675,-50205.78,-85472.50499999999,-50315.174999999996,-15931.529999999999,-20886.3,4498.2,-51381.54,-13.310202849064737,-2.4455696348063185,-0.818821885334021,-2.1437126776273225,2.041405459532154,13.292786796501,0.5691092409491779,-12.908902038598535,-0.06481917,-0.91943124,0.427916385,0.16785999999999998,-3.8912999999999998,13.840819999999999,72.0
1774821857.833526,0.004094362258911133,2026-03-29T22:04:17.833,2026-03-29T18:04:17.833,-31791.375,-50212.034999999996,-85489.515,-50348.655,-15974.865,-20933.505,4510.755,-51383.564999999995,-18.519981304160684,-12.278211372537598,-13.71224582352309,-17.091451438699146,-14.180795064777698,-4.9186466080585065,0.3000289628350844,-10.950814149855539,-0.06481917,-0.91943124,0.427916385,0.16785999999999998,-3.8912999999999998,13.840819999999999,72.0
1774821857.833554,2.8133392333984375e-05,2026-03-29T22:04:17.833,2026-03-29T18:04:17.833,-31777.155,-50227.56,-85528.215,-50393.25,-16022.474999999999,-21006.45,4487.3099999999995,-51375.375,-15.578113961959057,-17.045033052644442,-21.252467932181382,-25.599423850666987,-25.695095406573373,-23.10975186692448,-0.6569629639995981,-3.9165034946854167,-0.06481917,-0.91943124,0.427916385,0.16785999999999998,-3.8912999999999998,13.840819999999999,72.0
1774821857.8373249,0.0037708282470703125,2026-03-29T22:04:17.837,2026-03-29T18:04:17.837,-31758.254999999997,-50246.64,-85559.58,-50415.255,-16042.59,-21042.765,4476.42,-51339.96,-5.854298274783031,-14.500511787998239,-19.916751063938804,-23.609199867462863,-27.189841198170253,-33.02086756291421,-2.3647715320879166,4.549482799692795,-0.06481917,-0.91943124,0.427916385,0.16785999999999998,-3.8912999999999998,13.840819999999999,72.0
1774821857.8373382,1.33514404296875e-05,2026-03-29T22:04:17.837,2026-03-29T18:04:17.837,-31733.414999999997,-50240.744999999995,-85557.645,-50397.615,-16015.814999999999,-20961.989999999998,4479.255,-51307.695,6.318389828905068,-5.551539551603688,-9.891140168455916,-11.341527301933816,-17.173182262172617,-29.163578526436257,-4.064370401182597,10.307797479467942,-0.06481917,-0.91943124,0.427916385,0.16785999999999998,-3.8912999999999998,13.840819999999999,72.0
1774821857.8427093,0.00537109375,2026-03-29T22:04:17.842,2026-03-29T18:04:17.842,-31743.989999999998,-50211.134999999995,-85498.065,-50333.85,-15946.695,-20868.21,4505.67,-51328.935,15.592480531043266,6.038159317266683,4.81228147121301,6.475323189477862,0.9555405081738282,-11.800916545718426,-4.506201173389469,10.771872763833102,-0.06481917,-0.91943124,0.427916385,0.16785999999999998,-3.8912999999999998,13.840819999999999,72.0
1774821857.842731,2.1696090698242188e-05,2026-03-29T22:04:17.842,2026-03-29T18:04:17.842,-31789.664999999997,-50215.005,-85481.145,-50341.814999999995,-15962.625,-20870.19,4486.095,-51373.89,17.969984991190806,15.231952909882267,17.939568279200156,22.369640016669585,19.91915199580432,12.476268570386205,-2.7367928600206652,6.087107088504458,-0.06481917,-0.91943124,0.427916385,0.16785999999999998,-3.8912999999999998,13.840819999999999,72.0
1774821857.8470922,0.004361152648925781,2026-03-29T22:04:17.847,2026-03-29T18:04:17.847,-31772.34,-50190.659999999996,-85474.75499999999,-50348.295,-15962.805,-20858.895,4460.985,-51410.835,12.529489817464404,17.925768221132408,23.667061419926103,29.258704026180254,31.449299598761773,33.16973756230921,1.1180196864948915,-1.1043690637037331,-0.06469710000000001,-0.914731545,0.42761121,0.15259999999999999,-2.10588,11.65864,72.0
1774821857.8471198,2.765655517578125e-05,2026-03-29T22:04:17.847,2026-03-29T18:04:17.847,-31748.895,-50168.88,-85456.665,-50310.045,-15906.24,-20817.045,4458.15,-51434.009999999995,1.768918406315535,12.800994621877079,19.213808384799535,23.63783312718722,29.921672912259464,40.450951110410465,5.593980041985081,-7.125256413201798,-0.06469710000000001,-0.914731545,0.42761121,0.15259999999999999,-2.10588,11.65864,72.0
1774821857.849416,0.0022962093353271484,2026-03-29T22:04:17.849,2026-03-29T18:04:17.849,-31784.85,-50173.875,-85436.86499999999,-50267.564999999995,-15868.529999999999,-20806.739999999998,4460.715,-51456.869999999995,-9.555317383428312,1.9779124995406876,6.208305366018713,7.37477497265839,15.128135610092972,29.883334539005137,8.421061302072701,-9.153590105760571,-0.06469710000000001,-0.914731545,0.42761121,0.15259999999999999,-2.10588,11.65864,72.0
1774821857.8494325,1.6450881958007812e-05,2026-03-29T22:04:17.849,2026-03-29T18:04:17.849,-31856.579999999998,-50224.95,-85463.055,-50289.57,-15898.68,-20836.35,4540.275,-51449.85,-16.54719807174879,-9.85778633910422,-9.869357762028987,-12.813666751249594,-7.192278817520661,4.997645803956742,7.668688769308225,-6.566196911190855,-0.06469710000000001,-0.914731545,0.42761121,0.15259999999999999,-2.10588,11.65864,72.0
1774821857.8571527,0.007720232009887695,2026-03-29T22:04:17.857,2026-03-29T18:04:17.857,-31898.61,-50292.405,-85539.23999999999,-50380.11,-15994.71,-20923.829999999998,4521.33,-51419.564999999995,-16.296643805225777,-17.4975791108651,-22.001403142612688,-28.121131378765977,-27.51812252078234,-23.729785738340258,2.9283140116662594,-1.0861441592031602,-0.06469710000000001,-0.914731545,0.42761121,0.15259999999999999,-2.10588,11.65864,72.0
1774821857.8571832,3.0517578125e-05,2026-03-29T22:04:17.857,2026-03-29T18:04:17.857,-31860.945,-50278.14,-85541.48999999999,-50386.275,-16004.115,-20965.05,4453.83,-51402.915,-9.0851197593075,-17.52422311366739,-24.722841207631845,-31.522152218146182,-36.62536613501672,-43.304131082450944,-4.150191088718959,4.26998042126693,-0.06469710000000001,-0.914731545,0.42761121,0.15259999999999999,-2.10588,11.65864,72.0
1774821857.8572083,2.5033950805664062e-05,2026-03-29T22:04:17.857,2026-03-29T18:04:17.857,-31804.065,-50215.725,-85476.915,-50306.895,-15926.4,-20921.13,4472.73,-51408.63,1.824912736284177,-9.858217889018674,-16.614090904209952,-21.038789936567,-29.82656747670425,-44.167880632145625,-10.378837569793992,6.831989352905641,-0.06469710000000001,-0.914731545,0.42761121,0.15259999999999999,-2.10588,11.65864,72.0
1774821857.8572202,1.1920928955078125e-05,2026-03-29T22:04:17.857,2026-03-29T18:04:17.857,-31735.035,-50159.34,-85422.51,-50262.03,-15896.789999999999,-20890.934999999998,4576.905,-51338.564999999995,11.680124930226892,2.1719256806433456,-1.0443309224547583,-0.865316076006286,-9.397309702362877,-24.921278553162807,-12.4788737796904,5.619574249651391,-0.06469710000000001,-0.914731545,0.42761121,0.15259999999999999,-2.10588,11.65864,72.0
1774821857.8620744,0.0048542022705078125,2026-03-29T22:04:17.862,2026-03-29T18:04:17.862,-31751.414999999997,-50166.765,-85422.87,-50272.695,-15907.32,-20893.995,4592.295,-51341.579999999994,16.319049665885437,13.284641932894734,15.224109854496563,20.277546089787695,16.07043759660987,6.546279226756143,-8.793350773571019,1.7082303068929796,-0.06469710000000001,-0.914731545,0.42761121,0.15259999999999999,-2.10588,11.65864,72.0
1774821857.8621037,2.9325485229492188e-05,2026-03-29T22:04:17.862,2026-03-29T18:04:17.862,-31791.824999999997,-50205.104999999996,-85467.87,-50321.52,-15948.359999999999,-20900.655,4562.099999999999,-51371.505,13.929610466803199,18.584237684085466,24.99410892031426,32.93120017979779,35.280784215034735,36.2743721527705,-0.3752536494228998,-2.513370355033259,-0.06469710000000001,-0.914731545,0.42761121,0.15259999999999999,-2.10588,11.65864,72.0
1774821857.8658328,0.003729104995727539,2026-03-29T22:04:17.865,2026-03-29T18:04:17.865,-31799.295,-50218.83,-85488.795,-50334.705,-15950.835,-20884.68,4529.34,-51384.555,5.7396355578036,15.73774766080655,23.849898050563283,31.175852807917554,39.295260154287305,50.497231046548244,9.205953194636631,-4.731914481115732,-0.06567366,-0.911923935,0.42272841,-1.2055399999999998,-1.84646,12.5132,72.0
1774821857.8658516,1.8835067749023438e-05,2026-03-29T22:04:17.865,2026-03-29T18:04:17.865,-31792.32,-50220.99,-85494.555,-50328.314999999995,-15936.21,-20880.719999999998,4430.835,-51397.11,-4.612847377931439,6.011971310047212,12.178422827497165,15.4404337729064,25.751827968639954,42.11249008428083,15.385214011967728,-3.9605434390242102,-0.06567366,-0.911923935,0.42272841,-1.2055399999999998,-1.84646,12.5132,72.0
1774821857.8693929,0.003541231155395508,2026-03-29T22:04:17.869,2026-03-29T18:04:17.869,-31797.18,-50210.145,-85466.385,-50291.955,-15901.83,-20839.635,4450.545,-51406.875,-12.707092118466946,-6.294767278859087,-4.940836134463372,-7.50575794373953,0.22397142887555144,14.271774964849111,14.79960823984428,-0.9819929795885518,-0.06567366,-0.911923935,0.42272841,-1.2055399999999998,-1.84646,12.5132,72.0
1774821857.8694272,3.4332275390625e-05,2026-03-29T22:04:17.869,2026-03-29T18:04:17.869,-31821.795,-50233.32,-85487.355,-50323.229999999996,-15941.07,-20875.005,4521.6449999999995,-51415.92,-15.23174006610946,-15.768409378895251,-19.959293660557222,-27.470086041001082,-26.04794071758175,-20.739153440934103,7.094763925868199,2.2166981868599436,-0.06567366,-0.911923935,0.42272841,-1.2055399999999998,-1.84646,12.5132,72.0
1774821857.8734915,0.004064321517944336,2026-03-29T22:04:17.873,2026-03-29T18:04:17.873,-31791.015,-50227.92,-85501.395,-50359.5,-15976.8,-20907.54,4548.0599999999995,-51405.39,-11.330266938366986,-18.280206886125224,-26.21582583823146,-35.40295724422736,-41.143696029665925,-46.97248114560957,-4.62224273467186,3.657080223411809,-0.06567366,-0.911923935,0.42272841,-1.2055399999999998,-1.84646,12.5132,72.0
1774821857.873513,2.1457672119140625e-05,2026-03-29T22:04:17.873,2026-03-29T18:04:17.873,-31770.135,-50209.965,-85493.97,-50371.83,-15999.84,-20930.805,4517.01,-51402.915,-2.8586296317609023,-12.798680786796426,-20.92026603578074,-27.549294408572365,-37.93872843374137,-52.18285886127729,-15.02998812786075,2.5241288862043705,-0.06567366,-0.911923935,0.42272841,-1.2055399999999998,-1.84646,12.5132,72.0
1774821857.8791757,0.005662679672241211,2026-03-29T22:04:17.879,2026-03-29T18:04:17.879,-31796.64,-50217.705,-85506.12,-50388.165,-16023.375,-20982.329999999998,4493.25,-51403.365,6.501494300925369,-1.811544819777165,-6.4140961184478185,-7.257887197554142,-17.52258206281159,-33.63870834531555,-19.043694928673663,-0.38851565047058156,-0.06567366,-0.911923935,0.42272841,-1.2055399999999998,-1.84646,12.5132,72.0
1774821857.8791986,2.288818359375e-05,2026-03-29T22:04:17.879,2026-03-29T18:04:17.879,-31807.305,-50217.21,-85492.935,-50338.439999999995,-15968.115,-20944.26,4427.28,-51410.79,12.848474259566228,9.813299562855558,10.868125897317693,16.436465864265887,11.103618621475137,0.4191655676072577,-14.325548520441476,-3.180442581931332,-0.06567366,-0.911923935,0.42272841,-1.2055399999999998,-1.84646,12.5132,72.0
1774821857.8814197,0.0022211074829101562,2026-03-29T22:04:17.881,2026-03-29T18:04:17.881,-31794.48,-50214.465,-85469.985,-50283.18,-15904.394999999999,-20897.01,4400.505,-51417.81,13.682961902447431,17.00065715073313,23.273431602133755,32.8625946262406,35.01326079745033,34.458430240098174,-2.602763155719415,-3.9923204744329386,-0.06567366,-0.911923935,0.42272841,-1.2055399999999998,-1.84646,12.5132,72.0
1774821857.8814416,2.193450927734375e-05,2026-03-29T22:04:17.881,2026-03-29T18:04:17.881,-31779.36,-50202.134999999995,-85439.97,-50256.045,-15877.125,-20845.17,4454.1449999999995,-51421.77,8.875078104273538,16.696745005323255,25.34664014304522,34.56606705680237,43.25042046608433,52.82328854763399,10.93552065215438,-2.1350895106360968,-0.06567366,-0.911923935,0.42272841,-1.2055399999999998,-1.84646,12.5132,72.0
1774821857.8859017,0.00446009635925293,2026-03-29T22:04:17.885,2026-03-29T18:04:17.885,-31788.495,-50207.22,-85452.75,-50291.505,-15912.63,-20853.315,4500.8099999999995,-51427.935,0.6120726561317253,9.168983181111159,16.250296272984706,20.736470342787285,31.919535709476264,47.04364053518046,19.970271965824686,1.452341365778764,-0.066955395,-0.9179664,0.42138564,5.06632,-1.7549,12.5895,72.0
1774821857.8859286,2.6941299438476562e-05,2026-03-29T22:04:17.885,2026-03-29T18:04:17.885,-31789.574999999997,-50198.265,-85468.455,-50331.42,-15954.615,-20906.37,4569.03,-51405.93,-7.599345399045031,-2.1766238756986453,0.10559303763920447,-2.3869775508330386,6.07302865339006,19.824498415987208,20.0492497364073,4.691306911015965,-0.066955395,-0.9179664,0.42138564,5.06632,-1.7549,12.5895,72.0
1774821857.8895772,0.003648519515991211,2026-03-29T22:04:17.889,2026-03-29T18:04:17.889,-31788.765,-50219.64,-85498.83,-50358.015,-15980.805,-20957.94,4577.085,-51358.229999999996,-12.419996959054844,-12.347401719621466,-15.884956189200787,-24.341742385033957,-22.536285893296593,-16.19977035713249,10.805030927862306,5.537694044294059,-0.066955395,-0.9179664,0.42138564,5.06632,-1.7549,12.5895,72.0
1774821857.8897316,0.0001544952392578125,2026-03-29T22:04:17.889,2026-03-29T18:04:17.889,-31786.155,-50224.905,-85518.135,-50377.229999999996,-16010.865,-20978.82,4517.865,-51369.119999999995,-12.025461874512667,-16.9723245673975,-24.67221157795365,-35.2136313638334,-40.84016308758427,-44.38101081774767,-3.7225271038323187,3.189011493086391,-0.066955395,-0.9179664,0.42138564,5.06632,-1.7549,12.5895,72.0
1774821857.8934872,0.0037555694580078125,2026-03-29T22:04:17.893,2026-03-29T18:04:17.893,-31795.289999999997,-50225.085,-85507.065,-50342.534999999996,-15974.055,-20954.385,4514.085,-51397.38,-6.77638085668149,-14.184586771599825,-22.489350297398726,-30.159426765948368,-40.490652740341154,-51.84939854914786,-16.881610678675834,-1.362546428994374,-0.066955395,-0.9179664,0.42138564,5.06632,-1.7549,12.5895,72.0
1774821857.893518,3.075599670410156e-05,2026-03-29T22:04:17.893,2026-03-29T18:04:17.893,-31793.715,-50225.04,-85503.51,-50342.04,-15987.24,-21005.505,4472.1449999999995,-51419.204999999994,1.0230231610702156,-5.366401071419555,-10.476525209632682,-11.596212525297531,-21.728594526332625,-35.49072195799678,-22.509910612320823,-5.76910277957381,-0.066955395,-0.9179664,0.42138564,5.06632,-1.7549,12.5895,72.0
1774821857.8975432,0.00402522087097168,2026-03-29T22:04:17.897,2026-03-29T18:04:17.897,-31782.645,-50209.74,-85488.885,-50332.95,-15967.935,-20935.53,4431.554999999999,-51456.555,8.135101442767334,5.535417691621381,5.903289811402547,11.946470635715299,6.734999018252942,-3.287933335885882,-17.869828194842036,-7.55309159696451,-0.066955395,-0.9179664,0.42138564,5.06632,-1.7549,12.5895,72.0
