unix_time_s,dt_s,UTC,LOCAL,EMG1_Raw,EMG2_Raw,EMG3_Raw,EMG4_Raw,EMG5_Raw,EMG6_Raw,EMG7_Raw,EMG8_Raw,EMG1_Filtered,EMG2_Filtered,EMG3_Filtered,EMG4_Filtered,EMG5_Filtered,EMG6_Filtered,EMG7_Filtered,EMG8_Filtered,Accel1_Raw,Accel2_Raw,Accel3_Raw,Gyro1_Raw,Gyro2_Raw,Gyro3_Raw,Battery
1774823521.233264,,2026-03-29T22:32:01.233,2026-03-29T18:32:01.233,-21579.39,-43834.68,-77035.815,-48566.025,-8905.994999999999,-16134.21,8045.1449999999995,-63337.32,0.45864526018438573,-0.39283452903880445,-0.947060224776752,-0.07175169382413513,0.09578237693158445,0.5844597984089859,-0.07648632838280171,-0.06124424740095036,0.07360821000000001,-0.981137625,0.157409265,6.91278,3.3266799999999996,1.89224,68.0
1774823521.2333212,5.7220458984375e-05,2026-03-29T22:32:01.233,2026-03-29T18:32:01.233,-21582.945,-43834.455,-77034.59999999999,-48533.22,-8872.065,-16124.894999999999,8038.035,-63344.924999999996,5.044286310200992,-0.5604198505071374,-5.414780641481157,0.7199507954696563,3.4856318419523364,3.248592797951303,-2.5253234662735693,3.6769771974324055,0.07360821000000001,-0.981137625,0.157409265,6.91278,3.3266799999999996,1.89224,68.0
1774823521.233352,3.075599670410156e-05,2026-03-29T22:32:01.233,2026-03-29T18:32:01.233,-21569.67,-43836.119999999995,-77052.95999999999,-48544.965,-8864.595,-16118.82,8037.134999999999,-63332.055,7.095858937758597,-0.4789571670666323,-7.385382021110281,1.2441105521264446,5.518788776096784,4.666272306726548,-3.7023086608112328,5.517816036135735,0.07360821000000001,-0.981137625,0.157409265,6.91278,3.3266799999999996,1.89224,68.0
1774823521.2333643,1.239776611328125e-05,2026-03-29T22:32:01.233,2026-03-29T18:32:01.233,-21552.48,-43838.549999999996,-77058.72,-48584.88,-8899.47,-16141.05,8024.264999999999,-63307.079999999994,5.7093795556268745,-0.1657353386896098,-5.946224182157043,1.2707580977364203,5.307849904474694,4.148366928340827,-3.0907907207920338,4.6627906339220155,0.07360821000000001,-0.981137625,0.157409265,6.91278,3.3266799999999996,1.89224,68.0
1774823521.2343707,0.0010063648223876953,2026-03-29T22:32:01.234,2026-03-29T18:32:01.234,-21548.16,-43832.205,-77039.09999999999,-48594.915,-8913.734999999999,-16145.414999999999,8022.69,-63297.54,1.6603477681201362,0.2482340474670409,-1.7772727124963128,0.7659136170923058,2.873683748156684,1.8010883094424326,-1.050470446486552,1.648515677696289,0.07360821000000001,-0.981137625,0.157409265,6.91278,3.3266799999999996,1.89224,68.0
1774823521.234382,1.1205673217773438e-05,2026-03-29T22:32:01.234,2026-03-29T18:32:01.234,-21551.489999999998,-43823.97,-77016.555,-48587.13,-8911.619999999999,-16149.555,8028.674999999999,-63306.854999999996,-3.0186411320067728,0.5719458261148807,3.1733880069002587,-0.08482321731807237,-0.8321865871480482,-1.4615904771257673,1.384159960084317,-1.9699559729059426,0.07360821000000001,-0.981137625,0.157409265,6.91278,3.3266799999999996,1.89224,68.0
1774823521.2410345,0.0066525936126708984,2026-03-29T22:32:01.241,2026-03-29T18:32:01.241,-21572.774999999998,-43820.729999999996,-76991.265,-48553.784999999996,-8887.23,-16131.689999999999,8043.929999999999,-63338.985,-6.060770395717238,0.6431710810107291,6.609977721220862,-0.9421150506189507,-4.2943075291894965,-4.262417108646072,3.030566462376286,-4.42462779407842,0.074157525,-0.98522697,0.157165125,10.193679999999999,4.6085199999999995,0.03052,68.0
1774823521.2410617,2.7179718017578125e-05,2026-03-29T22:32:01.241,2026-03-29T18:32:01.241,-21572.954999999998,-43816.32,-76983.93,-48537.27,-8884.08,-16130.699999999999,8048.5199999999995,-63342.494999999995,-6.072061559868291,0.41076518783657556,6.9657330881442405,-1.4459230173969593,-6.050665809030261,-5.339280360757165,3.140974228794523,-4.610232684288013,0.074157525,-0.98522697,0.157165125,10.193679999999999,4.6085199999999995,0.03052,68.0
1774823521.2410784,1.6689300537109375e-05,2026-03-29T22:32:01.241,2026-03-29T18:32:01.241,-21565.17,-43816.905,-76990.00499999999,-48536.775,-8890.83,-16139.97,8039.429999999999,-63332.865,-3.1777998523904785,-0.031622109187014615,4.125308321639264,-1.3646898699945202,-5.3105492502350655,-4.116564873462716,1.750366173226131,-2.591175841523605,0.074157525,-0.98522697,0.157165125,10.193679999999999,4.6085199999999995,0.03052,68.0
1774823521.241084,5.7220458984375e-06,2026-03-29T22:32:01.241,2026-03-29T18:32:01.241,-21568.68,-43820.055,-76993.065,-48534.435,-8886.015,-16135.83,8040.285,-63332.1,1.0949169750046148,-0.4814928447638065,-0.5439167385903451,-0.6998711231456527,-2.3116489450265463,-1.0095958690217757,-0.3761767278104438,0.49712723456126806,0.074157525,-0.98522697,0.157165125,10.193679999999999,4.6085199999999995,0.03052,68.0
1774823521.2458534,0.004769325256347656,2026-03-29T22:32:01.245,2026-03-29T18:32:01.245,-21560.625,-43816.229999999996,-76992.66,-48533.895,-8880.255,-16128.045,8045.865,-63323.145,4.616316867134036,-0.7203977540729416,-4.855869357396515,0.3004866368001901,1.7454488737799945,2.6978038774152777,-2.15681498381698,3.0746277229466257,0.074157525,-0.98522697,0.157165125,10.193679999999999,4.6085199999999995,0.03052,68.0
1774823521.2458725,1.9073486328125e-05,2026-03-29T22:32:01.245,2026-03-29T18:32:01.245,-21537.585,-43809.705,-76998.87,-48540.375,-8884.529999999999,-16133.58,8045.955,-63304.29,5.718538340442156,-0.6211022208259596,-6.839818165872507,1.2308674743350847,5.17418381625645,5.379003084632151,-2.746405601063737,3.9295171939911957,0.074157525,-0.98522697,0.157165125,10.193679999999999,4.6085199999999995,0.03052,68.0
1774823521.2554116,0.009539127349853516,2026-03-29T22:32:01.255,2026-03-29T18:32:01.255,-21534.57,-43815.33,-77006.43,-48548.61,-8890.244999999999,-16139.474999999999,8044.065,-63305.729999999996,3.9916797573918426,-0.21598777448485454,-5.6502950925323665,1.689874809017404,6.502956004189159,5.781206086930549,-1.9456264573841302,2.797372245275354,0.074157525,-0.98522697,0.157165125,10.193679999999999,4.6085199999999995,0.03052,68.0
1774823521.2554529,4.124641418457031e-05,2026-03-29T22:32:01.255,2026-03-29T18:32:01.255,-21555.945,-43819.604999999996,-77004.58499999999,-48545.145,-8883.27,-16130.519999999999,8050.724999999999,-63316.575,0.42848984167169885,0.3102564377363427,-1.9285143650369325,1.4513662264442406,5.108970570858457,3.61601888539449,-0.26420601405193184,0.4255293893850442,0.074157525,-0.98522697,0.157165125,10.193679999999999,4.6085199999999995,0.03052,68.0
1774823521.2555003,4.744529724121094e-05,2026-03-29T22:32:01.255,2026-03-29T18:32:01.255,-21577.32,-43819.604999999996,-77008.23,-48544.155,-8877.195,-16120.845,8056.035,-63338.22,-3.1284724249998472,0.7045194056530643,2.5394542568383516,0.5732272496870375,1.5109226848814268,-0.2570315742049659,1.3795877000983938,-1.8808497628534178,0.074157525,-0.98522697,0.157165125,10.193679999999999,4.6085199999999995,0.03052,68.0
1774823521.2555127,1.239776611328125e-05,2026-03-29T22:32:01.255,2026-03-29T18:32:01.255,-21560.265,-43820.64,-77016.69,-48557.835,-8892.945,-16135.515,8048.5199999999995,-63324.314999999995,-4.93520944306765,0.7677951300876418,5.6866166242358736,-0.6074737767574505,-2.8174982596496876,-4.163985757064279,2.153529163538844,-2.967583970262813,0.074157525,-0.98522697,0.157165125,10.193679999999999,4.6085199999999995,0.03052,68.0
1774823521.2594717,0.003958940505981445,2026-03-29T22:32:01.259,2026-03-29T18:32:01.259,-21573.765,-43825.049999999996,-77012.64,-48555.674999999996,-8894.789999999999,-16142.805,8049.509999999999,-63333.945,-4.203037118677946,0.4566741183110359,6.129795068306917,-1.5998685709714011,-6.049894347465255,-6.342250268435379,1.736181279906258,-2.413467187555562,0.073547175,-0.98095452,0.158019615,7.84364,4.54748,-0.47306,68.0
1774823521.2594905,1.8835067749023438e-05,2026-03-29T22:32:01.259,2026-03-29T18:32:01.259,-21578.04,-43824.104999999996,-77007.33,-48547.305,-8888.039999999999,-16142.939999999999,8044.785,-63342.09,-1.4416213920667436,-0.08838665966173635,3.7808672830466556,-1.9607710572649852,-6.779828788922111,-5.743067846658145,0.45360856108191,-0.6899637146430444,0.073547175,-0.98095452,0.158019615,7.84364,4.54748,-0.47306,68.0
1774823521.2621691,0.0026786327362060547,2026-03-29T22:32:01.262,2026-03-29T18:32:01.262,-21559.05,-43817.49,-77008.5,-48546.99,-8887.455,-16142.265,8032.41,-63332.82,1.8600178992849583,-0.6057043904868193,-0.16696170488219872,-1.4909482340987452,-4.636024548779473,-2.5417039194372153,-0.9317295052930861,1.1597167054709159,0.073547175,-0.98095452,0.158019615,7.84364,4.54748,-0.47306,68.0
1774823521.2621994,3.0279159545898438e-05,2026-03-29T22:32:01.262,2026-03-29T18:32:01.262,-21546.54,-43807.095,-76993.37999999999,-48541.994999999995,-8890.199999999999,-16130.789999999999,8029.575,-63317.61,4.0255045568805405,-0.8383761424471016,-3.8453659398680577,-0.3400349703624832,-0.4693758640492966,1.8955085998653236,-1.6543131871490926,2.123398028699218,0.073547175,-0.98095452,0.158019615,7.84364,4.54748,-0.47306,68.0
1774823521.2759013,0.013701915740966797,2026-03-29T22:32:01.275,2026-03-29T18:32:01.275,-21549.285,-43811.009999999995,-77002.73999999999,-48552.884999999995,-8895.734999999999,-16129.305,8040.014999999999,-63320.265,4.03822630637453,-0.6627694171580005,-5.601033887169005,1.033468323774255,3.9818565355307323,5.5953351089936225,-1.361485239574959,1.7657903552326064,0.073547175,-0.98095452,0.158019615,7.84364,4.54748,-0.47306,68.0
1774823521.2759404,3.910064697265625e-05,2026-03-29T22:32:01.275,2026-03-29T18:32:01.275,-21565.035,-43824.42,-77018.76,-48559.005,-8892.045,-16129.215,8044.424999999999,-63348.75,2.016375690083026,-0.15480090905728733,-4.742638449026138,2.0413363536504385,6.818466777639945,6.8629749126582675,-0.28851048409179475,0.42575490260437454,0.073547175,-0.98095452,0.158019615,7.84364,4.54748,-0.47306,68.0
1774823521.275988,4.76837158203125e-05,2026-03-29T22:32:01.275,2026-03-29T18:32:01.275,-21572.055,-43830.54,-77019.39,-48551.58,-8883.404999999999,-16130.115,8037.495,-63353.115,-0.9051749230755138,0.4417331395368696,-1.8054296051184964,2.215839526851235,6.7941107642651914,5.067456694994499,0.8953310308598494,-1.024595104988001,0.073547175,-0.98095452,0.158019615,7.84364,4.54748,-0.47306,68.0
1774823521.2760112,2.3126602172851562e-05,2026-03-29T22:32:01.276,2026-03-29T18:32:01.276,-21564.765,-43819.83,-77006.565,-48540.869999999995,-8874.99,-16124.849999999999,8032.679999999999,-63341.145,-3.198599911320481,0.8322133361276881,1.7630615332054747,1.4254605349209182,3.86599748609501,0.9585575744229251,1.477535259263351,-1.7057380407783889,0.073547175,-0.98095452,0.158019615,7.84364,4.54748,-0.47306,68.0
1774823521.2760355,2.4318695068359375e-05,2026-03-29T22:32:01.276,2026-03-29T18:32:01.276,-21557.34,-43818.479999999996,-77010.93,-48551.13,-8885.789999999999,-16132.769999999999,8038.304999999999,-63320.715,-3.7340113439703058,0.8173670757190243,4.3178177582622626,-0.04290170782527877,-0.7624139539007407,-3.6454894449622857,1.11029490201038,-1.2375584286526828,0.073547175,-0.98095452,0.158019615,7.84364,4.54748,-0.47306,68.0
1774823521.2760599,2.4318695068359375e-05,2026-03-29T22:32:01.276,2026-03-29T18:32:01.276,-21557.34,-43829.189999999995,-77029.065,-48579.884999999995,-8917.065,-16153.83,8045.37,-63308.655,-2.330429308419234,0.3956638265265601,4.777531263192197,-1.5823974591379466,-5.136260725442177,-6.670082318634596,0.008879629905723397,0.056277564206246015,0.073547175,-0.98095452,0.158019615,7.84364,4.54748,-0.47306,68.0
1774823521.2803617,0.004301786422729492,2026-03-29T22:32:01.280,2026-03-29T18:32:01.280,-21554.055,-43835.49,-77040.135,-48599.235,-8944.83,-16172.414999999999,8045.91,-63304.29,0.19991146974811708,-0.23102896768336328,3.078525527354446,-2.5148648522446573,-7.3779515015821975,-6.729712593715449,-1.1694990827071237,1.3536681330678324,0.07397442,-0.972836865,0.16064412,4.2270199999999996,4.1964999999999995,-1.6785999999999999,68.0
1774823521.2803931,3.147125244140625e-05,2026-03-29T22:32:01.280,2026-03-29T18:32:01.280,-21548.43,-43831.665,-77037.075,-48591.0,-8936.414999999999,-16168.365,8044.5599999999995,-63309.015,2.5118167794446897,-0.7540026857123475,0.13320396039539975,-2.3888951961186833,-6.4967359855120765,-3.770542079195319,-1.6997558652633153,1.8248836651021716,0.07397442,-0.972836865,0.16064412,4.2270199999999996,4.1964999999999995,-1.6785999999999999,68.0
1774823521.283984,0.003590822219848633,2026-03-29T22:32:01.283,2026-03-29T18:32:01.283,-21556.665,-43833.869999999995,-77035.185,-48578.265,-8915.49,-16156.215,8041.86,-63322.604999999996,3.4346959747353947,-0.9102940560806979,-2.653116766476656,-1.196548276615051,-2.828247569952419,0.8919969505726314,-1.2088783027957857,1.1260767164561605,0.07397442,-0.972836865,0.16064412,4.2270199999999996,4.1964999999999995,-1.6785999999999999,68.0
1774823521.2840185,3.457069396972656e-05,2026-03-29T22:32:01.284,2026-03-29T18:32:01.284,-21569.04,-43825.59,-77015.52,-48562.02,-8902.26,-16145.234999999999,8038.665,-63328.229999999996,2.5575024373396027,-0.6155563133722282,-4.053237527063162,0.5947774463401645,2.091780987743896,5.164389982140068,0.09312677340527024,-0.3863971380256401,0.07397442,-0.972836865,0.16064412,4.2270199999999996,4.1964999999999995,-1.6785999999999999,68.0
1774823521.2880387,0.004020214080810547,2026-03-29T22:32:01.288,2026-03-29T18:32:01.288,-21568.635,-43819.2,-77007.23999999999,-48559.5,-8892.315,-16136.279999999999,8041.005,-63324.45,0.4012824786943972,-0.00969045527070338,-3.5559866832603,2.222238163487011,6.172674755815766,7.126157270269969,1.5054068413892514,-1.8447512233388752,0.07397442,-0.972836865,0.16064412,4.2270199999999996,4.1964999999999995,-1.6785999999999999,68.0
1774823521.2880602,2.1457672119140625e-05,2026-03-29T22:32:01.288,2026-03-29T18:32:01.288,-21558.329999999998,-43814.43,-77007.375,-48560.13,-8885.88,-16137.585,8040.78,-63324.99,-1.887515286262443,0.609538370007974,-1.5367332319977876,2.9517408916267813,7.660428418393877,5.903186372857518,2.209840502236128,-2.358911071715803,0.07397442,-0.972836865,0.16064412,4.2270199999999996,4.1964999999999995,-1.6785999999999999,68.0
1774823521.2880762,1.5974044799804688e-05,2026-03-29T22:32:01.288,2026-03-29T18:32:01.288,-21558.87,-43812.854999999996,-76998.015,-48542.67,-8880.39,-16140.555,8038.9349999999995,-63334.575,-3.144327303034281,0.9334182940175099,0.9859097717160508,2.4089305421819773,5.89376077516145,2.060969931206718,1.7279897014057917,-1.5335536875358629,0.07397442,-0.972836865,0.16064412,4.2270199999999996,4.1964999999999995,-1.6785999999999999,68.0
1774823521.2880828,6.67572021484375e-06,2026-03-29T22:32:01.288,2026-03-29T18:32:01.288,-21561.255,-43809.21,-76988.06999999999,-48519.405,-8865.765,-16135.92,8039.61,-63341.774999999994,-2.773240924351587,0.7969149910302941,2.860532178199576,0.7676336843808497,1.5976699402508943,-2.6611877830780197,0.21176673009998778,0.278615830339646,0.07397442,-0.972836865,0.16064412,4.2270199999999996,4.1964999999999995,-1.6785999999999999,68.0
1774823521.2965,0.008417129516601562,2026-03-29T22:32:01.296,2026-03-29T18:32:01.296,-21537.585,-43798.59,-76985.145,-48522.33,-8868.914999999999,-16135.83,8048.205,-63316.17,-1.0193713543520568,0.2631118645443735,3.3256647744671057,-1.2978956312342724,-3.4154684122586576,-6.1480445027904596,-1.5989206831695233,2.1366766994045725,0.07397442,-0.972836865,0.16064412,4.2270199999999996,4.1964999999999995,-1.6785999999999999,68.0
1774823521.2965271,2.7179718017578125e-05,2026-03-29T22:32:01.296,2026-03-29T18:32:01.296,-21532.545,-43804.755,-77001.84,-48539.79,-8873.234999999999,-16123.005,8052.4349999999995,-63315.945,1.193082501707694,-0.4060029459617328,2.308800528921475,-2.8887404201883484,-7.0129548699628605,-6.867112462766639,-2.7428398747724163,3.007311621979004,0.07397442,-0.972836865,0.16064412,4.2270199999999996,4.1964999999999995,-1.6785999999999999,68.0
1774823521.2965531,2.5987625122070312e-05,2026-03-29T22:32:01.296,2026-03-29T18:32:01.296,-21536.91,-43813.17,-77012.64,-48552.345,-8881.785,-16121.744999999999,8045.235,-63320.67,2.752573665254427,-0.8789089007547062,0.3904361275538692,-3.2728864904264436,-7.650845923700647,-4.547963511263226,-2.544096790274686,2.3325260629107425,0.072692685,-0.97338618,0.16308552,3.0825199999999997,4.16598,-3.40298,68.0
1774823521.2965653,1.2159347534179688e-05,2026-03-29T22:32:01.296,2026-03-29T18:32:01.296,-21568.545,-43827.525,-77017.095,-48554.64,-8882.685,-16117.244999999999,8040.105,-63344.564999999995,2.918404999816458,-0.9198117575676441,-1.5158105722706359,-2.2217538376500365,-5.036664744133875,-0.27802147932841004,-0.9927090719494851,0.35990729559294704,0.072692685,-0.97338618,0.16308552,3.0825199999999997,4.16598,-3.40298,68.0
1774823521.3016038,0.00503849983215332,2026-03-29T22:32:01.301,2026-03-29T18:32:01.301,-21579.165,-43830.54,-77015.97,-48553.244999999995,-8882.685,-16120.349999999999,8037.045,-63353.159999999996,1.6648693454835202,-0.5068527216171954,-2.5945560294618244,-0.13695000735259924,-0.2614898440471861,4.015472956001446,1.2091990465911258,-1.951552933296322,0.072692685,-0.97338618,0.16308552,3.0825199999999997,4.16598,-3.40298,68.0
1774823521.3016224,1.8596649169921875e-05,2026-03-29T22:32:01.301,2026-03-29T18:32:01.301,-21571.11,-43829.235,-77023.035,-48560.49,-8887.5,-16129.8,8039.25,-63343.079999999994,-0.34518151518022916,0.1564166923723623,-2.4693054456548396,2.100166860218584,4.656987000767698,6.446591613236255,2.974032116919497,-3.4116610273935817,0.072692685,-0.97338618,0.16308552,3.0825199999999997,4.16598,-3.40298,68.0
1774823521.305696,0.004073619842529297,2026-03-29T22:32:01.305,2026-03-29T18:32:01.305,-21550.59,-43819.56,-77020.83,-48559.77,-8887.455,-16129.71,8044.065,-63320.13,-2.1202867168078763,0.7423469360606921,-1.3146402296044024,3.5013064231835984,7.627943200845828,6.006424981134629,3.3719252062131813,-3.218825205808074,0.072692685,-0.97338618,0.16308552,3.0825199999999997,4.16598,-3.40298,68.0
1774823521.3057182,2.2172927856445312e-05,2026-03-29T22:32:01.305,2026-03-29T18:32:01.305,-21548.07,-43819.965,-77020.92,-48559.365,-8888.85,-16130.654999999999,8042.759999999999,-63315.27,-2.835377574160846,0.9624610250438632,0.2803726855373642,3.4085956561447777,7.375912991945724,2.979313546392314,2.116313400087073,-1.393950037652283,0.072692685,-0.97338618,0.16308552,3.0825199999999997,4.16598,-3.40298,68.0
1774823521.3137517,0.008033514022827148,2026-03-29T22:32:01.313,2026-03-29T18:32:01.313,-21561.93,-43826.895,-77024.97,-48565.08,-8898.39,-16142.805,8039.25,-63326.835,-2.212192712832101,0.7106400776271667,1.6072341701038124,1.8025073985837032,3.987153923762987,-1.2306480893446132,-0.2604624863295928,1.2041465170311532,0.072692685,-0.97338618,0.16308552,3.0825199999999997,4.16598,-3.40298,68.0
1774823521.3137815,2.9802322387695312e-05,2026-03-29T22:32:01.313,2026-03-29T18:32:01.313,-21565.755,-43830.314999999995,-77027.4,-48571.47,-8909.414999999999,-16156.035,8025.929999999999,-63335.61,-0.6112442833996846,0.11451901398023566,2.145731763430515,-0.6634545763883241,-1.119102186653708,-4.760513300020598,-2.641099217928187,3.2976300573042976,0.072692685,-0.97338618,0.16308552,3.0825199999999997,4.16598,-3.40298,68.0
1774823521.313808,2.6464462280273438e-05,2026-03-29T22:32:01.313,2026-03-29T18:32:01.313,-21577.995,-43832.61,-77024.47499999999,-48563.189999999995,-8899.199999999999,-16147.935,8026.965,-63351.63,1.1841004280116236,-0.5300361863586303,1.754330415633463,-2.927941410776048,-5.784791554706261,-6.1209575765223,-3.8596133909698604,3.8319707710344426,0.072692685,-0.97338618,0.16308552,3.0825199999999997,4.16598,-3.40298,68.0
1774823521.313814,5.9604644775390625e-06,2026-03-29T22:32:01.313,2026-03-29T18:32:01.313,-21551.04,-43819.244999999995,-77021.19,-48563.505,-8899.02,-16144.515,8031.105,-63331.2,2.361204694319682,-0.9074790518098781,0.6819218117597913,-3.979576611409167,-8.023854849423763,-4.824257945796937,-3.2773045292923704,2.5130621191891387,0.072692685,-0.97338618,0.16308552,3.0825199999999997,4.16598,-3.40298,68.0
1774823521.3176205,0.003806591033935547,2026-03-29T22:32:01.317,2026-03-29T18:32:01.317,-21524.625,-43821.674999999996,-77040.22499999999,-48589.83,-8924.22,-16160.49,8018.009999999999,-63308.475,2.447584902011005,-0.8388533240468528,-0.5775382852886873,-3.3095007800546976,-6.866258206572917,-1.5434293722049635,-1.11140120036916,-0.036747004372990805,0.07031232,-0.986508705,0.1684566,6.546539999999999,5.14262,-6.2566,68.0
1774823521.317652,3.147125244140625e-05,2026-03-29T22:32:01.317,2026-03-29T18:32:01.317,-21520.98,-43823.475,-77046.48,-48581.28,-8916.93,-16155.945,8029.035,-63300.735,1.4877864756286792,-0.3675425088340895,-1.506700890728498,-1.1558007739179263,-2.777748436720685,2.2391684332442154,1.6506609633072935,-2.5842599553114103,0.07031232,-0.986508705,0.1684566,6.546539999999999,5.14262,-6.2566,68.0
1774823521.3213055,0.0036535263061523438,2026-03-29T22:32:01.321,2026-03-29T18:32:01.321,-21557.969999999998,-43829.64,-77051.52,-48562.424999999996,-8889.3,-16128.404999999999,8053.335,-63337.005,-0.030405530912803125,0.26711036537859084,-1.7662116295124126,1.5769200678089539,2.5255820762577286,4.909185905271549,3.7141678158808595,-3.8972341925497687,0.07031232,-0.986508705,0.1684566,6.546539999999999,5.14262,-6.2566,68.0
1774823521.3213215,1.5974044799804688e-05,2026-03-29T22:32:01.321,2026-03-29T18:32:01.321,-21575.295,-43826.265,-77033.61,-48553.2,-8877.42,-16121.385,8066.655,-63353.564999999995,-1.4347092898934677,0.7528265793130723,-1.303971772339877,3.698008245040778,6.794969495087019,5.410316442003813,4.093980923966733,-3.3523075791371775,0.07031232,-0.986508705,0.1684566,6.546539999999999,5.14262,-6.2566,68.0
1774823521.3254924,0.004170894622802734,2026-03-29T22:32:01.325,2026-03-29T18:32:01.325,-21575.52,-43823.43,-77028.66,-48569.715,-8899.47,-16150.23,8064.179999999999,-63340.56,-2.171037721789415,0.8603152489436233,-0.3466484256176362,4.251180554020693,8.200420473078799,3.651809508052939,2.5865913215628695,-1.2342279348459628,0.07031232,-0.986508705,0.1684566,6.546539999999999,5.14262,-6.2566,68.0
1774823521.3255184,2.5987625122070312e-05,2026-03-29T22:32:01.325,2026-03-29T18:32:01.325,-21545.64,-43827.705,-77047.02,-48597.525,-8921.97,-16175.835,8032.59,-63315.585,-2.011818520415361,0.553295104094423,0.7070649757059476,2.9468648037295053,6.115064592285441,0.48265404256384065,-0.1297808865646374,1.4183588749706355,0.07031232,-0.986508705,0.1684566,6.546539999999999,5.14262,-6.2566,68.0
1774823521.3292615,0.0037431716918945312,2026-03-29T22:32:01.329,2026-03-29T18:32:01.329,-21542.625,-43835.805,-77042.87999999999,-48598.29,-8921.475,-16164.945,8016.299999999999,-63306.0,-1.098325446980834,-0.0010328244209860018,1.4432479691290652,0.3105347994901382,1.396862825913022,-2.722194990820626,-2.8127631420621526,3.3348863463742013,0.07031232,-0.986508705,0.1684566,6.546539999999999,5.14262,-6.2566,68.0
1774823521.329282,2.0503997802734375e-05,2026-03-29T22:32:01.329,2026-03-29T18:32:01.329,-21552.48,-43838.1,-77036.67,-48584.744999999995,-8915.039999999999,-16149.015,8015.849999999999,-63314.28,0.16778116340828164,-0.5230068467137691,1.5833900954695124,-2.5278727101599787,-3.959692419515246,-4.65988570980065,-4.236132485395454,3.634911684684088,0.07031232,-0.986508705,0.1684566,6.546539999999999,5.14262,-6.2566,68.0
1774823521.3346467,0.005364656448364258,2026-03-29T22:32:01.334,2026-03-29T18:32:01.334,-21583.62,-43819.604999999996,-76992.345,-48529.215,-8873.19,-16112.744999999999,8034.884999999999,-63365.13,1.3078464872602864,-0.7636854051532255,1.0812785280332902,-4.31993157541795,-7.6632817678495595,-4.621389483910379,-3.7558004325732934,2.240038208298134,0.07031232,-0.986508705,0.1684566,6.546539999999999,5.14262,-6.2566,68.0
1774823521.3346667,2.002716064453125e-05,2026-03-29T22:32:01.334,2026-03-29T18:32:01.334,-21579.75,-43812.27,-76982.985,-48522.33,-8869.949999999999,-16112.835,8039.07,-63370.619999999995,1.9378683172059117,-0.6261611913863246,0.1374147117642658,-4.25068665062692,-8.105817640415712,-2.732994474556846,-1.5975556000000752,-0.11994834148929122,0.07031232,-0.986508705,0.1684566,6.546539999999999,5.14262,-6.2566,68.0
1774823521.3374555,0.0027887821197509766,2026-03-29T22:32:01.337,2026-03-29T18:32:01.337,-21576.015,-43817.49,-76995.45,-48540.33,-8886.15,-16126.56,8046.495,-63378.27,1.873084792971628,-0.20479641758107098,-0.8735955426585967,-2.3115210202222594,-5.064466985459594,0.15304096097643258,1.2598309879326954,-2.2938113630746884,0.07604961,-1.005429555,0.172423875,11.38396,6.928039999999999,-9.781659999999999,68.0
1774823521.3374815,2.5987625122070312e-05,2026-03-29T22:32:01.337,2026-03-29T18:32:01.337,-21565.665,-43810.92,-76989.78,-48534.84,-8880.93,-16124.13,8052.48,-63361.755,1.1550667573030415,0.2736980578394904,-1.5412325106877507,0.6777146139276236,0.18232069535810302,2.843469544565996,3.540725736469586,-3.2814828175905717,0.07604961,-1.005429555,0.172423875,11.38396,6.928039999999999,-9.781659999999999,68.0
1774823521.3415885,0.004106998443603516,2026-03-29T22:32:01.341,2026-03-29T18:32:01.341,-21560.94,-43811.775,-76999.905,-48540.869999999995,-8884.215,-16123.32,8056.889999999999,-63345.465,0.020578760352675626,0.5725755654099451,-1.5781756522996344,3.4160856354296594,5.386733231748396,4.290718889961087,4.249200274546587,-2.703159212753807,0.07604961,-1.005429555,0.172423875,11.38396,6.928039999999999,-9.781659999999999,68.0
1774823521.3416088,2.0265579223632812e-05,2026-03-29T22:32:01.341,2026-03-29T18:32:01.341,-21574.395,-43823.205,-77016.06,-48554.369999999995,-8889.57,-16124.265,8052.57,-63349.965,-1.1650123195927593,0.5649170399917377,-0.9427238976852734,4.691509222929049,8.293800442619133,3.9871443046566304,3.101928115528769,-0.9412036507964555,0.07604961,-1.005429555,0.172423875,11.38396,6.928039999999999,-9.781659999999999,68.0
1774823521.3452408,0.003632068634033203,2026-03-29T22:32:01.345,2026-03-29T18:32:01.345,-21566.565,-43826.939999999995,-77024.11499999999,-48567.869999999995,-8901.359999999999,-16141.769999999999,8026.5599999999995,-63337.5,-1.9991942992483482,0.2894045723485305,0.12750155580421324,3.922293715648892,7.623331642549745,2.1272418709471053,0.6307223247303578,1.0950089026196388,0.07604961,-1.005429555,0.172423875,11.38396,6.928039999999999,-9.781659999999999,68.0
1774823521.3452609,2.002716064453125e-05,2026-03-29T22:32:01.345,2026-03-29T18:32:01.345,-21569.805,-43825.77,-77018.355,-48551.085,-8882.055,-16132.545,8023.545,-63352.755,-2.1552055315388685,-0.08344071101204015,1.1947058366616237,1.42613672373961,3.642139292805065,-0.5036246315385587,-2.0750070767406283,2.442144447360786,0.07604961,-1.005429555,0.172423875,11.38396,6.928039999999999,-9.781659999999999,68.0
1774823521.3493752,0.004114389419555664,2026-03-29T22:32:01.349,2026-03-29T18:32:01.349,-21577.005,-43829.64,-77020.245,-48553.424999999996,-8884.529999999999,-16135.605,8042.3099999999995,-63359.729999999996,-1.5017135872754475,-0.35177577565641976,1.7929108498828061,-1.709805970728847,-1.9333919488076352,-2.8541423455836386,-3.8556117105934704,2.5462283652340085,0.07604961,-1.005429555,0.172423875,11.38396,6.928039999999999,-9.781659999999999,68.0
1774823521.3494031,2.7894973754882812e-05,2026-03-29T22:32:01.349,2026-03-29T18:32:01.349,-21562.829999999998,-43826.805,-77028.345,-48570.57,-8902.17,-16143.345,8058.465,-63342.63,-0.19060992691916537,-0.3924883018528975,1.6289802852255517,-4.106031713875722,-6.674765893691198,-4.015476805413638,-3.9766401427609646,1.4904215102978615,0.07604961,-1.005429555,0.172423875,11.38396,6.928039999999999,-9.781659999999999,68.0
1774823521.353876,0.004472970962524414,2026-03-29T22:32:01.353,2026-03-29T18:32:01.353,-21551.489999999998,-43820.1,-77026.095,-48569.265,-8900.19,-16137.855,8059.5,-63331.965,1.3407108989201355,-0.22086372617528788,0.7266354937788987,-4.704603066996006,-8.50431206319193,-3.5621853214632666,-2.4219764170117783,-0.10553644346729595,0.07604961,-1.005429555,0.172423875,11.38396,6.928039999999999,-9.781659999999999,68.0
1774823521.3538957,1.9550323486328125e-05,2026-03-29T22:32:01.353,2026-03-29T18:32:01.353,-21553.065,-43822.395,-77028.84,-48570.93,-8899.199999999999,-16137.269999999999,8048.79,-63335.655,2.489814896107795,0.03032694385698688,-0.5580593065624551,-3.243698407571971,-6.616567658490468,-1.7045212518490473,0.12587852312301057,-1.4370815686939207,0.07604961,-1.005429555,0.172423875,11.38396,6.928039999999999,-9.781659999999999,68.0
1774823521.3644683,0.010572671890258789,2026-03-29T22:32:01.364,2026-03-29T18:32:01.364,-21559.86,-43821.314999999995,-77020.2,-48557.744999999995,-8887.545,-16129.17,8043.389999999999,-63351.765,2.717504011484961,0.19706855974670145,-1.6706001457449173,-0.3762411512768545,-1.8442672084817275,0.8004880053517563,2.5917027114959565,-1.9220628800653905,0.09545874,-1.0180638,0.17761185000000002,18.12888,8.255659999999999,-9.24756,68.0
1774823521.3645039,3.552436828613281e-05,2026-03-29T22:32:01.364,2026-03-29T18:32:01.364,-21557.114999999998,-43817.985,-77016.23999999999,-48551.22,-8881.74,-16123.769999999999,8048.205,-63351.945,1.8029073584102084,0.18427285659666953,-2.0946727344758425,2.6237584035588193,3.70338659986055,2.9462399414409886,3.959004243071754,-1.456761091638447,0.09545874,-1.0180638,0.17761185000000002,18.12888,8.255659999999999,-9.24756,68.0
1774823521.3645315,2.765655517578125e-05,2026-03-29T22:32:01.364,2026-03-29T18:32:01.364,-21555.989999999998,-43817.354999999996,-77017.72499999999,-48555.99,-8887.05,-16129.215,8049.825,-63346.5,0.00351769974418803,0.021430262672855964,-1.5914009994565212,4.43506069559037,7.5768314318844885,3.8727730217683725,3.6790340199513674,-0.4081208082619657,0.09545874,-1.0180638,0.17761185000000002,18.12888,8.255659999999999,-9.24756,68.0
1774823521.3645437,1.2159347534179688e-05,2026-03-29T22:32:01.364,2026-03-29T18:32:01.364,-21560.805,-43813.53,-77005.89,-48546.09,-8880.795,-16123.994999999999,8053.74,-63344.07,-1.9836977064655994,-0.15877253448900636,-0.3298224749239736,4.281701525430879,8.080154781127204,3.2116487616966136,1.8793020738679085,0.6271267829263935,0.09545874,-1.0180638,0.17761185000000002,18.12888,8.255659999999999,-9.24756,68.0
1774823521.3645585,1.4781951904296875e-05,2026-03-29T22:32:01.364,2026-03-29T18:32:01.364,-21554.73,-43806.78,-76994.28,-48537.314999999995,-8875.17,-16118.91,8054.235,-63331.155,-3.2822108627513047,-0.20672311422666093,1.1616366560130926,2.273447201738924,5.028716245288219,1.241376165680603,-0.6996781581000683,1.1504744833416998,0.09545874,-1.0180638,0.17761185000000002,18.12888,8.255659999999999,-9.24756,68.0
1774823521.3645694,1.0967254638671875e-05,2026-03-29T22:32:01.364,2026-03-29T18:32:01.364,-21550.23,-43805.79,-76992.93,-48536.235,-8876.654999999999,-16121.43,8049.554999999999,-63327.465,-3.2264358034085303,-0.05634632874509278,2.2141468697181206,-0.6596838607099393,-0.1758313762696017,-1.2174811277675104,-3.0051482957583415,1.000347283278253,0.09545874,-1.0180638,0.17761185000000002,18.12888,8.255659999999999,-9.24756,68.0
1774823521.3693428,0.004773378372192383,2026-03-29T22:32:01.369,2026-03-29T18:32:01.369,-21553.695,-43809.479999999996,-76997.7,-48538.215,-8876.88,-16120.484999999999,8049.509999999999,-63333.0,-1.70705272720927,0.22136662677737998,2.3180046114113217,-3.2039353672347226,-5.189174574907153,-3.13603194530924,-4.090468689361869,0.3881991173027812,0.09545874,-1.0180638,0.17761185000000002,18.12888,8.255659999999999,-9.24756,68.0
1774823521.3693757,3.2901763916015625e-05,2026-03-29T22:32:01.369,2026-03-29T18:32:01.369,-21563.73,-43821.854999999996,-77014.665,-48551.534999999996,-8885.52,-16128.09,8048.5199999999995,-63342.765,0.7099956269138764,0.44821659297444977,1.3681124908665225,-4.2625925331496495,-7.791992076671484,-3.7093010619900104,-3.492064620974744,-0.26504218178539113,0.09545874,-1.0180638,0.17761185000000002,18.12888,8.255659999999999,-9.24756,68.0
1774823521.373335,0.003959178924560547,2026-03-29T22:32:01.373,2026-03-29T18:32:01.373,-21551.13,-43825.545,-77033.34,-48571.29,-8903.115,-16142.939999999999,8044.74,-63334.395,2.981426800606923,0.4411302866100954,-0.2628389793365605,-3.440816143185338,-6.890332431491804,-2.7051269452824895,-1.4226110973857324,-0.5847844954588234,0.09545874,-1.0180638,0.17761185000000002,18.12888,8.255659999999999,-9.24756,68.0
1774823521.3733582,2.3365020751953125e-05,2026-03-29T22:32:01.373,2026-03-29T18:32:01.373,-21532.364999999998,-43823.475,-77039.64,-48579.21,-8912.97,-16152.48,8038.844999999999,-63319.229999999996,4.04078208861382,0.1317624805237063,-1.8681443782038731,-1.1939379164037285,-2.988988341744908,-0.5726623691063724,1.296603566571182,-0.44458961489366866,0.09545874,-1.0180638,0.17761185000000002,18.12888,8.255659999999999,-9.24756,68.0
1774823521.3774595,0.004101276397705078,2026-03-29T22:32:01.377,2026-03-29T18:32:01.377,-21535.155,-43824.195,-77035.14,-48570.705,-8906.31,-16147.26,8038.304999999999,-63323.729999999996,3.3095544890279966,-0.367543896004347,-2.7133689145011175,1.4182513078534147,2.0747737948604312,1.7481630992475115,3.5475459997448024,-0.009690320463128854,0.11553925500000001,-1.00964097,0.18566847,23.988719999999997,12.42164,-9.781659999999999,68.0
1774823521.37749,3.0517578125e-05,2026-03-29T22:32:01.377,2026-03-29T18:32:01.377,-21557.204999999998,-43820.415,-77022.045,-48555.99,-8890.74,-16131.869999999999,8043.48,-63341.009999999995,1.0154757800078957,-0.7983161187817279,-2.3718560688142847,3.2416984069910555,6.0029285423368375,3.2414710070135335,4.361957045304165,0.38790787668631965,0.11553925500000001,-1.00964097,0.18566847,23.988719999999997,12.42164,-9.781659999999999,68.0
1774823521.3858862,0.008396148681640625,2026-03-29T22:32:01.385,2026-03-29T18:32:01.385,-21569.805,-43815.96,-77016.42,-48549.015,-8878.68,-16119.63,8046.36,-63356.625,-1.8580778020755186,-0.8844376589997978,-0.9358706449627506,3.553088056534125,7.097781229556724,3.271876851388537,3.3326727279842103,0.46043562857924875,0.11553925500000001,-1.00964097,0.18566847,23.988719999999997,12.42164,-9.781659999999999,68.0
1774823521.3859208,3.457069396972656e-05,2026-03-29T22:32:01.385,2026-03-29T18:32:01.385,-21568.815,-43812.854999999996,-77007.735,-48541.95,-8871.255,-16114.095,8048.384999999999,-63361.619999999995,-3.9961514770489424,-0.4926336287040248,0.9997919471858189,2.353545967978938,5.014001572176144,1.8718720303352085,0.8187163202870622,0.1377099684168484,0.11553925500000001,-1.00964097,0.18566847,23.988719999999997,12.42164,-9.781659999999999,68.0
1774823521.3859491,2.8371810913085938e-05,2026-03-29T22:32:01.385,2026-03-29T18:32:01.385,-21558.195,-43813.935,-77012.50499999999,-48555.494999999995,-8886.105,-16126.019999999999,8044.155,-63349.38,-4.366107675140964,0.26323027071120103,2.5844758449742895,0.30728022427101587,0.8588585982253971,-0.27869487974546053,-2.1594188158230607,-0.3927899894053971,0.11553925500000001,-1.00964097,0.18566847,23.988719999999997,12.42164,-9.781659999999999,68.0
1774823521.3859627,1.3589859008789062e-05,2026-03-29T22:32:01.385,2026-03-29T18:32:01.385,-21543.57,-43808.58,-77013.62999999999,-48585.869999999995,-8922.015,-16143.66,8046.9,-63330.03,-2.729166316990038,1.0417741881460147,3.085754773333293,-1.6213480488643164,-3.3852936440954324,-2.176786888726435,-4.318149606486385,-0.7965506964060762,0.11553925500000001,-1.00964097,0.18566847,23.988719999999997,12.42164,-9.781659999999999,68.0
1774823521.3926167,0.006654024124145508,2026-03-29T22:32:01.392,2026-03-29T18:32:01.392,-21536.774999999998,-43805.79,-77014.215,-48610.89,-8960.895,-16170.84,8040.78,-63317.115,0.20954285040237422,1.4247023527230753,2.2258901759797243,-2.636435048166469,-5.81942578197767,-2.9723300290472547,-4.657360059369674,-0.7873982431775955,0.11553925500000001,-1.00964097,0.18566847,23.988719999999997,12.42164,-9.781659999999999,68.0
1774823521.3926363,1.9550323486328125e-05,2026-03-29T22:32:01.392,2026-03-29T18:32:01.392,-21550.094999999998,-43818.975,-77025.33,-48600.72,-8948.744999999999,-16171.335,8028.674999999999,-63328.545,3.1047426691110878,1.1336247632296335,0.3266999051364079,-2.451139663306736,-5.4982915739119225,-2.366748148551419,-2.9268868247884248,-0.2977744638297976,0.11553925500000001,-1.00964097,0.18566847,23.988719999999997,12.42164,-9.781659999999999,68.0
1774823521.3926528,1.6450881958007812e-05,2026-03-29T22:32:01.392,2026-03-29T18:32:01.392,-21555.27,-43829.369999999995,-77030.50499999999,-48560.49,-8890.605,-16139.34,8028.99,-63335.835,4.5982767672242275,0.20354170333633753,-1.8097309260872965,-1.3477986052435202,-2.8038511099212053,-0.7385957815203299,0.20565869681778973,0.4692642147595379,0.11553925500000001,-1.00964097,0.18566847,23.988719999999997,12.42164,-9.781659999999999,68.0
1774823521.392659,6.198883056640625e-06,2026-03-29T22:32:01.392,2026-03-29T18:32:01.392,-21540.825,-43817.13,-77010.48,-48531.24,-8863.154999999999,-16124.939999999999,8035.5599999999995,-63323.145,3.972298090051837,-0.9870951261754363,-3.240438655201012,0.04193857001716796,0.8305903500363782,1.065219053176064,3.3919673724433825,1.134282541132643,0.11553925500000001,-1.00964097,0.18566847,23.988719999999997,12.42164,-9.781659999999999,68.0
1774823521.397392,0.004733085632324219,2026-03-29T22:32:01.397,2026-03-29T18:32:01.397,-21529.305,-43814.79,-77012.64,-48541.229999999996,-8875.08,-16133.039999999999,8031.42,-63313.829999999994,1.5069488019895356,-1.8652283404833399,-3.2968471159437702,1.0944084589976675,3.6757512128475374,2.1659256041154897,5.174190971658264,1.3326134112839678,0.122985525,-0.98058831,0.19787547,23.485139999999998,19.4565,-11.68916,68.0
1774823521.3974383,4.6253204345703125e-05,2026-03-29T22:32:01.397,2026-03-29T18:32:01.397,-21543.12,-43818.165,-77014.44,-48547.17,-8880.255,-16136.414999999999,8031.87,-63333.045,-1.6413505627240605,-1.9352941890440842,-1.893271416033612,1.4888816759755195,4.545920842838529,2.0936692600859876,4.653964391991438,0.9041271528471272,0.122985525,-0.98058831,0.19787547,23.485139999999998,19.4565,-11.68916,68.0
1774823521.402507,0.005068778991699219,2026-03-29T22:32:01.402,2026-03-29T18:32:01.402,-21555.585,-43811.055,-77005.17,-48542.895,-8876.744999999999,-16132.545,8035.5599999999995,-63348.165,-3.990407410064614,-1.046890001235277,0.4121101427033045,1.293745334385524,3.3076830919723097,1.0062402669941544,1.9517903362419706,-0.014051569126588987,0.122985525,-0.98058831,0.19787547,23.485139999999998,19.4565,-11.68916,68.0
1774823521.4025197,1.2636184692382812e-05,2026-03-29T22:32:01.402,2026-03-29T18:32:01.402,-21560.985,-43815.825,-77021.37,-48564.0,-8893.8,-16142.58,8033.8949999999995,-63348.03,-4.44606879735306,0.48245402294493445,2.639182716473376,0.8265375867750185,0.8315481440129131,-0.4251532256896549,-1.7806512344096044,-1.0376586744263463,0.122985525,-0.98058831,0.19787547,23.485139999999998,19.4565,-11.68916,68.0
1774823521.406891,0.0043714046478271484,2026-03-29T22:32:01.406,2026-03-29T18:32:01.406,-21556.665,-43820.775,-77028.525,-48570.345,-8899.74,-16148.115,8035.875,-63346.095,-2.828427153570093,1.9704179164052196,3.802234934026703,0.39988717389777534,-1.5462063828845014,-1.3983914933932595,-4.8389408805429746,-1.7042102256218745,0.122985525,-0.98058831,0.19787547,23.485139999999998,19.4565,-11.68916,68.0
1774823521.4069216,3.0517578125e-05,2026-03-29T22:32:01.406,2026-03-29T18:32:01.406,-21562.469999999998,-43810.29,-76998.105,-48532.545,-8870.175,-16124.715,8056.53,-63354.869999999995,0.050284543038614314,2.6719011513841076,3.343930456065939,0.12208383298667363,-2.740015949921991,-1.4230740582203796,-5.743787047401727,-1.6817606863888153,0.122985525,-0.98058831,0.19787547,23.485139999999998,19.4565,-11.68916,68.0
1774823521.4233303,0.016408681869506836,2026-03-29T22:32:01.423,2026-03-29T18:32:01.423,-21555.315,-43801.515,-76987.98,-48517.515,-8860.005,-16114.185,8053.335,-63362.295,2.7940552143285213,2.1474265902951073,1.3968879843645414,-0.1251922300798966,-2.427586751056237,-0.5816659783158652,-3.9639267877572015,-0.9229802155203161,0.122985525,-0.98058831,0.19787547,23.485139999999998,19.4565,-11.68916,68.0
1774823521.4233675,3.719329833984375e-05,2026-03-29T22:32:01.423,2026-03-29T18:32:01.423,-21537.495,-43800.075,-76998.915,-48529.665,-8868.33,-16117.515,8047.44,-63344.07,4.112267843528636,0.517504925040756,-1.247702780903983,-0.5288183172982399,-1.1087094357367522,0.5350128281522366,-0.22755514049463083,0.3024186644351584,0.122985525,-0.98058831,0.19787547,23.485139999999998,19.4565,-11.68916,68.0
1774823521.4234056,3.814697265625e-05,2026-03-29T22:32:01.423,2026-03-29T18:32:01.423,-21546.18,-43822.53,-77035.545,-48577.14,-8906.49,-16144.56,8034.48,-63340.38,3.444214920168644,-1.537718480166612,-3.460927162848105,-1.122747831853216,0.2818364084711512,1.183492989661245,3.7590711845038003,1.5093784051048666,0.122985525,-0.98058831,0.19787547,23.485139999999998,19.4565,-11.68916,68.0
1774823521.4234252,1.9550323486328125e-05,2026-03-29T22:32:01.423,2026-03-29T18:32:01.423,-21554.864999999998,-43829.28,-77043.78,-48596.805,-8920.484999999999,-16145.279999999999,8040.87,-63342.045,1.2088614574883318,-3.058859331801672,-4.256616753856538,-1.667148634404567,0.958792584697043,0.9160907356785378,6.087303679068141,2.190161205885221,0.122985525,-0.98058831,0.19787547,23.485139999999998,19.4565,-11.68916,68.0
1774823521.4234488,2.3603439331054688e-05,2026-03-29T22:32:01.423,2026-03-29T18:32:01.423,-21570.57,-43827.705,-77027.22,-48580.515,-8905.41,-16132.904999999999,8040.554999999999,-63364.049999999996,-1.437430693224776,-3.254077356898422,-3.227691523473883,-1.7348390559595228,0.7255807705550807,-0.13448949109120958,5.56536719360984,2.0205916609214536,0.118713075,-0.940488315,0.209166945,13.06256,23.653,-19.013959999999997,68.0
1774823521.4234684,1.9550323486328125e-05,2026-03-29T22:32:01.423,2026-03-29T18:32:01.423,-21544.11,-43817.085,-77018.76,-48564.09,-8900.73,-16144.56,8031.87,-63340.92,-3.2016097416555107,-1.9045432533305706,-0.7466995415905738,-0.98012125058546,0.024633799759327914,-1.3067933219256669,2.335847173376624,1.000054587947645,0.118713075,-0.940488315,0.209166945,13.06256,23.653,-19.013959999999997,68.0
1774823521.4234912,2.288818359375e-05,2026-03-29T22:32:01.423,2026-03-29T18:32:01.423,-21521.655,-43815.509999999995,-77029.875,-48568.229999999996,-8903.295,-16156.349999999999,8031.96,-63309.104999999996,-3.299990635480857,0.47674729686939493,2.1655148884876994,0.5636750187896878,-0.41128492108840337,-1.7854990850824959,-2.131615324926957,-0.5283662512880348,0.118713075,-0.940488315,0.209166945,13.06256,23.653,-19.013959999999997,68.0
1774823521.4235098,1.8596649169921875e-05,2026-03-29T22:32:01.423,2026-03-29T18:32:01.423,-21534.75,-43823.295,-77032.08,-48574.71,-8914.23,-16164.855,8011.844999999999,-63307.845,-1.8206913439635013,2.8325697672418335,4.2584810178682195,2.3570301222645327,-0.08253963847994347,-1.0991097169630564,-5.702806140763083,-1.988438348057192,0.118713075,-0.940488315,0.209166945,13.06256,23.653,-19.013959999999997,68.0
1774823521.4274473,0.003937482833862305,2026-03-29T22:32:01.427,2026-03-29T18:32:01.427,-21584.114999999998,-43831.53,-77017.635,-48554.909999999996,-8895.285,-16145.234999999999,7985.384999999999,-63366.795,0.37229328609007933,4.031264063158613,4.587166412342537,3.521813598960092,0.9060880238058723,0.5441199100721039,-6.601182242024903,-2.7779460295122265,0.118713075,-0.940488315,0.209166945,13.06256,23.653,-19.013959999999997,68.0
1774823521.4274783,3.0994415283203125e-05,2026-03-29T22:32:01.427,2026-03-29T18:32:01.427,-21557.475,-43817.939999999995,-77016.78,-48560.985,-8898.48,-16140.869999999999,7981.245,-63361.53,2.126285356357642,3.4098017076216545,2.9354392570460783,3.2650043214399878,1.864994500326563,2.2940272566937576,-4.298656326500313,-2.503763756324636,0.118713075,-0.940488315,0.209166945,13.06256,23.653,-19.013959999999997,68.0
1774823521.4298654,0.0023870468139648438,2026-03-29T22:32:01.429,2026-03-29T18:32:01.429,-21542.985,-43794.99,-76982.84999999999,-48532.86,-8870.13,-16109.144999999999,8036.73,-63351.18,2.6097700521427956,1.1294346375682605,-0.06048224911167609,1.3561500865420262,1.9378056729015682,3.0838102707970956,0.17516496708316528,-1.1608196150826384,0.118713075,-0.940488315,0.209166945,13.06256,23.653,-19.013959999999997,68.0
1774823521.4298787,1.33514404296875e-05,2026-03-29T22:32:01.429,2026-03-29T18:32:01.429,-21536.55,-43789.905,-76978.485,-48524.534999999996,-8860.005,-16102.305,8098.785,-63326.34,1.72062640136667,-1.8432347655910297,-3.1541652127386803,-1.6116048706016508,0.6815275386580902,2.235141763623166,4.685129911903996,0.8191794398652162,0.118713075,-0.940488315,0.209166945,13.06256,23.653,-19.013959999999997,68.0
1774823521.4620843,0.03220558166503906,2026-03-29T22:32:01.462,2026-03-29T18:32:01.462,-21548.34,-43816.275,-77012.685,-48553.604999999996,-8888.445,-16134.84,8084.295,-63317.52,0.08587706748336414,-4.146070480329902,-5.006078402701908,-4.367335766956661,-1.5431448697560481,-0.08626490924542123,7.009858672893106,2.686665792755238,0.118713075,-0.940488315,0.209166945,13.06256,23.653,-19.013959999999997,68.0
1774823521.4621158,3.147125244140625e-05,2026-03-29T22:32:01.462,2026-03-29T18:32:01.462,-21578.625,-43836.57,-77030.595,-48567.78,-8898.84,-16145.189999999999,8044.065,-63361.17,-1.3288563096833481,-4.6484595055391384,-4.761961710985264,-5.505459180827968,-3.6373766656399367,-2.8410267212582605,5.940949944523071,3.6402977323718217,0.118713075,-0.940488315,0.209166945,13.06256,23.653,-19.013959999999997,68.0
1774823521.462146,3.0279159545898438e-05,2026-03-29T22:32:01.462,2026-03-29T18:32:01.462,-21565.665,-43829.505,-77022.09,-48555.765,-8885.654999999999,-16132.994999999999,8058.509999999999,-63357.84,-1.771906183950072,-3.005428567936458,-2.4434681053608376,-4.194553008960412,-4.302517295203738,-4.576857927192958,1.915195528318097,3.156538632404559,0.10815402,-0.9101539200000001,0.21264594,1.6633399999999998,25.30108,-28.97874,68.0
1774823521.462159,1.2874603271484375e-05,2026-03-29T22:32:01.462,2026-03-29T18:32:01.462,-21558.69,-43827.705,-77018.58,-48553.244999999995,-8884.17,-16131.195,8063.775,-63345.78,-1.1102365915283057,0.13284571416268282,1.0263196830026193,-0.6967493105830236,-2.7888322995260535,-4.1777744484962644,-3.1529484657684654,1.2551696290157621,0.10815402,-0.9101539200000001,0.21264594,1.6633399999999998,25.30108,-28.97874,68.0
1774823521.4621737,1.4781951904296875e-05,2026-03-29T22:32:01.462,2026-03-29T18:32:01.462,-21566.07,-43824.555,-77022.94499999999,-48564.09,-8895.69,-16138.574999999999,8052.705,-63347.85,0.1337683240802234,3.3758354923501015,4.1881894434355935,3.603558925794892,0.5595015991529534,-1.5206924863367715,-6.781144846932337,-1.4260944647430964,0.10815402,-0.9101539200000001,0.21264594,1.6633399999999998,25.30108,-28.97874,68.0
1774823521.462184,1.0251998901367188e-05,2026-03-29T22:32:01.462,2026-03-29T18:32:01.462,-21560.04,-43828.92,-77037.75,-48583.305,-8915.85,-16158.644999999999,8032.86,-63341.774999999994,1.1231070324303034,5.213418375998607,5.65953944225243,6.741445326038982,4.305766960992879,2.328691975299757,-7.138679721861177,-3.816636969560843,0.10815402,-0.9101539200000001,0.21264594,1.6633399999999998,25.30108,-28.97874,68.0
1774823521.462198,1.4066696166992188e-05,2026-03-29T22:32:01.462,2026-03-29T18:32:01.462,-21554.145,-43829.145,-77040.18,-48585.689999999995,-8919.675,-16166.295,8012.34,-63355.095,1.2207618750325626,4.723227982008187,4.737742766625684,7.0749373362301595,6.538917174857862,5.535442079486674,-3.9740121889415723,-4.822609970647939,0.10815402,-0.9101539200000001,0.21264594,1.6633399999999998,25.30108,-28.97874,68.0
1774823521.462209,1.0967254638671875e-05,2026-03-29T22:32:01.462,2026-03-29T18:32:01.462,-21553.065,-43832.744999999995,-77046.84,-48588.84,-8919.945,-16166.16,8012.565,-63367.604999999996,0.3768307146817137,2.0310169072526145,1.7312772707179247,4.1317698287144635,5.841771591378833,6.369883230764857,1.2220482341782457,-3.815146632112098,0.10815402,-0.9101539200000001,0.21264594,1.6633399999999998,25.30108,-28.97874,68.0
1774823521.4622223,1.33514404296875e-05,2026-03-29T22:32:01.462,2026-03-29T18:32:01.462,-21551.309999999998,-43818.705,-77024.295,-48562.02,-8891.55,-16139.07,8038.844999999999,-63369.494999999995,-0.8393571996345913,-1.7052669035230736,-2.1359148014691796,-1.0334293399369683,2.120615437144969,4.120016540042192,5.918653868479406,-0.9853936449036109,0.10815402,-0.9101539200000001,0.21264594,1.6633399999999998,25.30108,-28.97874,68.0
1774823521.4622324,1.0013580322265625e-05,2026-03-29T22:32:01.462,2026-03-29T18:32:01.462,-21550.094999999998,-43814.88,-77017.59,-48555.945,-8886.195,-16133.894999999999,8059.5,-63347.579999999994,-1.5849995070033718,-4.798424305625703,-5.221437093012197,-6.198513307151069,-3.167993698447234,-0.4326247558828168,7.78164358918758,2.6224479541962875,0.10815402,-0.9101539200000001,0.21264594,1.6633399999999998,25.30108,-28.97874,68.0
1774823521.4622452,1.2874603271484375e-05,2026-03-29T22:32:01.462,2026-03-29T18:32:01.462,-21560.76,-43824.869999999995,-77024.52,-48563.82,-8895.15,-16143.885,8051.8949999999995,-63337.14,-1.2692155525452538,-5.801185441332359,-6.1616538796772256,-8.937793717117996,-7.580376534379299,-5.261082060422833,5.8376384679092315,5.4695559459661185,0.10815402,-0.9101539200000001,0.21264594,1.6633399999999998,25.30108,-28.97874,68.0
1774823521.4622552,1.0013580322265625e-05,2026-03-29T22:32:01.462,2026-03-29T18:32:01.462,-21567.149999999998,-43824.284999999996,-77020.73999999999,-48557.34,-8888.039999999999,-16136.865,8055.179999999999,-63347.715,0.05163004228806811,-4.187341164027865,-4.473273339688339,-7.7683403727217035,-8.82485927380115,-8.000877197195035,0.982052448570369,6.165990516480361,0.10815402,-0.9101539200000001,0.21264594,1.6633399999999998,25.30108,-28.97874,68.0
1774823521.462268,1.2874603271484375e-05,2026-03-29T22:32:01.462,2026-03-29T18:32:01.462,-21553.02,-43809.03,-77008.05,-48547.979999999996,-8876.43,-16123.32,8060.085,-63350.189999999995,1.653333436999134,-0.6220045636941874,-0.7942754137814043,-2.9331028962549586,-5.941035280674835,-7.10863590736085,-4.434667435596761,4.1375466390342455,0.096740475,-0.899228655,0.208678665,-7.05012,23.1952,-42.45332,68.0
1774823521.4622784,1.0251998901367188e-05,2026-03-29T22:32:01.462,2026-03-29T18:32:01.462,-21564.135,-43815.15,-77009.715,-48548.52,-8875.395,-16118.865,8053.92,-63365.85,2.5326090168372644,3.3161205495428407,3.353383198417682,3.5862740607550405,0.08413672721057724,-2.70284794592855,-7.750972139235574,0.001055193656624651,0.096740475,-0.899228655,0.208678665,-7.05012,23.1952,-42.45332,68.0
1774823521.462291,1.2636184692382812e-05,2026-03-29T22:32:01.462,2026-03-29T18:32:01.462,-21560.489999999998,-43816.32,-77015.025,-48554.145,-8881.695,-16124.31,8050.7699999999995,-63358.604999999996,1.9999794131748843,5.842731520166174,6.192914088820391,8.886109116769834,6.626551610762004,3.361686803309482,-7.308219255433832,-4.57351978031765,0.096740475,-0.899228655,0.208678665,-7.05012,23.1952,-42.45332,68.0
1774823521.4623015,1.049041748046875e-05,2026-03-29T22:32:01.462,2026-03-29T18:32:01.462,-21557.52,-43819.155,-77017.77,-48558.78,-8887.185,-16129.89,8048.07,-63354.195,0.13857613083247766,5.784335179941714,6.453879439383817,10.447705889181401,10.580300958474288,8.278105662465926,-3.282152360105155,-7.518889201037523,0.096740475,-0.899228655,0.208678665,-7.05012,23.1952,-42.45332,68.0
1774823521.4657736,0.0034720897674560547,2026-03-29T22:32:01.465,2026-03-29T18:32:01.465,-21556.62,-43823.79,-77025.19499999999,-48567.6,-8896.005,-16139.115,8040.6449999999995,-63355.77,-2.1538515230439206,3.1255059351408363,3.939338516017032,7.339623817694126,9.843347557141284,9.597504463604572,2.386967514761683,-7.297521475603299,0.096740475,-0.899228655,0.208678665,-7.05012,23.1952,-42.45332,68.0
1774823521.4658,2.6464462280273438e-05,2026-03-29T22:32:01.465,2026-03-29T18:32:01.465,-21543.3,-43824.915,-77036.985,-48583.575,-8914.23,-16157.115,8027.639999999999,-63341.774999999994,-3.600099266479542,-0.9696719166115106,-0.35369954933130665,0.738419267934375,4.417529793118664,6.4483674977292225,6.938296075619502,-3.688191187032117,0.096740475,-0.899228655,0.208678665,-7.05012,23.1952,-42.45332,68.0
1774823521.4698265,0.0040264129638671875,2026-03-29T22:32:01.469,2026-03-29T18:32:01.469,-21531.555,-43826.58,-77051.295,-48599.235,-8927.505,-16169.445,8023.455,-63327.78,-3.2446086499554423,-4.6765043978710965,-4.627430539501455,-6.512325140786409,-3.4466713773364153,0.057867811409094576,8.145114519228358,1.964257491200897,0.096740475,-0.899228655,0.208678665,-7.05012,23.1952,-42.45332,68.0
1774823521.4698446,1.811981201171875e-05,2026-03-29T22:32:01.469,2026-03-29T18:32:01.469,-21531.195,-43830.18,-77055.3,-48604.455,-8935.695,-16176.644999999999,8026.5599999999995,-63319.095,-1.0400253663372092,-6.333219644153795,-7.03604609072733,-11.141162167363339,-10.190884824523472,-6.7206311319379735,5.410246594138909,7.219407829775892,0.096740475,-0.899228655,0.208678665,-7.05012,23.1952,-42.45332,68.0
1774823521.475968,0.00612330436706543,2026-03-29T22:32:01.475,2026-03-29T18:32:01.475,-21571.469999999998,-43821.9,-77022.81,-48573.674999999996,-8907.66,-16146.855,8040.24,-63365.354999999996,2.0258802197947103,-5.1923296227482565,-6.483117608463886,-10.93895269977283,-12.577963927246905,-10.695273752258094,0.05945999827062961,9.586204009107133,0.096740475,-0.899228655,0.208678665,-7.05012,23.1952,-42.45332,68.0
1774823521.4759932,2.5272369384765625e-05,2026-03-29T22:32:01.475,2026-03-29T18:32:01.475,-21560.895,-43812.494999999995,-77017.275,-48575.34,-8909.145,-16141.32,8031.42,-63365.67,4.375009564673914,-1.756816769808519,-3.119191419241596,-5.814479551911652,-9.25463942409683,-9.851355750881462,-5.311454115640376,7.700164981313099,0.096740475,-0.899228655,0.208678665,-7.05012,23.1952,-42.45332,68.0
1774823521.480465,0.004471778869628906,2026-03-29T22:32:01.480,2026-03-29T18:32:01.480,-21516.12,-43796.655,-77012.955,-48562.83,-8897.76,-16140.195,8014.905,-63336.24,4.655017101738812,2.4498057171590975,1.6855061237111446,2.0897603368174256,-1.489207484358767,-4.369594790107653,-8.110333293837511,2.0783625187824035,0.09191871,-0.8928810150000001,0.21227973,-0.79352,21.77602,-61.45202,68.0
1774823521.4804864,2.1457672119140625e-05,2026-03-29T22:32:01.480,2026-03-29T18:32:01.480,-21512.43,-43802.955,-77038.29,-48552.165,-8877.824999999999,-16128.224999999999,8023.545,-63329.579999999994,2.503680437382347,5.570694529363155,5.897621431038558,9.304182048825352,7.307757900534855,3.3667332141197384,-7.0114638124082695,-4.95443717405935,0.09191871,-0.8928810150000001,0.21227973,-0.79352,21.77602,-61.45202,68.0
1774823521.4805105,2.4080276489257812e-05,2026-03-29T22:32:01.480,2026-03-29T18:32:01.480,-21549.105,-43816.32,-77044.05,-48547.17,-8860.904999999999,-16108.47,8050.005,-63351.54,-1.1645819398378627,6.244642683323793,7.681347278859168,12.571626320976014,13.100460653269742,9.819014554732679,-2.5862288664821262,-10.2122562029941,0.09191871,-0.8928810150000001,0.21227973,-0.79352,21.77602,-61.45202,68.0
1774823521.4805162,5.7220458984375e-06,2026-03-29T22:32:01.480,2026-03-29T18:32:01.480,-21579.075,-43829.46,-77039.37,-48554.009999999995,-8865.359999999999,-16107.84,8072.505,-63367.695,-4.544239687861566,4.2021453645521225,6.19916448988829,10.328650235884652,13.098621215704194,11.929725307472426,3.000734216616477,-11.090506010432893,0.09191871,-0.8928810150000001,0.21227973,-0.79352,21.77602,-61.45202,68.0
1774823521.4853597,0.004843473434448242,2026-03-29T22:32:01.485,2026-03-29T18:32:01.485,-21580.649999999998,-43840.89,-77048.415,-48576.6,-8888.265,-16127.865,8057.745,-63370.305,-5.836348891053361,0.3663097891077066,2.0034147645959255,3.4500787054932434,7.105935600060899,8.583445872959889,7.06674468822948,-6.852419145101052,0.09191871,-0.8928810150000001,0.21227973,-0.79352,21.77602,-61.45202,68.0
1774823521.4853764,1.6689300537109375e-05,2026-03-29T22:32:01.485,2026-03-29T18:32:01.485,-21579.704999999998,-43843.32,-77047.965,-48600.09,-8913.645,-16148.519999999999,8039.655,-63364.229999999996,-4.20885961559481,-3.5752037559856213,-3.1635788292662563,-5.096070788504989,-2.3073470691427804,1.1891190501735942,7.716819310230788,0.8745394558445412,0.09191871,-0.8928810150000001,0.21227973,-0.79352,21.77602,-61.45202,68.0
1774823521.489566,0.004189729690551758,2026-03-29T22:32:01.489,2026-03-29T18:32:01.489,-21559.905,-43838.865,-77050.8,-48612.915,-8932.545,-16165.755,8025.48,-63335.384999999995,-0.3065540953391506,-5.923768644395592,-7.091735068548738,-11.54412553720456,-10.921290749163093,-6.917676194364311,4.736200063865119,8.695992996178482,0.09191871,-0.8928810150000001,0.21227973,-0.79352,21.77602,-61.45202,68.0
1774823521.489583,1.6927719116210938e-05,2026-03-29T22:32:01.489,2026-03-29T18:32:01.489,-21545.37,-43839.854999999996,-77055.97499999999,-48610.979999999996,-8948.115,-16187.445,7997.715,-63324.54,3.991907429206331,-5.707105691073946,-8.049419120548523,-13.003795175916675,-14.779805071648445,-11.996762169724946,-0.3558516772508316,12.939131226906516,0.09191871,-0.8928810150000001,0.21227973,-0.79352,21.77602,-61.45202,68.0
1774823521.4992416,0.009658575057983398,2026-03-29T22:32:01.499,2026-03-29T18:32:01.499,-21552.66,-43827.39,-77032.845,-48590.505,-8944.425,-16185.555,7992.36,-63369.36,6.486469855471655,-3.0777221342836603,-5.548617813555679,-8.761139623781075,-12.022995605057277,-11.64752305890179,-5.092734708338354,11.381719525425389,0.09191871,-0.8928810150000001,0.21227973,-0.79352,21.77602,-61.45202,68.0
1774823521.4992647,2.3126602172851562e-05,2026-03-29T22:32:01.499,2026-03-29T18:32:01.499,-21535.065,-43802.955,-77003.64,-48566.205,-8919.225,-16164.72,8016.57,-63373.14,5.791513167619673,0.7885327632701691,-0.5905045226217197,-0.6200244015834492,-3.782915278389862,-5.953861970019311,-7.276283071257152,4.405935747832145,0.09191871,-0.8928810150000001,0.21227973,-0.79352,21.77602,-61.45202,68.0
1774823521.4992857,2.09808349609375e-05,2026-03-29T22:32:01.499,2026-03-29T18:32:01.499,-21550.815,-43797.15,-76983.345,-48529.395,-8864.414999999999,-16113.105,8059.005,-63377.685,2.1052894124482937,4.229437023799292,4.730921578165335,7.875428776326533,6.287967351411716,2.520318424629236,-6.013489165809055,-5.018199723233922,0.093932865,-0.885068535,0.21588079500000001,1.78542,19.2276,-82.25139999999999,68.0
1774823521.4992964,1.0728836059570312e-05,2026-03-29T22:32:01.499,2026-03-29T18:32:01.499,-21570.3,-43796.61,-76967.50499999999,-48497.895,-8829.99,-16085.34,8078.219999999999,-63374.759999999995,-2.8130207505801867,5.81852456343045,8.112790640504441,12.996447162443925,13.65495934422841,9.89817741396553,-2.077174277220237,-12.588977394323486,0.093932865,-0.885068535,0.21588079500000001,1.78542,19.2276,-82.25139999999999,68.0
1774823521.5019605,0.0026640892028808594,2026-03-29T22:32:01.501,2026-03-29T18:32:01.501,-21562.875,-43805.79,-76982.12999999999,-48512.159999999996,-8843.445,-16099.65,8049.0599999999995,-63373.725,-6.486007270186172,4.95508517280842,8.042560852712988,12.474550240424197,14.961984948237072,12.782690544831752,2.553194163498672,-14.642553952929907,0.093932865,-0.885068535,0.21588079500000001,1.78542,19.2276,-82.25139999999999,68.0
1774823521.5019743,1.3828277587890625e-05,2026-03-29T22:32:01.501,2026-03-29T18:32:01.501,-21551.04,-43805.7,-76998.78,-48535.515,-8866.305,-16119.224999999999,8029.215,-63378.225,-6.9757486344408495,2.07893484976967,4.478277419974971,6.507094592086545,9.570081881315248,9.837840097897168,5.704577021577721,-9.931729195405799,0.093932865,-0.885068535,0.21588079500000001,1.78542,19.2276,-82.25139999999999,68.0
1774823521.5140114,0.012037038803100586,2026-03-29T22:32:01.514,2026-03-29T18:32:01.514,-21533.355,-43794.63,-76998.105,-48539.52,-8869.815,-16120.125,8034.344999999999,-63355.68,-3.9144244725192503,-1.5593868553415378,-1.0974442376367282,-2.321415503226062,-0.13533034646443362,2.4151547106857185,6.0524593317371815,-0.3478055355205968,0.093932865,-0.885068535,0.21588079500000001,1.78542,19.2276,-82.25139999999999,68.0
1774823521.5140388,2.7418136596679688e-05,2026-03-29T22:32:01.514,2026-03-29T18:32:01.514,-21536.774999999998,-43804.89,-77008.815,-48548.88,-8875.98,-16123.23,8057.835,-63336.015,1.24252092899899,-4.450958182615729,-6.29088595641382,-10.167428236991183,-9.813268145051103,-6.071175782825219,3.6823233104320376,9.819642484175544,0.093932865,-0.885068535,0.21588079500000001,1.78542,19.2276,-82.25139999999999,68.0
1774823521.5140815,4.267692565917969e-05,2026-03-29T22:32:01.514,2026-03-29T18:32:01.514,-21547.395,-43828.695,-77029.515,-48565.935,-8893.755,-16141.275,8058.554999999999,-63322.965,5.904857912210136,-5.455361560395451,-8.826480053382072,-13.609117719939405,-15.126301402796337,-11.729434777949614,-0.07039661920789356,15.806546313701558,0.093932865,-0.885068535,0.21588079500000001,1.78542,19.2276,-82.25139999999999,68.0
1774823521.5140927,1.1205673217773438e-05,2026-03-29T22:32:01.514,2026-03-29T18:32:01.514,-21540.195,-43836.119999999995,-77045.535,-48581.235,-8913.824999999999,-16164.09,8033.8949999999995,-63320.22,7.653650197741172,-4.241379160013859,-7.549240904268178,-11.142131401720038,-13.697863361418605,-11.99345064874944,-3.369020419113486,14.617530481671222,0.093932865,-0.885068535,0.21588079500000001,1.78542,19.2276,-82.25139999999999,68.0
1774823521.5141056,1.2874603271484375e-05,2026-03-29T22:32:01.514,2026-03-29T18:32:01.514,-21538.125,-43828.875,-77040.27,-48576.915,-8912.88,-16163.505,8021.07,-63328.95,5.5043773998409895,-1.3764907798182204,-2.9568429171154347,-3.83635630440485,-6.179193667451789,-6.80055120730322,-4.796568091242937,6.5273621847845025,0.093932865,-0.885068535,0.21588079500000001,1.78542,19.2276,-82.25139999999999,68.0
1774823521.514115,9.5367431640625e-06,2026-03-29T22:32:01.514,2026-03-29T18:32:01.514,-21546.989999999998,-43819.515,-77025.555,-48562.47,-8898.164999999999,-16155.449999999999,8025.12,-63347.49,0.46492255063702337,1.945454976552242,2.9862349399306423,5.131260011949701,4.053675853350649,1.4020356049032747,-3.9785487064306255,-4.913267391616499,0.093932865,-0.885068535,0.21588079500000001,1.78542,19.2276,-82.25139999999999,68.0
1774823521.5252056,0.011090517044067383,2026-03-29T22:32:01.525,2026-03-29T18:32:01.525,-21554.82,-43815.509999999995,-77017.68,-48552.705,-8878.904999999999,-16139.295,8035.83,-63362.79,-4.927451163142076,4.404757073736581,7.687941466768471,11.86175087606757,12.428274902410466,8.81641822683448,-1.626707474536088,-14.435108638335965,0.112487505,-0.892392735,0.221007735,8.40826,19.059739999999998,-99.4952,68.0
1774823521.5252292,2.3603439331054688e-05,2026-03-29T22:32:01.525,2026-03-29T18:32:01.525,-21560.399999999998,-43818.165,-77016.15,-48559.275,-8880.93,-16134.119999999999,8036.6849999999995,-63362.295,-7.88177191949613,5.073432197200315,9.063977135835954,13.432142304421392,15.231626354114704,12.067072953492806,0.95743881618227,-17.48874736404206,0.112487505,-0.892392735,0.221007735,8.40826,19.059739999999998,-99.4952,68.0
1774823521.5252512,2.193450927734375e-05,2026-03-29T22:32:01.525,2026-03-29T18:32:01.525,-21571.155,-43817.85,-77013.22499999999,-48565.395,-8885.16,-16127.055,8041.59,-63374.13,-6.800727091221002,3.7508170252185615,6.470366484345037,9.167155589470932,11.264201599609015,9.753857505869396,2.6058334964387946,-12.430360865038574,0.112487505,-0.892392735,0.221007735,8.40826,19.059739999999998,-99.4952,68.0
1774823521.5252583,7.152557373046875e-06,2026-03-29T22:32:01.525,2026-03-29T18:32:01.525,-21571.29,-43814.34,-77007.915,-48563.82,-8892.494999999999,-16123.095,8046.45,-63381.015,-2.1482036678778957,1.0044824497823348,1.0124722048747221,0.931938622541609,2.3528477350051142,3.0638643620487214,2.832805676239762,-1.3991171555496011,0.112487505,-0.892392735,0.221007735,8.40826,19.059739999999998,-99.4952,68.0
1774823521.5252657,7.3909759521484375e-06,2026-03-29T22:32:01.525,2026-03-29T18:32:01.525,-21552.795,-43816.545,-77021.91,-48579.075,-8908.02,-16137.9,8046.585,-63357.975,3.734554301725121,-2.0774444145718887,-4.921004344085423,-7.681217949282481,-7.495229044396677,-4.828847950695922,1.942296902752569,10.579042721333293,0.112487505,-0.892392735,0.221007735,8.40826,19.059739999999998,-99.4952,68.0
1774823521.5252702,4.5299530029296875e-06,2026-03-29T22:32:01.525,2026-03-29T18:32:01.525,-21542.445,-43820.865,-77030.45999999999,-48575.07,-8897.67,-16139.789999999999,8043.66,-63345.6,7.79976815169068,-4.312626889078752,-8.70564450256367,-12.918933671802948,-13.902985220176049,-10.275035207795264,0.6939449845406884,17.89054073624732,0.112487505,-0.892392735,0.221007735,8.40826,19.059739999999998,-99.4952,68.0
1774823521.5303106,0.005040407180786133,2026-03-29T22:32:01.530,2026-03-29T18:32:01.530,-21520.89,-43806.915,-77014.845,-48543.705,-8861.625,-16113.599999999999,8050.905,-63319.454999999994,7.867775777211119,-4.865372319605366,-8.65075430002296,-12.504687867816099,-14.077106555952097,-10.850989121907237,-0.2252800887745403,16.980145556649948,0.112487505,-0.892392735,0.221007735,8.40826,19.059739999999998,-99.4952,68.0
1774823521.5303476,3.695487976074219e-05,2026-03-29T22:32:01.530,2026-03-29T18:32:01.530,-21523.995,-43812.045,-77020.155,-48555.494999999995,-8876.025,-16128.135,8035.875,-63319.994999999995,3.7933572785022633,-3.545071374191124,-4.766056925461861,-6.6345997382052,-8.030165942054953,-6.450099367277853,-0.5895465807218143,8.089460442678057,0.112487505,-0.892392735,0.221007735,8.40826,19.059739999999998,-99.4952,68.0
1774823521.5338504,0.0035028457641601562,2026-03-29T22:32:01.533,2026-03-29T18:32:01.533,-21561.12,-43827.345,-77032.035,-48568.32,-8890.02,-16144.154999999999,8025.12,-63367.064999999995,-2.398928712382381,-0.8639296503029192,1.227047198324671,2.1062103896082522,1.4641290986480897,0.7316667332356772,-0.6610972406162923,-4.766690023889387,0.112487505,-0.892392735,0.221007735,8.40826,19.059739999999998,-99.4952,68.0
1774823521.5338767,2.6226043701171875e-05,2026-03-29T22:32:01.533,2026-03-29T18:32:01.533,-21570.075,-43820.955,-77020.065,-48559.455,-8882.865,-16133.715,8027.054999999999,-63385.829999999994,-7.511903431398037,2.1584107037801714,6.656048360739417,9.874998359311393,10.144859233656296,7.2837720719678,-0.8730185249244536,-15.618630095261942,0.112487505,-0.892392735,0.221007735,8.40826,19.059739999999998,-99.4952,68.0
1774823521.5378904,0.004013776779174805,2026-03-29T22:32:01.537,2026-03-29T18:32:01.537,-21553.155,-43811.82,-77022.315,-48580.29,-8907.75,-16143.705,8029.259999999999,-63371.07,-8.817226912888126,4.3708814438582895,9.095243592010506,13.259787065547469,14.18132488455679,10.206254816332857,-1.4049353254832995,-19.32884460953332,0.14489709,-0.90722424,0.22009221,5.478339999999999,18.22044,-111.59638,68.0
1774823521.5379095,1.9073486328125e-05,2026-03-29T22:32:01.537,2026-03-29T18:32:01.537,-21555.495,-43819.604999999996,-77032.17,-48589.11,-8912.789999999999,-16147.17,8043.4349999999995,-63359.774999999994,-5.50132948965967,4.915896116531965,7.4617347786662815,10.785139085493556,11.869781972313548,8.295338708053523,-1.9565881270717103,-14.039260157707638,0.14489709,-0.90722424,0.22009221,5.478339999999999,18.22044,-111.59638,68.0
1774823521.5419793,0.004069805145263672,2026-03-29T22:32:01.541,2026-03-29T18:32:01.541,-21557.16,-43815.6,-77018.94,-48559.68,-8879.355,-16129.8,8052.884999999999,-63360.765,0.8467799998778017,3.5541358625615476,2.5090401085694274,3.5688254501534438,4.356288255907874,2.6445901566693473,-1.8978364989615328,-2.105857066128808,0.14489709,-0.90722424,0.22009221,5.478339999999999,18.22044,-111.59638,68.0
1774823521.5420065,2.7179718017578125e-05,2026-03-29T22:32:01.542,2026-03-29T18:32:01.542,-21553.155,-43825.005,-77025.375,-48555.945,-8873.865,-16137.855,8045.549999999999,-63352.799999999996,6.990359273840113,0.7705050326843416,-3.51256067396417,-5.16877778870515,-4.922091543468708,-3.9493985749683493,-0.7266464835013243,10.951311482432008,0.14489709,-0.90722424,0.22009221,5.478339999999999,18.22044,-111.59638,68.0
1774823521.5513155,0.009309053421020508,2026-03-29T22:32:01.551,2026-03-29T18:32:01.551,-21556.44,-43828.965,-77023.665,-48553.695,-8871.93,-16132.32,8048.88,-63353.97,9.686284461386816,-2.3862059277408836,-7.8796299292977565,-11.53453541505214,-11.808874990997898,-8.364021813417933,1.4519045389324523,19.014479539135245,0.14489709,-0.90722424,0.22009221,5.478339999999999,18.22044,-111.59638,68.0
1774823521.551332,1.6450881958007812e-05,2026-03-29T22:32:01.551,2026-03-29T18:32:01.551,-21560.535,-43820.415,-77018.76,-48552.705,-8870.4,-16122.824999999999,8047.304999999999,-63361.485,7.383200239529997,-4.684568766883742,-8.637310374688864,-12.701592751030136,-13.29496599213938,-8.634884099435233,3.7639813650058462,18.25144383635265,0.14489709,-0.90722424,0.22009221,5.478339999999999,18.22044,-111.59638,68.0
1774823521.5513473,1.52587890625e-05,2026-03-29T22:32:01.551,2026-03-29T18:32:01.551,-21549.645,-43817.534999999996,-77025.33,-48563.865,-8880.66,-16130.744999999999,8028.134999999999,-63365.715,1.091979580786413,-5.182217985732479,-5.488783412292542,-8.18010031424642,-8.841091301814645,-4.839431327518772,4.899943059650001,8.948718075427678,0.14489709,-0.90722424,0.22009221,5.478339999999999,18.22044,-111.59638,68.0
1774823521.5513537,6.4373016357421875e-06,2026-03-29T22:32:01.551,2026-03-29T18:32:01.551,-21542.895,-43817.49,-77027.04,-48565.08,-8884.755,-16136.82,8007.21,-63371.52,-6.051625208130191,-3.612211397620987,0.07873344559792782,-0.041876868904277637,-0.5718025101248184,1.0216476024264585,3.8255182847687026,-4.587960232285323,0.14489709,-0.90722424,0.22009221,5.478339999999999,18.22044,-111.59638,68.0
1774823521.5550325,0.0036787986755371094,2026-03-29T22:32:01.555,2026-03-29T18:32:01.555,-21548.52,-43814.159999999996,-77017.455,-48551.265,-8875.26,-16130.07,8015.58,-63377.145,-10.346244491808804,-0.5256613352043659,5.490419772665597,8.013578280518614,7.72857076607041,6.056363517137941,0.4952076588305014,-16.036237837278694,0.14489709,-0.90722424,0.22009221,5.478339999999999,18.22044,-111.59638,68.0
1774823521.5550475,1.5020370483398438e-05,2026-03-29T22:32:01.555,2026-03-29T18:32:01.555,-21536.505,-43804.619999999995,-77011.33499999999,-48543.57,-8867.07,-16123.68,8028.09,-63372.465,-9.431364954368194,2.885403914765776,8.27920937419589,12.338602584435135,12.347875816931856,7.902472762833715,-3.8724934964229205,-20.026666161914516,0.14489709,-0.90722424,0.22009221,5.478339999999999,18.22044,-111.59638,68.0
1774823521.557528,0.0024805068969726562,2026-03-29T22:32:01.557,2026-03-29T18:32:01.557,-21532.454999999998,-43798.905,-77007.33,-48533.759999999995,-8855.234999999999,-16111.664999999999,8032.139999999999,-63381.915,-3.5625171567994856,5.238144039299765,7.223163205045432,11.001962240855027,11.314042560397006,5.841391643840211,-7.206475355815337,-14.676267186775128,0.17102007,-0.927304755,0.22009221,7.15694,16.69444,-115.73183999999999,68.0
1774823521.5575433,1.52587890625e-05,2026-03-29T22:32:01.557,2026-03-29T18:32:01.557,-21546.18,-43799.939999999995,-77016.06,-48523.32,-8840.52,-16095.195,8043.4349999999995,-63384.524999999994,4.425855407956003,5.517842405888684,2.89485350069743,4.673539447144883,5.246511683606818,1.0771487409409315,-7.56391730427877,-2.4833004589570304,0.17102007,-0.927304755,0.22009221,7.15694,16.69444,-115.73183999999999,68.0
1774823521.5616963,0.004153013229370117,2026-03-29T22:32:01.561,2026-03-29T18:32:01.561,-21537.225,-43795.619999999995,-77018.58,-48531.465,-8844.57,-16096.769999999999,8059.455,-63348.345,10.492489214181516,3.5207163092674456,-2.630838610558728,-3.686646226062587,-2.9811860312473013,-3.92776880887532,-4.21650213431498,10.844957001857708,0.17102007,-0.927304755,0.22009221,7.15694,16.69444,-115.73183999999999,68.0
1774823521.5617127,1.6450881958007812e-05,2026-03-29T22:32:01.561,2026-03-29T18:32:01.561,-21548.475,-43821.9,-77041.08,-48570.03,-8877.33,-16125.3,8078.4,-63327.465,11.43030709559656,-0.015159469839924193,-6.767593610957321,-10.201400854683202,-9.594752260313271,-6.706119068956494,1.749873159753542,19.078603549144567,0.17102007,-0.927304755,0.22009221,7.15694,16.69444,-115.73183999999999,68.0
1774823521.5657582,0.0040454864501953125,2026-03-29T22:32:01.565,2026-03-29T18:32:01.565,-21553.469999999998,-43850.924999999996,-77067.675,-48617.505,-8921.295,-16166.295,8067.735,-63313.649999999994,6.545923760091352,-3.669602942208827,-7.635310314886791,-11.880090655191347,-11.654646585781924,-5.997633783136613,7.724319174343512,18.39392574527906,0.17102007,-0.927304755,0.22009221,7.15694,16.69444,-115.73183999999999,68.0
1774823521.5657763,1.811981201171875e-05,2026-03-29T22:32:01.565,2026-03-29T18:32:01.565,-21548.16,-43850.564999999995,-77058.315,-48623.805,-8938.845,-16186.41,8044.469999999999,-63312.479999999996,-1.896630474274579,-5.906989226231678,-4.927978052265731,-8.011680155857986,-8.374172129905846,-2.3249364162979576,10.715505695909123,9.159521902696664,0.17102007,-0.927304755,0.22009221,7.15694,16.69444,-115.73183999999999,68.0
1774823521.5704188,0.004642486572265625,2026-03-29T22:32:01.570,2026-03-29T18:32:01.570,-21567.78,-43826.445,-77013.62999999999,-48571.38,-8895.96,-16148.205,8048.474999999999,-63363.149999999994,-9.73267736941728,-5.725834596215,-0.025059889728005644,-0.4888529289410432,-1.4235100907564169,2.3317637876022372,8.849403943707433,-4.25969890927605,0.17102007,-0.927304755,0.22009221,7.15694,16.69444,-115.73183999999999,68.0
1774823521.5704408,2.193450927734375e-05,2026-03-29T22:32:01.570,2026-03-29T18:32:01.570,-21557.295,-43811.28,-76995.72,-48542.265,-8879.22,-16135.38,8053.0199999999995,-63364.5,-12.957586392402725,-3.114457556383534,4.697091711728525,7.096411617619293,5.901119619940057,5.574706079678046,2.469701246406929,-15.577407802742416,0.17102007,-0.927304755,0.22009221,7.15694,16.69444,-115.73183999999999,68.0
1774823521.5742524,0.0038115978240966797,2026-03-29T22:32:01.574,2026-03-29T18:32:01.574,-21552.344999999998,-43809.119999999995,-76993.065,-48533.715,-8876.97,-16146.269999999999,8048.835,-63357.39,-9.7683802880891,0.897984943312415,7.015069311018489,11.162739988070367,10.237689573477944,5.806767649891409,-5.781453105544123,-19.54772055717548,0.17102007,-0.927304755,0.22009221,7.15694,16.69444,-115.73183999999999,68.0
1774823521.5743077,5.53131103515625e-05,2026-03-29T22:32:01.574,2026-03-29T18:32:01.574,-21549.329999999998,-43810.064999999995,-76997.52,-48539.07,-8879.445,-16153.38,8038.17,-63356.579999999994,-1.5464039537747678,4.640692852210382,5.913411751167827,9.84268498196459,9.710704587038247,3.014496126361695,-12.052776607643752,-14.410318112596096,0.17102007,-0.927304755,0.22009221,7.15694,16.69444,-115.73183999999999,68.0
1774823521.5793982,0.005090475082397461,2026-03-29T22:32:01.579,2026-03-29T18:32:01.579,-21532.545,-43808.895,-77008.31999999999,-48551.354999999996,-8888.715,-16156.8,8012.79,-63341.1,7.745949586714728,6.499388638620372,2.0403894234673285,3.863326760928719,4.754375143299503,-1.267169131254937,-13.097708471214093,-2.6725142437386915,0.19714305000000001,-0.931455135,0.22412052,1.78542,18.983439999999998,-125.57454,68.0
1774823521.579419,2.0742416381835938e-05,2026-03-29T22:32:01.579,2026-03-29T18:32:01.579,-21510.0,-43797.869999999995,-77004.855,-48551.445,-8890.47,-16151.445,7993.889999999999,-63328.229999999996,13.48892521264095,5.620633745823102,-2.645177600403083,-3.8220636136016406,-2.1612891565574337,-4.77398720188137,-7.951113129247221,10.120024759440811,0.19714305000000001,-0.931455135,0.22412052,1.78542,18.983439999999998,-125.57454,68.0
1774823521.5820374,0.002618551254272461,2026-03-29T22:32:01.582,2026-03-29T18:32:01.582,-21498.75,-43788.509999999995,-76999.545,-48552.255,-8894.744999999999,-16147.439999999999,8001.719999999999,-63328.32,12.709152537291926,2.311220878499526,-5.852258208993344,-9.476173587265205,-7.7480041427076145,-5.686980248696895,1.3963078314181632,18.018672031127526,0.19714305000000001,-0.931455135,0.22412052,1.78542,18.983439999999998,-125.57454,68.0
1774823521.5820582,2.0742416381835938e-05,2026-03-29T22:32:01.582,2026-03-29T18:32:01.582,-21535.245,-43793.369999999995,-76990.815,-48532.634999999995,-8871.074999999999,-16115.939999999999,8030.295,-63365.04,5.610889133358722,-2.0575419408662095,-6.076560582555253,-10.39552232708467,-9.465467533039174,-3.5610877620630026,10.748085992761954,17.453762222626217,0.19714305000000001,-0.931455135,0.22412052,1.78542,18.983439999999998,-125.57454,68.0
1774823521.5859876,0.0039293766021728516,2026-03-29T22:32:01.585,2026-03-29T18:32:01.585,-21558.87,-43807.14,-77002.515,-48527.189999999995,-8856.404999999999,-16103.609999999999,8069.804999999999,-63372.689999999995,-4.45144442248601,-5.618002468258086,-3.3135000288346337,-6.218541913602632,-6.6885420663417,0.4613650714992811,15.606126869897086,8.854528749181313,0.19714305000000001,-0.931455135,0.22412052,1.78542,18.983439999999998,-125.57454,68.0
1774823521.586009,2.1457672119140625e-05,2026-03-29T22:32:01.586,2026-03-29T18:32:01.586,-21590.73,-43832.159999999996,-77026.455,-48538.439999999995,-8855.279999999999,-16109.955,8077.32,-63391.14,-12.576168878712272,-6.811570370085042,0.9761203907808106,0.9166886989962632,-0.9327123157236719,4.253924940233115,13.35577748182147,-3.6313519005878243,0.19714305000000001,-0.931455135,0.22412052,1.78542,18.983439999999998,-125.57454,68.0
1774823521.5900512,0.004042148590087891,2026-03-29T22:32:01.590,2026-03-29T18:32:01.590,-21586.32,-43842.33,-77048.055,-48570.57,-8878.14,-16134.39,8050.679999999999,-63387.899999999994,-14.718934158806594,-5.080786778409786,4.6187776901752,7.44321561533668,4.944074504263562,5.811591445418464,4.660421992415784,-14.148775128931739,0.19714305000000001,-0.931455135,0.22412052,1.78542,18.983439999999998,-125.57454,68.0
1774823521.590083,3.170967102050781e-05,2026-03-29T22:32:01.590,2026-03-29T18:32:01.590,-21559.95,-43824.96,-77032.26,-48577.77,-8887.545,-16143.66,8027.91,-63373.049999999996,-9.711702298790998,-1.136229253290946,5.817945660807674,10.136914100154602,8.153271207893786,4.290563667224527,-6.674143333965808,-17.897029408704086,0.19714305000000001,-0.931455135,0.22412052,1.78542,18.983439999999998,-125.57454,68.0
1774823521.594078,0.003995180130004883,2026-03-29T22:32:01.594,2026-03-29T18:32:01.594,-21553.469999999998,-43819.29,-77022.27,-48572.64,-8892.63,-16143.615,8013.915,-63373.005,0.11493919376805181,3.3322770451375088,4.03820830925669,7.712399025878745,7.306106345548815,0.44983053388019295,-15.382497797440703,-13.332226716265973,0.19714305000000001,-0.931455135,0.22412052,1.78542,18.983439999999998,-125.57454,68.0
1774823521.59414,6.198883056640625e-05,2026-03-29T22:32:01.594,2026-03-29T18:32:01.594,-21546.719999999998,-43821.54,-77025.78,-48567.869999999995,-8897.445,-16153.515,8006.3099999999995,-63361.845,10.032983751900892,6.384441811415335,0.24891319985396773,1.4503517591713446,3.0236481237553368,-3.7316489478347052,-17.217793375154983,-2.7946869531746246,0.19714305000000001,-0.931455135,0.22412052,1.78542,18.983439999999998,-125.57454,68.0
1774823521.5978205,0.0036804676055908203,2026-03-29T22:32:01.597,2026-03-29T18:32:01.597,-21543.57,-43837.335,-77054.12999999999,-48594.15,-8925.57,-16195.32,8021.745,-63350.82,15.214232166080492,6.681766715703397,-3.5856470316290148,-5.456873270939117,-2.4468840267928833,-6.067934461894107,-11.044156466933632,8.689043605505708,0.212951115,-0.9221778150000001,0.218566335,-2.45686,17.91524,-132.63992,68.0
1774823521.5978477,2.7179718017578125e-05,2026-03-29T22:32:01.597,2026-03-29T18:32:01.597,-21535.065,-43825.905,-77042.79,-48582.314999999995,-8914.68,-16193.16,8030.429999999999,-63355.5,13.097485591917906,4.08440381210707,-5.507293756391937,-9.515140262980676,-6.391915571484514,-5.29334570008056,0.49756551025821477,15.817248176706675,0.212951115,-0.9221778150000001,0.218566335,-2.45686,17.91524,-132.63992,68.0
1774823521.601719,0.0038712024688720703,2026-03-29T22:32:01.601,2026-03-29T18:32:01.601,-21534.57,-43805.384999999995,-77019.25499999999,-48574.08,-8909.505,-16167.779999999999,8045.594999999999,-63363.195,4.657438052913477,-0.2781120370211277,-4.551721034307944,-8.687715787814858,-6.975830219079906,-1.7281333346556402,12.128827852210096,15.474798494134061,0.212951115,-0.9221778150000001,0.218566335,-2.45686,17.91524,-132.63992,68.0
1774823521.601738,1.9073486328125e-05,2026-03-29T22:32:01.601,2026-03-29T18:32:01.601,-21533.67,-43804.71,-77021.685,-48602.655,-8943.48,-16159.5,8054.46,-63356.49,-6.055133712907219,-4.499962729528381,-1.2286171104586536,-3.419551995639463,-4.1034902926310215,2.860894089605273,18.38188856861272,8.096138656094798,0.212951115,-0.9221778150000001,0.218566335,-2.45686,17.91524,-132.63992,68.0
1774823521.6112375,0.009499549865722656,2026-03-29T22:32:01.611,2026-03-29T18:32:01.611,-21558.915,-43817.354999999996,-77029.2,-48608.415,-8950.77,-16156.98,8060.759999999999,-63372.915,-13.880237986497999,-6.739931648868481,2.743753745751837,3.590853408348891,0.6091792343519886,6.140884616295149,16.20612172015096,-2.6674895524600304,0.212951115,-0.9221778150000001,0.218566335,-2.45686,17.91524,-132.63992,68.0
1774823521.6112561,1.8596649169921875e-05,2026-03-29T22:32:01.611,2026-03-29T18:32:01.611,-21573.18,-43821.314999999995,-77020.965,-48563.729999999996,-8886.779999999999,-16119.99,8060.94,-63382.005,-15.057726889859296,-6.035244049359504,5.313390395638786,8.759669706352097,4.712785047655427,6.394006271571313,6.473093868994057,-11.759411041550631,0.212951115,-0.9221778150000001,0.218566335,-2.45686,17.91524,-132.63992,68.0
1774823521.611274,1.7881393432617188e-05,2026-03-29T22:32:01.611,2026-03-29T18:32:01.611,-21563.954999999998,-43821.854999999996,-77017.23,-48522.689999999995,-8838.765,-16113.644999999999,8037.63,-63381.509999999995,-9.048043723220072,-2.72356003271522,5.137811695331635,9.43696186922901,6.184784943109647,3.4029039853081944,-6.370117744816329,-15.10712533056245,0.212951115,-0.9221778150000001,0.218566335,-2.45686,17.91524,-132.63992,68.0
1774823521.6112795,5.4836273193359375e-06,2026-03-29T22:32:01.611,2026-03-29T18:32:01.611,-21532.41,-43800.21,-76998.915,-48517.38,-8847.135,-16127.279999999999,8018.37,-63363.42,1.2233709871255456,1.7158014539334028,2.2707917168541325,5.256680423644244,4.428153319112467,-1.410846573446793,-16.363336281604038,-11.454825019359706,0.212951115,-0.9221778150000001,0.218566335,-2.45686,17.91524,-132.63992,68.0
1774823521.6151495,0.0038700103759765625,2026-03-29T22:32:01.615,2026-03-29T18:32:01.615,-21512.61,-43797.869999999995,-77012.955,-48557.115,-8892.494999999999,-16155.539999999999,8004.509999999999,-63355.905,10.807524332315246,5.328002554301269,-1.8538698533460674,-1.6689656787752172,0.5133388017951798,-5.673543291663055,-18.84089517020005,-2.810539625716521,0.212951115,-0.9221778150000001,0.218566335,-2.45686,17.91524,-132.63992,68.0
1774823521.6151648,1.52587890625e-05,2026-03-29T22:32:01.615,2026-03-29T18:32:01.615,-21526.739999999998,-43810.604999999996,-77026.31999999999,-48566.564999999995,-8895.195,-16155.404999999999,8013.42,-63369.899999999994,15.141626351295987,6.553834618877577,-5.136296180782658,-7.813868733612002,-3.435416327592714,-7.235068639545034,-12.64252648873,6.637351148612968,0.212951115,-0.9221778150000001,0.218566335,-2.45686,17.91524,-132.63992,68.0
1774823521.617736,0.0025713443756103516,2026-03-29T22:32:01.617,2026-03-29T18:32:01.617,-21542.535,-43820.28,-77031.94499999999,-48558.465,-8873.64,-16122.555,8037.585,-63360.405,12.242803844243273,4.912858133023889,-5.86740877761503,-10.025739796997351,-5.370759858220568,-5.249106778064265,-0.6645228127144545,12.55787213461719,0.229308495,-0.933530325,0.20861763,1.95328,19.334419999999998,-136.56174,68.0
1774823521.6177514,1.52587890625e-05,2026-03-29T22:32:01.617,2026-03-29T18:32:01.617,-21548.07,-43805.655,-77000.58,-48527.909999999996,-8838.63,-16077.779999999999,8075.5199999999995,-63349.02,3.6214839249232864,1.1943571630747205,-3.6006705331252147,-7.132293612296873,-4.375793259948668,-0.6167723933993655,11.514642084051841,12.47473083491922,0.229308495,-0.933530325,0.20861763,1.95328,19.334419999999998,-136.56174,68.0
1774823521.6301615,0.012410163879394531,2026-03-29T22:32:01.630,2026-03-29T18:32:01.630,-21550.14,-43814.295,-77009.58,-48538.845,-8850.195,-16090.875,8083.17,-63335.7,-6.509161751237124,-2.921485723794327,0.5999108078165801,-0.5496480025697488,-1.100407114404716,4.4336408095490345,18.272634551015432,6.796894006280011,0.229308495,-0.933530325,0.20861763,1.95328,19.334419999999998,-136.56174,68.0
1774823521.6301932,3.170967102050781e-05,2026-03-29T22:32:01.630,2026-03-29T18:32:01.630,-21562.515,-43821.54,-77016.78,-48544.83,-8859.555,-16104.465,8069.445,-63363.104999999996,-13.312853884506621,-5.630661138096998,4.665968674070366,6.41969949556168,2.629109506783501,7.429716787087572,16.57914971387835,-1.5435082078864648,0.229308495,-0.933530325,0.20861763,1.95328,19.334419999999998,-136.56174,68.0
1774823521.630221,2.765655517578125e-05,2026-03-29T22:32:01.630,2026-03-29T18:32:01.630,-21558.195,-43811.505,-77009.58,-48534.84,-8856.09,-16103.295,8060.759999999999,-63383.939999999995,-13.663596739214524,-5.8068654431397055,6.541202226686747,10.248062914169138,4.804178204461482,6.8697563688666845,7.374560741681171,-8.597265218287188,0.229308495,-0.933530325,0.20861763,1.95328,19.334419999999998,-136.56174,68.0
1774823521.6302328,1.1920928955078125e-05,2026-03-29T22:32:01.630,2026-03-29T18:32:01.630,-21528.719999999998,-43793.595,-76997.655,-48530.115,-8858.07,-16105.32,8054.639999999999,-63375.615,-7.596194080914404,-3.4762286665429802,5.2087249288246875,8.9646239156277,4.299423378926843,2.970714008278401,-4.945683041669575,-11.27820115787226,0.229308495,-0.933530325,0.20861763,1.95328,19.334419999999998,-136.56174,68.0
1774823521.6302474,1.4543533325195312e-05,2026-03-29T22:32:01.630,2026-03-29T18:32:01.630,-21535.739999999998,-43802.369999999995,-77008.72499999999,-48543.84,-8870.625,-16119.855,8044.92,-63374.265,1.8056309873703462,0.23827874672014768,1.2202054683828867,3.157599764516747,1.449719871765633,-2.4213393066657667,-14.661003188043582,-8.718100403669025,0.229308495,-0.933530325,0.20861763,1.95328,19.334419999999998,-136.56174,68.0
1774823521.630258,1.0728836059570312e-05,2026-03-29T22:32:01.630,2026-03-29T18:32:01.630,-21557.16,-43816.365,-77034.555,-48569.13,-8891.19,-16137.72,8033.085,-63385.47,9.984677047471989,3.6595113782658713,-3.5411173763536548,-4.31023786119261,-2.1560648807053253,-6.71787362448978,-17.423919187663074,-2.4997191818000197,0.229308495,-0.933530325,0.20861763,1.95328,19.334419999999998,-136.56174,68.0
1774823521.634532,0.004273891448974609,2026-03-29T22:32:01.634,2026-03-29T18:32:01.634,-21556.35,-43816.545,-77053.36499999999,-48572.955,-8886.869999999999,-16129.619999999999,8042.174999999999,-63377.774999999994,13.141169865176346,5.322894472775045,-6.757166692830542,-9.72939088761065,-4.543771153541453,-7.840415188624559,-12.23427999052228,4.262805042891282,0.229308495,-0.933530325,0.20861763,1.95328,19.334419999999998,-136.56174,68.0
1774823521.63465,0.00011801719665527344,2026-03-29T22:32:01.634,2026-03-29T18:32:01.634,-21551.085,-43817.715,-77053.455,-48583.665,-8895.645,-16137.855,8049.33,-63359.369999999995,10.017539191711586,4.612305232061257,-6.800888927847578,-10.395527558428519,-4.41680199412757,-5.228819740191806,-1.778969153695412,8.482154242725146,0.229308495,-0.933530325,0.20861763,1.95328,19.334419999999998,-136.56174,68.0
1774823521.637942,0.003292083740234375,2026-03-29T22:32:01.637,2026-03-29T18:32:01.637,-21534.48,-43804.89,-77023.485,-48576.465,-8896.635,-16132.545,8063.37,-63342.18,2.390005362066261,1.9845165720474784,-3.5449428522693966,-5.9556114136229334,-1.847247498238604,-0.11522150180256482,8.965008242593184,8.515816337032426,0.253478355,-0.96178953,0.190368165,-15.031099999999999,22.32538,-133.06719999999999,68.0
1774823521.6379573,1.52587890625e-05,2026-03-29T22:32:01.637,2026-03-29T18:32:01.637,-21537.36,-43802.865,-77006.205,-48573.405,-8902.305,-16135.244999999999,8058.24,-63345.555,-5.919638482299102,-1.2979783675981424,1.543600360556094,1.4223224912893855,1.769106031730178,5.067868156688761,15.13544806234033,4.789018143414466,0.253478355,-0.96178953,0.190368165,-15.031099999999999,22.32538,-133.06719999999999,68.0
1774823521.6418273,0.0038700103759765625,2026-03-29T22:32:01.641,2026-03-29T18:32:01.641,-21557.745,-43817.67,-77010.75,-48572.955,-8911.215,-16156.26,8037.09,-63362.024999999994,-10.970654112310951,-3.777513660004529,6.076992154450599,8.131874747883513,4.465760639343637,7.856268527040238,14.219564671087836,-0.6043407000861356,0.253478355,-0.96178953,0.190368165,-15.031099999999999,22.32538,-133.06719999999999,68.0
1774823521.6418476,2.0265579223632812e-05,2026-03-29T22:32:01.641,2026-03-29T18:32:01.641,-21561.885,-43830.54,-77023.44,-48551.174999999996,-8904.195,-16165.664999999999,8020.844999999999,-63370.619999999995,-10.592263422877082,-4.458051486725501,7.873560605260119,10.913004844789924,4.7628458010802115,6.933226525305131,7.0749049924288405,-5.044478366687817,0.253478355,-0.96178953,0.190368165,-15.031099999999999,22.32538,-133.06719999999999,68.0
1774823521.6459615,0.004113912582397461,2026-03-29T22:32:01.645,2026-03-29T18:32:01.645,-21558.105,-43834.185,-77035.275,-48538.935,-8890.425,-16156.71,8022.0599999999995,-63368.82,-5.320549558404535,-3.2076762056054537,6.00269758244627,8.4454236265869,2.4648032451674875,2.751696430313701,-2.676983816528341,-6.6611695119002325,0.253478355,-0.96178953,0.190368165,-15.031099999999999,22.32538,-133.06719999999999,68.0
1774823521.645992,3.0517578125e-05,2026-03-29T22:32:01.645,2026-03-29T18:32:01.645,-21557.385,-43815.915,-77016.555,-48529.619999999995,-8868.375,-16131.644999999999,8037.495,-63378.72,2.0226330987907075,-0.7425310980690679,1.2492736624984244,1.9662942511956045,-1.226764172679263,-2.694147127937909,-10.500954750069331,-5.119840805154666,0.253478355,-0.96178953,0.190368165,-15.031099999999999,22.32538,-133.06719999999999,68.0
1774823521.65003,0.0040378570556640625,2026-03-29T22:32:01.650,2026-03-29T18:32:01.650,-21550.14,-43812.674999999996,-77024.34,-48554.955,-8874.72,-16131.105,8033.58,-63371.79,7.8298414747150025,1.7676905322528882,-4.227830067774223,-5.373864127741114,-4.346314058293235,-6.830214058675335,-13.091028301364899,-1.58913642244338,0.253478355,-0.96178953,0.190368165,-15.031099999999999,22.32538,-133.06719999999999,68.0
1774823521.6500504,2.0503997802734375e-05,2026-03-29T22:32:01.650,2026-03-29T18:32:01.650,-21540.555,-43812.765,-77041.8,-48602.475,-8900.64,-16148.564999999999,8023.905,-63361.755,9.493881033639495,3.260696272563467,-7.888125591231824,-10.073180175311693,-5.208672335478305,-7.728754178525917,-9.777440058734125,2.009343572397664,0.253478355,-0.96178953,0.190368165,-15.031099999999999,22.32538,-133.06719999999999,68.0
1774823521.6542225,0.004172086715698242,2026-03-29T22:32:01.654,2026-03-29T18:32:01.654,-21544.515,-43819.965,-77049.18,-48621.24,-8905.095,-16147.664999999999,8030.61,-63364.049999999996,6.589303984962628,3.2371313977771745,-7.991140891745563,-9.970810041625464,-3.3106401608107783,-5.0113908191675645,-2.5939508245948217,4.024735717458204,0.253478355,-0.96178953,0.190368165,-15.031099999999999,22.32538,-133.06719999999999,68.0
1774823521.6542432,2.0742416381835938e-05,2026-03-29T22:32:01.654,2026-03-29T18:32:01.654,-21544.245,-43816.86,-77026.995,-48576.284999999996,-8879.445,-16134.345,8035.92,-63364.77,0.9091310289397477,1.9120848945323992,-4.416166892027118,-5.241231437547052,0.389494374884442,-0.004220281136289236,4.912617660882573,3.837086527702434,0.253478355,-0.96178953,0.190368165,-15.031099999999999,22.32538,-133.06719999999999,68.0
1774823521.658008,0.0037648677825927734,2026-03-29T22:32:01.658,2026-03-29T18:32:01.658,-21555.989999999998,-43805.25,-76973.48999999999,-48481.92,-8826.84,-16107.39,8056.035,-63370.665,-4.584572738264761,0.02554957095189667,1.2626189057290305,1.7682253085256183,3.965596527258487,4.915924580641126,9.454190445453978,2.0029142202827486,0.28063893,-0.981503835,0.177550815,-22.47798,21.18088,-122.73617999999999,68.0
1774823521.6580377,2.956390380859375e-05,2026-03-29T22:32:01.658,2026-03-29T18:32:01.658,-21563.415,-43815.24,-76981.86,-48489.93,-8845.38,-16115.58,8061.57,-63373.814999999995,-7.301919382705899,-1.5601918908153702,6.482846910791324,7.732924838058065,5.53276167142521,7.458903270033358,9.460494614683167,-0.21650028854772763,0.28063893,-0.981503835,0.177550815,-22.47798,21.18088,-122.73617999999999,68.0
1774823521.662126,0.004088401794433594,2026-03-29T22:32:01.662,2026-03-29T18:32:01.662,-21549.195,-43822.395,-77014.845,-48544.2,-8890.154999999999,-16139.564999999999,8039.655,-63366.524999999994,-6.2574887572473985,-2.2607805693814718,8.858755586390386,9.958286101660148,4.240961306604823,6.494114791441705,5.568669899306281,-1.6270452134179638,0.28063893,-0.981503835,0.177550815,-22.47798,21.18088,-122.73617999999999,68.0
1774823521.6621492,2.3126602172851562e-05,2026-03-29T22:32:01.662,2026-03-29T18:32:01.662,-21536.055,-43820.685,-77021.64,-48567.509999999995,-8907.164999999999,-16151.13,8022.509999999999,-63370.305,-2.4021834013640793,-1.9787239802849659,7.2707993468783245,7.607773038351921,0.7292658082365994,2.5533078031485075,0.024199153363420333,-1.7299105606642642,0.28063893,-0.981503835,0.177550815,-22.47798,21.18088,-122.73617999999999,68.0
1774823521.665871,0.0037217140197753906,2026-03-29T22:32:01.665,2026-03-29T18:32:01.665,-21536.73,-43821.405,-77019.39,-48583.755,-8899.785,-16135.65,8031.96,-63373.005,2.041343389006586,-1.049512054963136,2.383026430882236,1.9863192247751726,-3.1999906555858932,-2.459980978639713,-4.582827541756387,-0.8808314124357043,0.28063893,-0.981503835,0.177550815,-22.47798,21.18088,-122.73617999999999,68.0
1774823521.6658924,2.1457672119140625e-05,2026-03-29T22:32:01.665,2026-03-29T18:32:01.665,-21543.57,-43818.705,-77026.86,-48586.32,-8896.23,-16130.519999999999,8042.264999999999,-63364.229999999996,4.822839995553904,0.00637261040825272,-3.6462549222221927,-4.196960827463866,-5.517444923434531,-6.196671243617375,-6.54689918007034,0.05945202876675427,0.28063893,-0.981503835,0.177550815,-22.47798,21.18088,-122.73617999999999,68.0
1774823521.6699548,0.0040624141693115234,2026-03-29T22:32:01.669,2026-03-29T18:32:01.669,-21532.905,-43813.53,-77038.245,-48594.555,-8922.734999999999,-16165.619999999999,8031.105,-63348.75,4.805247859069892,0.7679585156771961,-8.128434716425344,-8.167622469022167,-5.02287695681493,-6.970425801061896,-5.649540315807937,0.3358928455287737,0.28063893,-0.981503835,0.177550815,-22.47798,21.18088,-122.73617999999999,68.0
1774823521.6699688,1.4066696166992188e-05,2026-03-29T22:32:01.669,2026-03-29T18:32:01.669,-21504.329999999998,-43813.439999999995,-77048.325,-48606.39,-8941.5,-16197.074999999999,8010.9,-63323.055,2.4229405258615,1.0814508653759805,-9.047749601195875,-8.350089651575678,-1.9684445958185524,-4.52178725056572,-2.9391810709970163,-0.20922153119915476,0.28063893,-0.981503835,0.177550815,-22.47798,21.18088,-122.73617999999999,68.0
1774823521.6786747,0.008705854415893555,2026-03-29T22:32:01.678,2026-03-29T18:32:01.678,-21522.96,-43820.145,-77063.76,-48597.479999999996,-8926.02,-16184.205,8008.469999999999,-63347.265,-0.7234501410732079,1.0439843016242225,-5.963708447949242,-4.9716873905879595,2.075629137288215,-0.09064707796411783,0.05785214096326236,-1.0551484986407773,0.28063893,-0.981503835,0.177550815,-22.47798,21.18088,-122.73617999999999,68.0
1774823521.678697,2.2411346435546875e-05,2026-03-29T22:32:01.678,2026-03-29T18:32:01.678,-21573.945,-43819.92,-77050.08,-48564.045,-8882.82,-16135.65,8038.889999999999,-63406.395,-2.848957140963205,0.8498915550305864,-0.2111401783963598,0.21248635027423102,5.039627318946794,4.213260173238813,2.182252825201826,-1.3708204195769205,0.28063893,-0.981503835,0.177550815,-22.47798,21.18088,-122.73617999999999,68.0
1774823521.6787448,4.76837158203125e-05,2026-03-29T22:32:01.678,2026-03-29T18:32:01.678,-21564.899999999998,-43820.82,-77041.75499999999,-48565.485,-8887.815,-16141.14,8034.57,-63376.02,-2.9701663882923732,0.6204376974250797,5.688129219478247,4.854639787412124,5.426345662980204,6.421589842700828,3.0805802119277117,-0.6009068907644349,0.306945015,-0.996884655,0.170104545,-37.9974,22.29486,-112.90874,68.0
1774823521.6787562,1.1444091796875e-05,2026-03-29T22:32:01.678,2026-03-29T18:32:01.678,-21551.805,-43824.33,-77039.685,-48568.905,-8882.82,-16131.42,8015.264999999999,-63354.465,-1.3600153299055302,0.3332728443248937,9.137775697396096,7.10282108141322,3.0763120601774507,5.6126624894251655,3.0773575322064013,1.094991973158167,0.306945015,-0.996884655,0.170104545,-37.9974,22.29486,-112.90874,68.0
1774823521.6827052,0.00394892692565918,2026-03-29T22:32:01.682,2026-03-29T18:32:01.682,-21540.239999999998,-43811.595,-77015.295,-48557.835,-8867.925,-16115.849999999999,8015.8949999999995,-63349.515,0.7388691792533073,-0.10858669803572098,8.610104274306561,6.32621254209519,-0.7687349289587504,2.2921239771123862,2.676705656839803,2.835461811115418,0.306945015,-0.996884655,0.170104545,-37.9974,22.29486,-112.90874,68.0
1774823521.6827223,1.71661376953125e-05,2026-03-29T22:32:01.682,2026-03-29T18:32:01.682,-21537.0,-43813.619999999995,-77016.645,-48568.725,-8883.99,-16127.91,8031.735,-63351.63,1.9305759921842724,-0.7271296762442666,4.31687903220608,3.201145918713619,-4.128297537372662,-1.9060041678678792,2.090401962942119,3.4791088002958426,0.306945015,-0.996884655,0.170104545,-37.9974,22.29486,-112.90874,68.0
1774823521.6857781,0.0030558109283447266,2026-03-29T22:32:01.685,2026-03-29T18:32:01.685,-21529.17,-43792.695,-76993.245,-48533.265,-8857.484999999999,-16103.609999999999,8054.91,-63374.985,1.5155864906235015,-1.3569388855914948,-1.8836947443031051,-0.7772748807100599,-5.3162241695389945,-5.027337386217501,1.1256470098295046,2.311921447910838,0.306945015,-0.996884655,0.170104545,-37.9974,22.29486,-112.90874,68.0
1774823521.6857965,1.8358230590820312e-05,2026-03-29T22:32:01.685,2026-03-29T18:32:01.685,-21534.66,-43783.965,-76974.435,-48505.229999999996,-8837.865,-16092.72,8067.24,-63382.634999999995,-0.11872942431271978,-1.6693308297553549,-7.298946221332491,-4.035938525101526,-3.8007038901567687,-5.713012635276106,-0.5080405083452352,-0.4342576222360065,0.306945015,-0.996884655,0.170104545,-37.9974,22.29486,-112.90874,68.0
1774823521.690302,0.0045053958892822266,2026-03-29T22:32:01.690,2026-03-29T18:32:01.690,-21528.945,-43782.119999999995,-76978.34999999999,-48513.645,-8848.305,-16104.824999999999,8064.224999999999,-63360.494999999995,-1.778304688342099,-1.3454231499713751,-9.574686475466489,-5.538967878258752,-0.4468477587294298,-3.7914495256203873,-2.7185937458602765,-3.5582841011752846,0.306945015,-0.996884655,0.170104545,-37.9974,22.29486,-112.90874,68.0
1774823521.6903217,1.9788742065429688e-05,2026-03-29T22:32:01.690,2026-03-29T18:32:01.690,-21536.864999999998,-43799.04,-77004.45,-48547.17,-8876.97,-16132.859999999999,8051.4,-63345.195,-2.2314115322153403,-0.30680661680920207,-7.717097665626468,-5.040845520061109,2.971145224536563,-0.28819354787762436,-4.764829303771941,-5.428159797277986,0.306945015,-0.996884655,0.170104545,-37.9974,22.29486,-112.90874,68.0
1774823521.6940284,0.003706693649291992,2026-03-29T22:32:01.694,2026-03-29T18:32:01.694,-21557.204999999998,-43821.045,-77023.62,-48567.6,-8890.244999999999,-16147.349999999999,8042.759999999999,-63359.549999999996,-1.0024947975390137,1.143140751994265,-2.5211675471075514,-2.970737199784676,4.716102218683877,3.1174118077303556,-5.472983666989202,-4.833761290753891,0.306945015,-0.996884655,0.170104545,-37.9974,22.29486,-112.90874,68.0
1774823521.69405,2.1696090698242188e-05,2026-03-29T22:32:01.694,2026-03-29T18:32:01.694,-21543.795,-43807.409999999996,-77004.495,-48544.515,-8869.185,-16130.43,8049.285,-63370.079999999994,1.2861676952472505,2.382173507763891,3.7763767529056826,-0.11945906291694847,3.985404098801847,4.902724767836118,-3.8935443600856616,-1.7084858704228854,0.306945015,-0.996884655,0.170104545,-37.9974,22.29486,-112.90874,68.0
1774823521.6978571,0.00380706787109375,2026-03-29T22:32:01.697,2026-03-29T18:32:01.697,-21534.3,-43803.854999999996,-77001.93,-48549.555,-8882.369999999999,-16132.365,8048.384999999999,-63357.93,3.2397714066782597,2.742102163248391,8.465269526297135,2.6618174254669533,1.2905015059549627,4.385900939276813,-0.036776274711291204,2.690906138870581,0.320494785,-1.030820115,0.15771444,-46.3904,25.087439999999997,-99.55623999999999,68.0
1774823521.6978755,1.8358230590820312e-05,2026-03-29T22:32:01.697,2026-03-29T18:32:01.697,-21538.53,-43808.445,-77008.77,-48569.625,-8902.98,-16132.005,8052.84,-63356.534999999996,3.5095504820859613,1.8694700521002816,9.529995316350895,4.636618875867805,-1.8658913235223071,1.9745780475542567,4.79656525154964,6.295394722578389,0.320494785,-1.030820115,0.15771444,-46.3904,25.087439999999997,-99.55623999999999,68.0
1774823521.7027893,0.004913806915283203,2026-03-29T22:32:01.702,2026-03-29T18:32:01.702,-21540.329999999998,-43811.505,-77018.355,-48573.27,-8905.994999999999,-16142.13,8038.17,-63360.045,1.636322386072601,-0.020507521771974943,6.514124703044127,5.255473064895718,-3.822409616814502,-1.1049045540346623,8.400847881309003,7.214725029664622,0.320494785,-1.030820115,0.15771444,-46.3904,25.087439999999997,-99.55623999999999,68.0
1774823521.7028098,2.0503997802734375e-05,2026-03-29T22:32:01.702,2026-03-29T18:32:01.702,-21550.545,-43817.265,-77023.98,-48558.015,-8891.82,-16140.465,8033.58,-63378.945,-1.5807678263637042,-2.1588192675721776,0.711084511661604,4.225122219997728,-3.642966356454328,-3.43239578726788,8.686927056183912,4.725994828854557,0.320494785,-1.030820115,0.15771444,-46.3904,25.087439999999997,-99.55623999999999,68.0
1774823521.7062445,0.0034346580505371094,2026-03-29T22:32:01.706,2026-03-29T18:32:01.706,-21559.364999999998,-43810.38,-77014.395,-48543.03,-8872.38,-16122.779999999999,8054.6849999999995,-63392.265,-4.435199212034388,-3.5386446937132727,-5.396296296825659,1.637365239670075,-1.5785900358676797,-4.054218432123069,4.859047289902566,-0.2559232268601674,0.320494785,-1.030820115,0.15771444,-46.3904,25.087439999999997,-99.55623999999999,68.0
1774823521.7062807,3.62396240234375e-05,2026-03-29T22:32:01.706,2026-03-29T18:32:01.706,-21553.425,-43808.04,-77022.09,-48564.405,-8886.465,-16135.965,8051.625,-63377.189999999995,-5.224559175969602,-3.4013417956041154,-9.202417824264057,-1.8945823898000003,1.1266742935205076,-2.8693655104995073,-1.9032891172385025,-5.506809719630483,0.320494785,-1.030820115,0.15771444,-46.3904,25.087439999999997,-99.55623999999999,68.0
1774823521.7115223,0.0052416324615478516,2026-03-29T22:32:01.711,2026-03-29T18:32:01.711,-21542.76,-43807.545,-77022.58499999999,-48565.305,-8881.74,-16134.255,8035.335,-63361.845,-3.2339644473181215,-1.6527765250642326,-9.091831889843371,-5.240407277479504,2.959228932097635,-0.5875584191128413,-8.724438335271454,-8.506546685544606,0.320494785,-1.030820115,0.15771444,-46.3904,25.087439999999997,-99.55623999999999,68.0
1774823521.711543,2.0742416381835938e-05,2026-03-29T22:32:01.711,2026-03-29T18:32:01.711,-21541.094999999998,-43815.015,-77032.17,-48561.615,-8873.73,-16130.564999999999,8023.41,-63370.619999999995,0.764306882918311,1.0179466088523785,-5.122575574884243,-7.031949928432841,2.9779475882193256,1.6792179755804724,-12.265315392127365,-7.666555323789125,0.320494785,-1.030820115,0.15771444,-46.3904,25.087439999999997,-99.55623999999999,68.0
1774823521.71458,0.003036975860595703,2026-03-29T22:32:01.714,2026-03-29T18:32:01.714,-21532.545,-43815.509999999995,-77041.75499999999,-48581.46,-8890.154999999999,-16141.005,8028.719999999999,-63371.384999999995,4.808701725664884,3.409075692263406,1.0082572754094539,-6.20794353837624,1.3091242301062502,2.9630813928407846,-10.376019011890556,-3.166017170653417,0.320494785,-1.030820115,0.15771444,-46.3904,25.087439999999997,-99.55623999999999,68.0
1774823521.7146113,3.123283386230469e-05,2026-03-29T22:32:01.714,2026-03-29T18:32:01.714,-21512.565,-43800.795,-77028.25499999999,-48582.765,-8902.664999999999,-16148.519999999999,8045.37,-63348.119999999995,6.7295555828674365,4.360750030248733,6.69590501821422,-2.6157644285183763,-0.9700689087356561,2.854275066154655,-3.3422729982156123,3.041138889684856,0.320494785,-1.030820115,0.15771444,-46.3904,25.087439999999997,-99.55623999999999,68.0
1774823521.7220616,0.0074503421783447266,2026-03-29T22:32:01.722,2026-03-29T18:32:01.722,-21519.945,-43788.015,-76997.79,-48552.119999999995,-8884.8,-16138.529999999999,8061.21,-63346.454999999994,5.314935167907729,3.3313683103434006,9.538693680533546,2.6624626290289943,-2.4802081994130245,1.6053740495806303,5.976251135909945,8.090832535870579,0.334654905,-1.05920139,0.14782677,-56.0805,28.063139999999997,-85.18132,68.0
1774823521.7220821,2.0503997802734375e-05,2026-03-29T22:32:01.722,2026-03-29T18:32:01.722,-21528.495,-43793.729999999996,-77001.93,-48573.18,-8915.67,-16168.005,8065.304999999999,-63333.63,1.0347754231276687,0.7035535419270433,8.352613638908277,7.535077855846319,-2.345249832999749,-0.08276011029368631,13.305814369381595,9.554843954346822,0.334654905,-1.05920139,0.14782677,-56.0805,28.063139999999997,-85.18132,68.0
1774823521.7221217,3.9577484130859375e-05,2026-03-29T22:32:01.722,2026-03-29T18:32:01.722,-21554.73,-43817.265,-77027.175,-48595.095,-8937.72,-16185.195,8052.4349999999995,-63356.67,-4.09465227893973,-2.352064921822051,3.6606974209097256,9.706446324230894,-0.6958130961027376,-1.4474157867689834,14.947426515259538,6.625102439717691,0.334654905,-1.05920139,0.14782677,-56.0805,28.063139999999997,-85.18132,68.0
1774823521.7221286,6.9141387939453125e-06,2026-03-29T22:32:01.722,2026-03-29T18:32:01.722,-21553.739999999998,-43823.475,-77037.48,-48569.58,-8915.49,-16165.98,8040.78,-63353.7,-7.479850439644374,-4.410620493819061,-2.5435295349782034,7.766279822444094,1.4159806714982246,-2.012843911826981,9.655387962078494,0.5518954310304129,0.334654905,-1.05920139,0.14782677,-56.0805,28.063139999999997,-85.18132,68.0
1774823521.7284703,0.006341695785522461,2026-03-29T22:32:01.728,2026-03-29T18:32:01.728,-21556.305,-43829.1,-77038.515,-48530.34,-8863.335,-16120.305,8021.88,-63364.634999999995,-7.278226218145528,-4.47533147614987,-7.649192033782075,2.0415287112308356,2.6419303192072023,-1.7400961806335307,-0.5536019866320645,-5.898568277792099,0.334654905,-1.05920139,0.14782677,-56.0805,28.063139999999997,-85.18132,68.0
1774823521.7284915,2.1219253540039062e-05,2026-03-29T22:32:01.728,2026-03-29T18:32:01.728,-21549.285,-43821.54,-77032.935,-48530.205,-8845.425,-16094.43,8017.11,-63378.899999999994,-3.3985317667182495,-2.473674105981791,-9.529797479203046,-5.283259421065007,2.146293748483847,-0.9406447168444254,-11.147907844168174,-9.727709143985939,0.334654905,-1.05920139,0.14782677,-56.0805,28.063139999999997,-85.18132,68.0
1774823521.731773,0.0032813549041748047,2026-03-29T22:32:01.731,2026-03-29T18:32:01.731,-21537.675,-43805.835,-77019.795,-48541.86,-8849.609999999999,-16093.08,8013.554999999999,-63385.29,2.367630103140724,0.6853627285524031,-7.427003472005691,-10.96453702383022,0.13029227677849337,-0.04306913368344458,-17.11947940006768,-9.123353471536587,0.334654905,-1.05920139,0.14782677,-56.0805,28.063139999999997,-85.18132,68.0
1774823521.7317936,2.0742416381835938e-05,2026-03-29T22:32:01.731,2026-03-29T18:32:01.731,-21521.204999999998,-43787.205,-76996.62,-48538.35,-8845.154999999999,-16091.595,8030.655,-63354.689999999995,7.187324567384446,3.532597869514857,-2.2498317461298196,-12.14631464044745,-2.241061852259728,0.6361830502993226,-15.383135476029546,-4.331908160431835,0.334654905,-1.05920139,0.14782677,-56.0805,28.063139999999997,-85.18132,68.0
1774823521.749342,0.017548322677612305,2026-03-29T22:32:01.749,2026-03-29T18:32:01.749,-21510.18,-43785.585,-76994.145,-48554.955,-8857.305,-16099.244999999999,8055.585,-63308.43,8.598627876256298,4.739438830294906,3.8254124432906527,-7.80419851073376,-3.4881465068126163,0.995992699914235,-6.372559577153588,2.441802781889357,0.334654905,-1.05920139,0.14782677,-56.0805,28.063139999999997,-85.18132,68.0
1774823521.749365,2.3126602172851562e-05,2026-03-29T22:32:01.749,2026-03-29T18:32:01.749,-21519.405,-43796.835,-76998.33,-48546.765,-8868.69,-16117.65,8055.855,-63294.75,5.780903037834339,3.7560333000136756,8.275109442634266,0.5477370975815454,-2.6880205873550183,1.0992918668180929,5.993441996271749,8.066495330403614,0.334654905,-1.05920139,0.14782677,-56.0805,28.063139999999997,-85.18132,68.0
1774823521.7494085,4.3392181396484375e-05,2026-03-29T22:32:01.749,2026-03-29T18:32:01.749,-21534.344999999998,-43809.39,-77018.895,-48530.295,-8883.63,-16139.07,8050.7699999999995,-63312.255,0.02301262266152788,1.072146722249049,9.276617410098039,9.329909608709242,-0.07204171301701165,1.0367508197318671,16.034983869211846,9.957688745063846,0.34753329,-1.06176486,0.140319465,-71.38628,30.27584,-72.54603999999999,68.0
1774823521.7494173,8.821487426757812e-06,2026-03-29T22:32:01.749,2026-03-29T18:32:01.749,-21534.434999999998,-43814.564999999995,-77039.775,-48532.409999999996,-8888.58,-16153.38,8038.17,-63337.77,-5.873096885359818,-2.027765447769847,6.449259652319813,14.43758571151703,3.0117949184058483,0.8190027462320816,18.95698586288937,7.28814622239735,0.34753329,-1.06176486,0.140319465,-71.38628,30.27584,-72.54603999999999,68.0
1774823521.749428,1.0728836059570312e-05,2026-03-29T22:32:01.749,2026-03-29T18:32:01.749,-21549.96,-43812.45,-77018.175,-48508.965,-8857.845,-16128.99,8053.155,-63354.24,-8.973524996237463,-4.0923076352179235,0.9895720001938547,13.182564178960247,4.789000436937122,0.3785401185385459,13.166968627097889,1.358814580194764,0.34753329,-1.06176486,0.140319465,-71.38628,30.27584,-72.54603999999999,68.0
1774823521.749437,9.059906005859375e-06,2026-03-29T22:32:01.749,2026-03-29T18:32:01.749,-21543.344999999998,-43813.619999999995,-77029.73999999999,-48549.825,-8871.48,-16128.539999999999,8056.575,-63331.02,-7.689415877317283,-4.201224757731517,-4.841643275078123,5.706246893418995,4.048766128263789,-0.3224528081848086,1.1319134293964368,-5.040172934692826,0.34753329,-1.06176486,0.140319465,-71.38628,30.27584,-72.54603999999999,68.0
1774823521.749448,1.0967254638671875e-05,2026-03-29T22:32:01.749,2026-03-29T18:32:01.749,-21538.89,-43809.705,-77035.455,-48604.229999999996,-8901.045,-16144.199999999999,8044.245,-63323.865,-2.5993047845801303,-2.389831270881631,-8.65718696922611,-4.878662920162874,0.8921139635972657,-1.1638327140390379,-11.682374080435139,-8.962543320335383,0.34753329,-1.06176486,0.140319465,-71.38628,30.27584,-72.54603999999999,68.0
1774823521.749457,8.821487426757812e-06,2026-03-29T22:32:01.749,2026-03-29T18:32:01.749,-21531.195,-43801.02,-77034.42,-48630.869999999995,-8909.324999999999,-16142.49,8026.245,-63337.454999999994,3.811170956714305,0.402620548423631,-8.916187931731896,-13.782674348396476,-3.200469740931867,-1.8296014914021104,-19.328258518319306,-8.687749843702596,0.34753329,-1.06176486,0.140319465,-71.38628,30.27584,-72.54603999999999,68.0
1774823521.749468,1.1205673217773438e-05,2026-03-29T22:32:01.749,2026-03-29T18:32:01.749,-21503.835,-43780.365,-77016.33,-48637.845,-8948.205,-16167.644999999999,8015.8949999999995,-63331.604999999996,8.374335315839014,2.8219475802410483,-5.537676277288941,-16.732563064970204,-6.0679397812269045,-1.9209847699433213,-18.174044017516962,-4.4927763529475575,0.34753329,-1.06176486,0.140319465,-71.38628,30.27584,-72.54603999999999,68.0
1774823521.7494771,9.059906005859375e-06,2026-03-29T22:32:01.749,2026-03-29T18:32:01.749,-21497.265,-43763.759999999995,-76978.26,-48582.63,-8928.09,-16151.039999999999,8028.585,-63341.954999999994,8.820792698479579,3.769886188281381,0.08454353034555674,-12.045847875869315,-6.001439685095802,-1.1828509914503653,-8.649347899493897,1.540049705026796,0.34753329,-1.06176486,0.140319465,-71.38628,30.27584,-72.54603999999999,68.0
1774823521.7538824,0.00440526008605957,2026-03-29T22:32:01.753,2026-03-29T18:32:01.753,-21529.17,-43799.13,-76997.34,-48553.02,-8883.27,-16116.029999999999,8052.884999999999,-63342.45,4.9199780584127355,2.918402303363937,5.659950104697264,-1.5683384450779196,-2.719443110381315,0.28136908458224763,4.90962704846247,6.562541440329695,0.34753329,-1.06176486,0.140319465,-71.38628,30.27584,-72.54603999999999,68.0
1774823521.7539,1.7642974853515625e-05,2026-03-29T22:32:01.753,2026-03-29T18:32:01.753,-21547.485,-43811.505,-76998.69,-48525.57,-8834.895,-16078.994999999999,8085.78,-63323.189999999995,-1.3966952494691631,0.8194625186874722,8.930828528283213,10.0395549279663,2.3565385803033125,1.9506106519509114,16.261602755230264,8.32634132246376,0.34753329,-1.06176486,0.140319465,-71.38628,30.27584,-72.54603999999999,68.0
1774823521.7590704,0.005170345306396484,2026-03-29T22:32:01.759,2026-03-29T18:32:01.759,-21554.235,-43815.645,-77010.25499999999,-48541.365,-8860.14,-16115.67,8085.014999999999,-63313.604999999996,-6.9961842455781165,-1.4246289044212588,8.577962325815923,17.39894168381022,6.721946096207054,3.0588207897700066,20.17146749583717,6.21133190624033,0.341734965,-1.0461399,0.13708461,-99.78514,30.71838,-59.84972,68.0
1774823521.7590897,1.9311904907226562e-05,2026-03-29T22:32:01.759,2026-03-29T18:32:01.759,-21538.53,-43805.61,-77012.09999999999,-48548.25,-8870.355,-16130.34,8050.59,-63322.649999999994,-9.10718209801025,-2.741973804149326,4.743912342069653,16.936468228211858,8.03187758586505,2.9493352147322276,14.855463860011021,1.4366874544481714,0.341734965,-1.0461399,0.13708461,-99.78514,30.71838,-59.84972,68.0
1774823521.762652,0.0035622119903564453,2026-03-29T22:32:01.762,2026-03-29T18:32:01.762,-21526.155,-43789.634999999995,-76996.305,-48531.555,-8854.289999999999,-16121.115,8039.969999999999,-63318.555,-6.701684638379183,-2.616154407406459,-1.0286504146766615,8.63664164096379,5.346005813224214,1.445253665865553,2.8042038389983492,-3.613848655872144,0.341734965,-1.0461399,0.13708461,-99.78514,30.71838,-59.84972,68.0
1774823521.7627163,6.437301635742188e-05,2026-03-29T22:32:01.762,2026-03-29T18:32:01.762,-21513.87,-43793.235,-77006.43,-48543.435,-8866.89,-16131.779999999999,8036.775,-63296.64,-1.0019312684400232,-1.292877642232171,-6.414582081214965,-3.844738709509982,-0.2803677859277976,-0.9671045958061353,-10.400001866512415,-6.588732824727355,0.341734965,-1.0461399,0.13708461,-99.78514,30.71838,-59.84972,68.0
1774823521.7659028,0.003186464309692383,2026-03-29T22:32:01.765,2026-03-29T18:32:01.765,-21528.945,-43810.83,-77026.23,-48559.455,-8879.085,-16138.935,8019.585,-63315.99,5.13900746475361,0.41680118380367953,-9.234164568306669,-14.808098906902126,-6.206549556967224,-3.2725870513369175,-18.702201477873736,-6.2841315829211135,0.341734965,-1.0461399,0.13708461,-99.78514,30.71838,-59.84972,68.0
1774823521.7659173,1.4543533325195312e-05,2026-03-29T22:32:01.765,2026-03-29T18:32:01.765,-21533.895,-43811.28,-77030.45999999999,-48568.365,-8889.164999999999,-16149.465,7989.299999999999,-63342.27,8.668334898112372,1.6077544866336426,-8.325786140288175,-19.144998815592263,-9.460437751527806,-4.356630890605819,-18.38590770606897,-3.140279703838957,0.341734965,-1.0461399,0.13708461,-99.78514,30.71838,-59.84972,68.0
1774823521.7756438,0.009726524353027344,2026-03-29T22:32:01.775,2026-03-29T18:32:01.775,-21524.265,-43805.564999999995,-77031.62999999999,-48572.505,-8893.17,-16153.515,7986.014999999999,-63351.45,7.8560786856648805,1.7611611724681346,-4.019424979585795,-14.7466050313816,-8.233476996368688,-3.5465743282894318,-9.755303563217927,1.0908313617732515,0.341734965,-1.0461399,0.13708461,-99.78514,30.71838,-59.84972,68.0
1774823521.775669,2.5272369384765625e-05,2026-03-29T22:32:01.775,2026-03-29T18:32:01.775,-21517.155,-43795.619999999995,-77021.09999999999,-48559.68,-8883.585,-16141.904999999999,8031.78,-63323.369999999995,3.1472785680346282,0.9786927438499124,1.979061154939569,-3.537032953802733,-2.8619537009192944,-1.0004218078649263,3.081062569146328,4.296632238795578,0.341734965,-1.0461399,0.13708461,-99.78514,30.71838,-59.84972,68.0
1774823521.775694,2.47955322265625e-05,2026-03-29T22:32:01.775,2026-03-29T18:32:01.775,-21530.34,-43786.215,-76987.34999999999,-48521.744999999995,-8854.74,-16121.16,8093.5199999999995,-63283.86,-3.0771863994382334,-0.13892665883638247,7.2543868184158855,9.37801341261334,4.229415142835404,2.272625578387109,14.187695642140815,5.066705809811103,0.341734965,-1.0461399,0.13708461,-99.78514,30.71838,-59.84972,68.0
1774823521.7757008,6.9141387939453125e-06,2026-03-29T22:32:01.775,2026-03-29T18:32:01.775,-21540.239999999998,-43791.84,-76975.29,-48510.494999999995,-8852.58,-16126.74,8095.5,-63262.079999999994,-7.703105329104128,-0.8798222898828576,9.643807015612934,18.065184872448395,9.638205790740473,4.8102015019431255,18.578795823171472,3.329408618350564,0.341734965,-1.0461399,0.13708461,-99.78514,30.71838,-59.84972,68.0
1774823521.7780037,0.002302885055541992,2026-03-29T22:32:01.778,2026-03-29T18:32:01.778,-21539.61,-43801.83,-77005.62,-48536.775,-8866.619999999999,-16137.539999999999,8062.695,-63287.369999999995,-8.440607225404888,-0.8439131329513868,8.117471837844128,18.520736410025897,10.632384483996331,5.35710098127559,14.480423833643034,0.2675373828762452,0.33477697500000003,-1.02306867,0.133117335,-135.84452,29.207639999999998,-49.0609,68.0
1774823521.7780266,2.288818359375e-05,2026-03-29T22:32:01.778,2026-03-29T18:32:01.778,-21528.27,-43795.53,-77015.385,-48563.595,-8889.93,-16143.029999999999,8040.105,-63291.555,-4.957222229010763,-0.15943430144546994,3.222561299375124,10.534892836351519,6.5299450853575545,3.4862068829407686,4.041006926348762,-2.399034221943476,0.33477697500000003,-1.02306867,0.133117335,-135.84452,29.207639999999998,-49.0609,68.0
1774823521.782152,0.004125356674194336,2026-03-29T22:32:01.782,2026-03-29T18:32:01.782,-21524.175,-43792.155,-77024.43,-48590.64,-8909.955,-16151.265,8040.285,-63302.354999999996,0.9740548963753509,0.6239994466159092,-3.1002385987650145,-2.2133991698904594,-0.8870336982373148,-0.1275045929653141,-7.790138350627147,-3.3542401394747863,0.33477697500000003,-1.02306867,0.133117335,-135.84452,29.207639999999998,-49.0609,68.0
1774823521.7821734,2.1457672119140625e-05,2026-03-29T22:32:01.782,2026-03-29T18:32:01.782,-21522.735,-43797.33,-77030.415,-48592.619999999995,-8908.47,-16151.49,8049.509999999999,-63302.49,6.375729412614404,0.8953449937831549,-8.273835185546094,-13.872508928649944,-8.159661756172824,-3.9406524263854434,-15.631952291259852,-2.344523657716529,0.33477697500000003,-1.02306867,0.133117335,-135.84452,29.207639999999998,-49.0609,68.0
1774823521.7863042,0.004130840301513672,2026-03-29T22:32:01.786,2026-03-29T18:32:01.786,-21527.774999999998,-43804.845,-77020.785,-48557.384999999995,-8870.984999999999,-16123.59,8064.134999999999,-63291.149999999994,8.557286365335624,0.3793554114248621,-10.12702336732744,-19.13389772356869,-11.78617175557502,-6.207163586364893,-16.14387692609047,-0.22193233002254562,0.33477697500000003,-1.02306867,0.133117335,-135.84452,29.207639999999998,-49.0609,68.0
1774823521.7863371,3.2901763916015625e-05,2026-03-29T22:32:01.786,2026-03-29T18:32:01.786,-21533.399999999998,-43800.435,-77007.015,-48537.314999999995,-8853.3,-16109.279999999999,8067.554999999999,-63275.49,6.450332803538766,-0.6666283456459565,-7.805153767853876,-15.672953087133118,-9.920765686211194,-5.785533175871493,-9.454195327424765,1.619252542545015,0.33477697500000003,-1.02306867,0.133117335,-135.84452,29.207639999999998,-49.0609,68.0
1774823521.790368,0.004030942916870117,2026-03-29T22:32:01.790,2026-03-29T18:32:01.790,-21534.66,-43802.1,-77017.05,-48553.965,-8866.619999999999,-16112.295,8061.21,-63276.704999999994,1.1265531174822663,-1.5800891178222516,-2.1678679498687785,-5.181655522813094,-3.3072291850274707,-2.7107797700220093,1.0678286104692822,2.0761321183644266,0.33477697500000003,-1.02306867,0.133117335,-135.84452,29.207639999999998,-49.0609,68.0
1774823521.7903957,2.765655517578125e-05,2026-03-29T22:32:01.790,2026-03-29T18:32:01.790,-21532.05,-43800.84,-77016.105,-48553.83,-8868.24,-16118.865,8060.174999999999,-63283.14,-4.74987262888399,-1.6818902661089237,4.512748003935547,7.467573776394812,5.0228164922883956,1.7545329224275679,10.51088388243636,0.9675950331438105,0.33477697500000003,-1.02306867,0.133117335,-135.84452,29.207639999999998,-49.0609,68.0
