unix_time_s,dt_s,UTC,LOCAL,EMG1_Raw,EMG2_Raw,EMG3_Raw,EMG4_Raw,EMG5_Raw,EMG6_Raw,EMG7_Raw,EMG8_Raw,EMG1_Filtered,EMG2_Filtered,EMG3_Filtered,EMG4_Filtered,EMG5_Filtered,EMG6_Filtered,EMG7_Filtered,EMG8_Filtered,Accel1_Raw,Accel2_Raw,Accel3_Raw,Gyro1_Raw,Gyro2_Raw,Gyro3_Raw,Battery
1774823249.5478091,,2026-03-29T22:27:29.547,2026-03-29T18:27:29.547,-27746.864999999998,-42348.104999999996,-79486.37999999999,-49894.784999999996,-10181.609999999999,-17238.555,6338.655,-57253.994999999995,-0.5379889149840872,-0.723396076088009,0.5273090133323979,7.776518052093133,-1.6361676116552726,-2.484298826281558,1.1337527669913314,0.0415007525331102,0.09149146500000001,-0.98730216,-0.17907669,-5.44782,-1.1444999999999999,-1.0224199999999999,68.0
1774823249.547824,1.4781951904296875e-05,2026-03-29T22:27:29.547,2026-03-29T18:27:29.547,-27754.605,-42349.455,-79490.11499999999,-49907.7,-10162.845,-17206.02,6353.505,-57269.655,-2.170394442284855,5.831688147140755,9.011052103583102,4.272637681709017,14.050754686839886,8.066488079094128,10.405924856765852,-0.7356560395101424,0.09149146500000001,-0.98730216,-0.17907669,-5.44782,-1.1444999999999999,-1.0224199999999999,68.0
1774823249.5478368,1.2874603271484375e-05,2026-03-29T22:27:29.547,2026-03-29T18:27:29.547,-27784.575,-42372.18,-79521.93,-49958.955,-10164.69,-17201.114999999998,6345.09,-57293.505,-2.844587658922426,9.725906043011735,13.51630226184316,0.8578649079190895,23.830388801261808,15.240185685135001,14.702376151018543,-1.038322717264043,0.09149146500000001,-0.98730216,-0.17907669,-5.44782,-1.1444999999999999,-1.0224199999999999,68.0
1774823249.5478413,4.5299530029296875e-06,2026-03-29T22:27:29.547,2026-03-29T18:27:29.547,-27772.739999999998,-42398.1,-79565.12999999999,-49958.82,-10200.33,-17265.78,6345.45,-57256.92,-2.2400562628831575,9.302695786969089,12.215011714580555,-0.4838423571370455,23.44517543018465,15.980508520194922,12.089638261363728,-0.8047616633865143,0.09149146500000001,-0.98730216,-0.17907669,-5.44782,-1.1444999999999999,-1.0224199999999999,68.0
1774823249.5478463,5.0067901611328125e-06,2026-03-29T22:27:29.547,2026-03-29T18:27:29.547,-27761.175,-42393.465,-79592.67,-49934.07,-10315.484999999999,-17354.295,6344.01,-57251.564999999995,-0.6264790675295716,4.8267637266030565,5.760185559624162,0.05201366434228418,12.961381719974643,9.944462410033214,3.9226386133282545,-0.2607071815872247,0.09149146500000001,-0.98730216,-0.17907669,-5.44782,-1.1444999999999999,-1.0224199999999999,68.0
1774823249.54785,3.5762786865234375e-06,2026-03-29T22:27:29.547,2026-03-29T18:27:29.547,-27760.094999999998,-42378.255,-79548.705,-49930.064999999995,-10335.869999999999,-17352.27,6328.08,-57264.84,1.2622560824866955,-1.6555178498714795,-3.0092355798042174,0.5746650913558203,-3.1850109590794804,-0.32839653180688244,-5.854484579830898,0.23780974791183052,0.09149146500000001,-0.98730216,-0.17907669,-5.44782,-1.1444999999999999,-1.0224199999999999,68.0
1774823249.5513878,0.003537893295288086,2026-03-29T22:27:29.551,2026-03-29T18:27:29.551,-27795.825,-42431.76,-79556.715,-49961.744999999995,-10253.925,-17303.399999999998,6261.929999999999,-57278.79,2.572856711490051,-7.244756911761451,-10.292504229973545,-0.8116932765159531,-18.038423841106475,-10.474715461860026,-12.632209071835911,0.42242210905932565,0.09149146500000001,-0.98730216,-0.17907669,-5.44782,-1.1444999999999999,-1.0224199999999999,68.0
1774823249.5514102,2.2411346435546875e-05,2026-03-29T22:27:29.551,2026-03-29T18:27:29.551,-27774.045,-42424.11,-79593.48,-50044.32,-10152.63,-17229.69,6262.245,-57254.939999999995,2.7293485707199543,-9.488530913796144,-12.966341349990568,-4.302803876019006,-25.114896390952957,-16.15872375980591,-13.337095855808583,0.2629634052800842,0.09149146500000001,-0.98730216,-0.17907669,-5.44782,-1.1444999999999999,-1.0224199999999999,68.0
1774823249.5556154,0.004205226898193359,2026-03-29T22:27:29.555,2026-03-29T18:27:29.555,-27789.164999999997,-42373.215,-79531.56,-49974.795,-10091.43,-17166.555,6331.7699999999995,-57263.939999999995,1.691805770677242,-7.469566419301606,-9.939215155150016,-7.883622269503921,-21.254201660577767,-14.933497001914224,-7.846475063922511,-0.03552694322830352,0.08459451,-0.98425041,-0.17932083000000001,-9.12548,-3.11304,-2.3653,68.0
1774823249.5556307,1.52587890625e-05,2026-03-29T22:27:29.555,2026-03-29T18:27:29.555,-27795.87,-42350.805,-79511.175,-50026.455,-10179.27,-17182.665,6399.719999999999,-57287.564999999995,-0.04236881884200908,-2.194669395203187,-2.6283344329657288,-8.463845599517727,-8.070388976175819,-7.31067431963515,1.0448389731501027,-0.1837635620813674,0.08459451,-0.98425041,-0.17932083000000001,-9.12548,-3.11304,-2.3653,68.0
1774823249.559015,0.0033843517303466797,2026-03-29T22:27:29.559,2026-03-29T18:27:29.559,-27793.754999999997,-42361.92,-79487.09999999999,-50005.395,-10231.965,-17238.015,6369.795,-57304.71,-1.6867033250135737,3.8873430892759604,5.6646506318152525,-4.032656354410913,8.682597003691596,3.436055151285799,9.049983312510461,-0.01279324627551574,0.08459451,-0.98425041,-0.17932083000000001,-9.12548,-3.11304,-2.3653,68.0
1774823249.559028,1.2874603271484375e-05,2026-03-29T22:27:29.559,2026-03-29T18:27:29.559,-27775.71,-42361.02,-79460.81999999999,-49903.74,-10162.395,-17217.27,6336.63,-57290.939999999995,-2.535834525022761,8.015770191186556,11.22290948336415,4.532725128844748,21.60494020451692,12.668070389684749,12.479053114952901,0.3963238860292718,0.08459451,-0.98425041,-0.17932083000000001,-9.12548,-3.11304,-2.3653,68.0
1774823249.5696514,0.010623455047607422,2026-03-29T22:27:29.569,2026-03-29T18:27:29.569,-27769.32,-42373.665,-79514.235,-49873.59,-10123.02,-17189.145,6318.045,-57274.92,-2.277155121068217,8.378262149914347,11.58701255093176,13.288324973384476,24.935128357299202,16.38914893334589,9.963609325727157,0.7443751580955829,0.08459451,-0.98425041,-0.17932083000000001,-9.12548,-3.11304,-2.3653,68.0
1774823249.5696719,2.0503997802734375e-05,2026-03-29T22:27:29.569,2026-03-29T18:27:29.569,-27780.434999999998,-42381.314999999995,-79531.785,-49857.615,-10096.785,-17161.155,6328.9349999999995,-57277.845,-1.1013254267029322,4.9236191738337745,6.677086403033304,17.053098797583274,17.161812397369303,12.993640426210971,2.999689285581779,0.6981800178714836,0.08459451,-0.98425041,-0.17932083000000001,-9.12548,-3.11304,-2.3653,68.0
1774823249.5696924,2.0503997802734375e-05,2026-03-29T22:27:29.569,2026-03-29T18:27:29.569,-27776.43,-42365.61,-79501.5,-49810.814999999995,-10128.465,-17185.59,6358.95,-57280.095,0.42533625218876214,-0.6447339556545574,-1.1621150799863231,12.393638274417096,1.760226873588259,3.9831294057676505,-4.904431140239371,0.12237440117335852,0.08459451,-0.98425041,-0.17932083000000001,-9.12548,-3.11304,-2.3653,68.0
1774823249.5696995,7.152557373046875e-06,2026-03-29T22:27:29.569,2026-03-29T18:27:29.569,-27791.37,-42383.79,-79518.825,-49792.365,-10205.19,-17237.97,6379.74,-57280.905,1.6465023303294684,-5.687614724054717,-8.2395394967825,0.07805187450399212,-14.328041012006492,-6.679464902296925,-10.00305110063278,-0.7844306790717707,0.08459451,-0.98425041,-0.17932083000000001,-9.12548,-3.11304,-2.3653,68.0
1774823249.569708,8.58306884765625e-06,2026-03-29T22:27:29.569,2026-03-29T18:27:29.569,-27792.719999999998,-42408.585,-79546.455,-49883.13,-10271.88,-17285.67,6368.94,-57277.215,2.1103971893993316,-7.8761623114207175,-11.242425788188001,-14.580941798323606,-23.825089713559098,-14.310162589571215,-10.108971214026639,-1.547429987607699,0.08459451,-0.98425041,-0.17932083000000001,-9.12548,-3.11304,-2.3653,68.0
1774823249.5697143,6.198883056640625e-06,2026-03-29T22:27:29.569,2026-03-29T18:27:29.569,-27781.469999999998,-42423.255,-79631.81999999999,-50123.07,-10314.99,-17284.184999999998,6330.465,-57286.979999999996,1.7347433960606489,-6.2792751760423995,-8.808227524831532,-24.007153398382926,-22.446468898118237,-15.57704746962644,-5.539908415919813,-1.6579079952588924,0.08459451,-0.98425041,-0.17932083000000001,-9.12548,-3.11304,-2.3653,68.0
1774823249.5751672,0.005452871322631836,2026-03-29T22:27:29.575,2026-03-29T18:27:29.575,-27765.045,-42422.22,-79654.36499999999,-50208.255,-10282.904999999999,-17277.434999999998,6340.05,-57258.494999999995,0.7823280547769647,-1.7799557230109886,-2.1895987401111205,-22.294023607031725,-10.890980828059334,-9.982585454362836,1.1979794287575618,-0.8783551561086637,0.080261025,-0.9856542150000001,-0.17199663,-12.86418,-4.10494,-2.39582,68.0
1774823249.5751784,1.1205673217773438e-05,2026-03-29T22:27:29.575,2026-03-29T18:27:29.575,-27761.265,-42382.665,-79529.265,-50079.689999999995,-10187.279999999999,-17238.78,6388.785,-57242.159999999996,-0.31200409433213355,3.375199298526718,5.332005384627957,-8.741616439276337,5.459779624543561,-0.08317251218170409,6.763218973390839,0.5629739270709018,0.080261025,-0.9856542150000001,-0.17199663,-12.86418,-4.10494,-2.39582,68.0
1774823249.5801325,0.004954099655151367,2026-03-29T22:27:29.580,2026-03-29T18:27:29.580,-27792.629999999997,-42365.564999999995,-79485.3,-49965.39,-10099.845,-17187.165,6386.3099999999995,-57266.82,-1.1543614421989135,6.676158907412138,10.032864128376337,11.05745780976565,19.027479539094088,9.664129309993294,8.645902101748032,2.0176012370164287,0.080261025,-0.9856542150000001,-0.17199663,-12.86418,-4.10494,-2.39582,68.0
1774823249.5801585,2.5987625122070312e-05,2026-03-29T22:27:29.580,2026-03-29T18:27:29.580,-27790.92,-42317.415,-79385.44499999999,-49819.455,-10022.715,-17125.695,6372.405,-57283.064999999995,-1.5341563596738115,6.568913680330029,9.582875583173818,27.476094881101368,23.57014997690698,14.914865913399483,6.312236421179322,2.7092716620562878,0.080261025,-0.9856542150000001,-0.17199663,-12.86418,-4.10494,-2.39582,68.0
1774823249.5834491,0.0032906532287597656,2026-03-29T22:27:29.583,2026-03-29T18:27:29.583,-27760.995,-42294.555,-79360.065,-49816.619999999995,-10059.66,-17148.105,6364.575,-57267.99,-1.4429611194733412,3.2029368307838495,4.228658762170077,31.571495734701816,17.10623481740576,13.398897745206021,1.299000009168991,2.1409904238137436,0.080261025,-0.9856542150000001,-0.17199663,-12.86418,-4.10494,-2.39582,68.0
1774823249.583463,1.3828277587890625e-05,2026-03-29T22:27:29.583,2026-03-29T18:27:29.583,-27753.66,-42328.755,-79430.48999999999,-49842.854999999996,-10109.654999999999,-17177.625,6362.91,-57272.579999999994,-0.9957809963878581,-1.659391562763038,-3.287510068084366,19.93417308173234,2.8360887688336445,5.933521302956337,-3.715495473918652,0.405333405225678,0.080261025,-0.9856542150000001,-0.17199663,-12.86418,-4.10494,-2.39582,68.0
1774823249.590198,0.006735086441040039,2026-03-29T22:27:29.590,2026-03-29T18:27:29.590,-27747.945,-42325.83,-79408.75499999999,-49818.42,-10105.109999999999,-17171.82,6360.344999999999,-57282.165,-0.332085962298913,-5.530308860544562,-9.073734971659727,-2.9513562328081195,-12.395203387800658,-3.9793332294911887,-6.328315087024419,-1.783129240818894,0.080261025,-0.9856542150000001,-0.17199663,-12.86418,-4.10494,-2.39582,68.0
1774823249.5902264,2.8371810913085938e-05,2026-03-29T22:27:29.590,2026-03-29T18:27:29.590,-27760.905,-42344.145,-79425.045,-49854.284999999996,-10116.675,-17184.42,6335.1449999999995,-57285.54,0.4307432489909739,-6.446761573403957,-10.060861601149213,-26.33156939995533,-21.37459107813668,-11.786864321886254,-5.571995408422922,-3.3823912832093397,0.080261025,-0.9856542150000001,-0.17199663,-12.86418,-4.10494,-2.39582,68.0
1774823249.59262,0.002393484115600586,2026-03-29T22:27:29.592,2026-03-29T18:27:29.592,-27758.295,-42350.4,-79456.00499999999,-49913.685,-10151.19,-17217.315,6322.635,-57285.72,1.1723953199452677,-3.963153037058667,-5.616876305518331,-38.26811360193205,-19.970944141277716,-13.991922713056189,-2.2537741212465425,-3.5230146145419035,0.080261025,-0.9856542150000001,-0.17199663,-12.86418,-4.10494,-2.39582,68.0
1774823249.5926554,3.552436828613281e-05,2026-03-29T22:27:29.592,2026-03-29T18:27:29.592,-27738.765,-42330.465,-79440.25499999999,-49864.095,-10151.505,-17230.32,6338.295,-57264.479999999996,1.7178895450721525,0.6143736017319692,2.0410032052104907,-31.761129097821804,-9.092438624215593,-9.750821409104695,1.6333756697037378,-1.9715902849169888,0.080261025,-0.9856542150000001,-0.17199663,-12.86418,-4.10494,-2.39582,68.0
1774823249.5952408,0.0025854110717773438,2026-03-29T22:27:29.595,2026-03-29T18:27:29.595,-27746.684999999998,-42328.17,-79435.34999999999,-49802.67,-10137.33,-17212.32,6360.344999999999,-57259.845,1.8332598988344007,4.8817714129514584,8.901048857221125,-8.758444439417742,5.801995915836511,-1.2179614208919642,4.052041647853482,0.6865876675722342,0.08618142,-0.99877674,-0.17004351,-10.89564,-2.9604399999999997,-3.11304,68.0
1774823249.5952616,2.0742416381835938e-05,2026-03-29T22:27:29.595,2026-03-29T18:27:29.595,-27755.28,-42347.79,-79466.04,-49828.32,-10138.68,-17204.805,6377.085,-57252.96,1.3140390461150493,6.563541621072078,11.197604662695035,20.206259793665982,17.40247067192268,7.516758346035719,3.979265301540873,3.264206859270128,0.08618142,-0.99877674,-0.17004351,-10.89564,-2.9604399999999997,-3.11304,68.0
1774823249.599337,0.004075527191162109,2026-03-29T22:27:29.599,2026-03-29T18:27:29.599,-27782.73,-42385.229999999996,-79522.11,-49930.83,-10170.404999999999,-17220.329999999998,6335.6849999999995,-57284.28,0.13999625895556994,4.69873385853715,7.4209806885588225,40.85278966635799,20.138336882295548,12.38547940947627,1.835792376424041,4.510050709870116,0.08618142,-0.99877674,-0.17004351,-10.89564,-2.9604399999999997,-3.11304,68.0
1774823249.5993636,2.6464462280273438e-05,2026-03-29T22:27:29.599,2026-03-29T18:27:29.599,-27768.195,-42374.205,-79542.62999999999,-50017.32,-10178.19,-17212.77,6324.48,-57289.725,-1.3992585348316635,0.17771273051893804,-0.7569354305223724,42.23871384976303,12.8926457366872,11.258541357756297,-0.8922751492678714,3.7208481657600316,0.08618142,-0.99877674,-0.17004351,-10.89564,-2.9604399999999997,-3.11304,68.0
1774823249.6031363,0.003772735595703125,2026-03-29T22:27:29.603,2026-03-29T18:27:29.603,-27742.23,-42346.755,-79509.105,-49979.655,-10146.015,-17190.945,6353.054999999999,-57266.64,-2.71861069735275,-4.665570057031349,-9.18623693366853,22.552149462382204,-0.49977815664242836,4.90668780765189,-2.575669398582099,1.1252742159146156,0.08618142,-0.99877674,-0.17004351,-10.89564,-2.9604399999999997,-3.11304,68.0
1774823249.6031532,1.6927719116210938e-05,2026-03-29T22:27:29.603,2026-03-29T18:27:29.603,-27748.754999999997,-42346.305,-79472.11499999999,-49951.979999999996,-10160.145,-17206.605,6390.585,-57254.49,-3.142425033154656,-7.226857451471014,-13.295416742206843,-9.451102324745914,-13.2155711463386,-3.4403259601778604,-2.3681006125165127,-2.1654715458234333,0.08618142,-0.99877674,-0.17004351,-10.89564,-2.9604399999999997,-3.11304,68.0
1774823249.6079009,0.004747629165649414,2026-03-29T22:27:29.607,2026-03-29T18:27:29.607,-27754.245,-42332.67,-79415.50499999999,-49889.564999999995,-10149.795,-17206.29,6390.405,-57272.22,-2.239435736657225,-5.991924615162051,-10.499940087315078,-38.338105460940696,-18.885600720927933,-9.708346024478079,-0.6256129240353095,-4.6412891507298655,0.08618142,-0.99877674,-0.17004351,-10.89564,-2.9604399999999997,-3.11304,68.0
1774823249.6079333,3.24249267578125e-05,2026-03-29T22:27:29.607,2026-03-29T18:27:29.607,-27753.03,-42341.22,-79431.56999999999,-49885.74,-10156.41,-17216.864999999998,6367.275,-57280.545,-0.1256759447524737,-1.3868926320649648,-1.7176748857627626,-49.48926826419298,-14.791167561916971,-10.96916911119494,1.3862876449680837,-5.096531007204994,0.08618142,-0.99877674,-0.17004351,-10.89564,-2.9604399999999997,-3.11304,68.0
1774823249.611612,0.0036787986755371094,2026-03-29T22:27:29.611,2026-03-29T18:27:29.611,-27753.704999999998,-42356.295,-79469.595,-49911.119999999995,-10168.154999999999,-17235.585,6366.599999999999,-57273.39,2.450988100989932,4.344616725168158,8.862986169911919,-36.52829589001695,-3.2052228864384107,-6.832438242741912,2.2981844463039622,-3.220460616249064,0.08618142,-0.99877674,-0.17004351,-10.89564,-2.9604399999999997,-3.11304,68.0
1774823249.611637,2.5033950805664062e-05,2026-03-29T22:27:29.611,2026-03-29T18:27:29.611,-27751.004999999997,-42359.85,-79482.59999999999,-49921.11,-10178.055,-17255.97,6356.61,-57264.435,4.3483892472639845,8.219224603697555,15.755425940517021,-4.899707350859955,9.800003391719283,0.4337490551436009,1.4751883104474905,0.2162229754098002,0.08618142,-0.99877674,-0.17004351,-10.89564,-2.9604399999999997,-3.11304,68.0
1774823249.6153872,0.0037500858306884766,2026-03-29T22:27:29.615,2026-03-29T18:27:29.615,-27749.204999999998,-42370.695,-79498.44,-49933.215,-10182.914999999999,-17243.595,6345.224999999999,-57244.229999999996,4.5318643040291136,8.03497500443169,14.969969441734722,30.38647862287368,17.477099356023746,7.09458964793803,-0.5969121006728971,3.6837717155208702,0.093200445,-1.01452377,-0.17553666,-3.6013599999999997,-2.62472,-1.51074,68.0
1774823249.6154056,1.8358230590820312e-05,2026-03-29T22:27:29.615,2026-03-29T18:27:29.615,-27762.075,-42382.125,-79512.48,-49949.055,-10198.26,-17249.085,6333.4349999999995,-57240.945,2.622314965898117,3.5713133473239376,6.225286284505953,51.92631689728967,15.871989032564947,9.843825941543486,-2.596984091893166,5.586647391552111,0.093200445,-1.01452377,-0.17553666,-3.6013599999999997,-2.62472,-1.51074,68.0
1774823249.6192064,0.0038008689880371094,2026-03-29T22:27:29.619,2026-03-29T18:27:29.619,-27775.035,-42385.545,-79525.53,-49975.83,-10222.425,-17254.17,6331.1849999999995,-57254.085,-0.794401021363224,-3.169490082501804,-6.61795850838871,48.55873537003754,5.863731455179473,7.448644717795885,-3.1591978127783227,5.007406941792509,0.093200445,-1.01452377,-0.17553666,-3.6013599999999997,-2.62472,-1.51074,68.0
1774823249.619225,1.8596649169921875e-05,2026-03-29T22:27:29.619,2026-03-29T18:27:29.619,-27771.84,-42371.505,-79507.26,-49954.545,-10197.315,-17226.18,6326.19,-57285.45,-4.30229783758537,-8.856542182076188,-17.248560411398287,21.15493300831252,-7.279659906610087,1.3229459386290743,-1.713315300408291,2.1496646362716723,0.093200445,-1.01452377,-0.17553666,-3.6013599999999997,-2.62472,-1.51074,68.0
1774823249.6250565,0.005831480026245117,2026-03-29T22:27:29.625,2026-03-29T18:27:29.625,-27734.219999999998,-42343.47,-79486.785,-49923.494999999995,-10169.055,-17211.555,6337.035,-57274.92,-6.235686295742274,-10.463525029125613,-19.98878497633706,-17.447467245252682,-16.61894865686427,-5.247869041103079,1.114235987252951,-1.7342660435490906,0.093200445,-1.01452377,-0.17553666,-3.6013599999999997,-2.62472,-1.51074,68.0
1774823249.625076,1.9550323486328125e-05,2026-03-29T22:27:29.625,2026-03-29T18:27:29.625,-27769.68,-42342.615,-79459.785,-49881.465,-10128.42,-17190.855,6365.295,-57318.57,-5.471247473885166,-6.84473578896278,-12.770399733475012,-48.503076263235094,-17.152354705656997,-8.824419237840836,3.785614820767302,-4.904149479143815,0.093200445,-1.01452377,-0.17553666,-3.6013599999999997,-2.62472,-1.51074,68.0
1774823249.6274288,0.0023527145385742188,2026-03-29T22:27:29.627,2026-03-29T18:27:29.627,-27800.864999999998,-42372.27,-79483.5,-49906.845,-10157.22,-17237.34,6336.0,-57346.38,-2.054309709326232,0.5553309133621032,1.538190052068253,-56.529109164301595,-8.456824268559552,-7.590232113983806,4.686206333322651,-5.923826476140326,0.093200445,-1.01452377,-0.17553666,-3.6013599999999997,-2.62472,-1.51074,68.0
1774823249.6274407,1.1920928955078125e-05,2026-03-29T22:27:29.627,2026-03-29T18:27:29.627,-27776.565,-42370.604999999996,-79497.0,-49925.07,-10182.69,-17255.07,6327.135,-57311.729999999996,2.681300888822127,8.269557072273134,16.243553633247416,-37.06823592906571,5.021179469451916,-2.2770992823887473,3.0567160106278783,-4.317933661315567,0.093200445,-1.01452377,-0.17553666,-3.6013599999999997,-2.62472,-1.51074,68.0
1774823249.6348753,0.0074346065521240234,2026-03-29T22:27:29.634,2026-03-29T18:27:29.634,-27753.57,-42348.24,-79474.095,-49899.015,-10162.574999999999,-17226.315,6352.469999999999,-57288.509999999995,6.621215406992919,12.436138561569233,23.965448060039783,0.8705034613383356,16.21236040494846,4.23496986585946,-0.5000696095551538,-0.7901302203890218,0.093200445,-1.01452377,-0.17553666,-3.6013599999999997,-2.62472,-1.51074,68.0
1774823249.6349027,2.7418136596679688e-05,2026-03-29T22:27:29.634,2026-03-29T18:27:29.634,-27743.805,-42324.57,-79433.055,-49830.93,-10129.5,-17199.18,6352.92,-57282.93,7.820621353377694,10.72127451600545,20.32811853456003,39.017620846634436,19.083893176562153,8.435808047322883,-4.243861267863308,3.095654586128021,0.093200445,-1.01452377,-0.17553666,-3.6013599999999997,-2.62472,-1.51074,68.0
1774823249.6349251,2.2411346435546875e-05,2026-03-29T22:27:29.634,2026-03-29T18:27:29.634,-27771.3,-42371.955,-79521.12,-49786.784999999996,-10150.965,-17219.385,6340.41,-57299.625,5.46681201950101,3.5826160926227733,6.3621678761808385,58.716333452336315,11.833820086875157,8.035788181300042,-6.167045916835126,5.6211324384764785,0.095763915,-1.014584805,-0.178283235,-4.79164,-4.92898,-0.8698199999999999,68.0
1774823249.6349328,7.62939453125e-06,2026-03-29T22:27:29.634,2026-03-29T18:27:29.634,-27786.645,-42413.58,-79600.59,-49825.935,-10200.24,-17247.285,6330.285,-57299.579999999994,0.3760250117900036,-5.796451407627169,-11.675730805918912,50.11790580289897,-2.0519192369879633,3.1869095599211112,-5.0674222401339595,5.681706594735588,0.095763915,-1.014584805,-0.178283235,-4.79164,-4.92898,-0.8698199999999999,68.0
1774823249.6420634,0.007130622863769531,2026-03-29T22:27:29.642,2026-03-29T18:27:29.642,-27774.495,-42406.515,-79558.56,-49871.34,-10208.52,-17237.745,6328.3949999999995,-57283.064999999995,-5.263473476721529,-12.936878019504798,-25.12105291045456,17.13301528387598,-15.47767990792461,-3.5689019456361657,-1.2519840657215768,3.269302978036854,0.095763915,-1.014584805,-0.178283235,-4.79164,-4.92898,-0.8698199999999999,68.0
1774823249.642079,1.5735626220703125e-05,2026-03-29T22:27:29.642,2026-03-29T18:27:29.642,-27747.315,-42398.145,-79608.105,-50138.055,-10308.015,-17268.255,6339.15,-57255.795,-8.838007564886427,-14.212049381711449,-27.083270373169476,-24.364543314201182,-21.343683783625924,-8.611861303674516,3.5244859848611934,-0.5405919574015046,0.095763915,-1.014584805,-0.178283235,-4.79164,-4.92898,-0.8698199999999999,68.0
1774823249.6549203,0.012841224670410156,2026-03-29T22:27:29.654,2026-03-29T18:27:29.654,-27748.305,-42386.13,-79581.915,-50149.215,-10260.045,-17243.325,6331.7699999999995,-57277.665,-8.532720920809016,-8.679532478335734,-15.964385992457586,-54.249780483162944,-16.253875333734314,-9.147215362331902,6.889447587353464,-4.080003177020648,0.095763915,-1.014584805,-0.178283235,-4.79164,-4.92898,-0.8698199999999999,68.0
1774823249.654957,3.6716461181640625e-05,2026-03-29T22:27:29.654,2026-03-29T18:27:29.654,-27776.475,-42399.854999999996,-79576.02,-50153.895,-10216.89,-17201.565,6358.005,-57301.65,-4.253769045811567,1.32595061242368,3.479173368841577,-57.99445540324336,-2.40527702241061,-4.711025805454956,7.047952874253758,-5.827392839697599,0.095763915,-1.014584805,-0.178283235,-4.79164,-4.92898,-0.8698199999999999,68.0
1774823249.6549833,2.6226043701171875e-05,2026-03-29T22:27:29.654,2026-03-29T18:27:29.654,-27802.44,-42390.54,-79508.43,-50049.27,-10194.164999999999,-17205.795,6349.679999999999,-57318.795,2.2212899761647753,11.184771714048445,22.177516450542747,-33.79122319433017,13.367633685522518,2.518720752159581,3.734020885774069,-5.0626140224378515,0.095763915,-1.014584805,-0.178283235,-4.79164,-4.92898,-0.8698199999999999,68.0
1774823249.654994,1.0728836059570312e-05,2026-03-29T22:27:29.654,2026-03-29T18:27:29.654,-27802.664999999997,-42364.845,-79448.22,-49899.465,-10173.105,-17241.345,6307.74,-57340.034999999996,7.984611750847446,16.145873231938364,31.014957741256595,6.568891314058468,22.976057915792314,8.794758471125308,-1.583799161672426,-2.1558255486919182,0.095763915,-1.014584805,-0.178283235,-4.79164,-4.92898,-0.8698199999999999,68.0
1774823249.655007,1.2874603271484375e-05,2026-03-29T22:27:29.655,2026-03-29T18:27:29.655,-27742.68,-42335.28,-79468.92,-49857.03,-10178.91,-17241.345,6304.59,-57305.384999999995,10.320763326538723,13.628757847483662,25.30088866133764,43.49565729763705,21.20855183430486,10.72797456712803,-6.373310585061375,1.6204949362663386,0.095763915,-1.014584805,-0.178283235,-4.79164,-4.92898,-0.8698199999999999,68.0
1774823249.6550167,9.775161743164062e-06,2026-03-29T22:27:29.655,2026-03-29T18:27:29.655,-27718.425,-42316.02,-79447.995,-49860.72,-10180.8,-17225.505,6347.205,-57290.759999999995,8.001298781262035,4.5526254263179835,7.238901803079105,59.19947282746629,8.505923569058217,7.083499008902504,-8.269615960891386,4.656779961076201,0.095763915,-1.014584805,-0.178283235,-4.79164,-4.92898,-0.8698199999999999,68.0
1774823249.6550286,1.1920928955078125e-05,2026-03-29T22:27:29.655,2026-03-29T18:27:29.655,-27757.934999999998,-42358.5,-79482.42,-49929.479999999996,-10191.914999999999,-17234.774999999998,6353.099999999999,-57291.884999999995,1.92660483409994,-6.988167817774804,-14.899162910442769,46.34668035847442,-9.08080029578919,-0.49507231204814045,-6.256595368705029,5.693299435620956,0.094543215,-1.00414782,-0.17517045,-7.15694,-6.22608,0.48832,68.0
1774823249.655038,9.5367431640625e-06,2026-03-29T22:27:29.655,2026-03-29T18:27:29.655,-27788.715,-42388.875,-79495.33499999999,-49931.505,-10180.395,-17235.36,6380.6849999999995,-57282.165,-5.21951184660452,-15.594719611090333,-30.600272037332346,11.520011362151891,-22.801682933788225,-8.239394647408668,-1.20285115577372,4.335298113879224,0.094543215,-1.00414782,-0.17517045,-7.15694,-6.22608,0.48832,68.0
1774823249.6610143,0.005976200103759766,2026-03-29T22:27:29.661,2026-03-29T18:27:29.661,-27810.765,-42392.295,-79485.3,-49900.77,-10167.795,-17225.82,6367.005,-57292.424999999996,-10.172533604617987,-17.115375554398007,-32.15142482082364,-28.166121079786425,-25.575828237296722,-12.137713944519735,4.527355736451977,1.1904490377795784,0.094543215,-1.00414782,-0.17517045,-7.15694,-6.22608,0.48832,68.0
1774823249.6610293,1.5020370483398438e-05,2026-03-29T22:27:29.661,2026-03-29T18:27:29.661,-27778.364999999998,-42361.244999999995,-79441.02,-49901.715,-10156.545,-17230.095,6364.035,-57283.829999999994,-10.600093740966038,-10.660852214558078,-18.456327937124712,-53.55028894850363,-15.62877837023405,-10.001608864162073,8.20655805784348,-2.4103290808580415,0.094543215,-1.00414782,-0.17517045,-7.15694,-6.22608,0.48832,68.0
1774823249.664147,0.0031175613403320312,2026-03-29T22:27:29.664,2026-03-29T18:27:29.664,-27751.14,-42336.225,-79445.43,-49900.32,-10125.945,-17213.04,6371.099999999999,-57283.47,-6.213485528335943,0.901570092093925,4.273820032016322,-52.7697688592376,2.4639362330404015,-2.657153600524285,8.065551301591878,-4.976299735805511,0.094543215,-1.00414782,-0.17517045,-7.15694,-6.22608,0.48832,68.0
1774823249.664179,3.218650817871094e-05,2026-03-29T22:27:29.664,2026-03-29T18:27:29.664,-27763.155,-42347.97,-79463.79,-49845.375,-10100.34,-17182.35,6361.92,-57294.405,1.0584036482586228,12.241593612718692,25.36625837424805,-26.86683174812004,19.913272940391614,6.375609845598036,4.153355768962483,-5.465852336152998,0.094543215,-1.00414782,-0.17517045,-7.15694,-6.22608,0.48832,68.0
1774823249.6675968,0.0034177303314208984,2026-03-29T22:27:29.667,2026-03-29T18:27:29.667,-27759.105,-42354.27,-79479.27,-49911.975,-10128.779999999999,-17176.23,6365.655,-57287.43,7.931753956921163,18.054846436683263,34.75316531688008,11.02282435562593,28.02183205498228,12.59039686506546,-1.6863575508352122,-3.697249253476826,0.094543215,-1.00414782,-0.17517045,-7.15694,-6.22608,0.48832,68.0
1774823249.667617,2.0265579223632812e-05,2026-03-29T22:27:29.667,2026-03-29T18:27:29.667,-27752.309999999998,-42358.275,-79483.68,-49922.369999999995,-10152.945,-17199.54,6362.82,-57282.704999999994,11.274238552714214,15.570801839369482,27.829298670165898,42.36289690597106,22.53345077727958,12.752656177206648,-6.707076693358809,-0.406981141134946,0.094543215,-1.00414782,-0.17517045,-7.15694,-6.22608,0.48832,68.0
1774823249.6749628,0.007345676422119141,2026-03-29T22:27:29.674,2026-03-29T18:27:29.674,-27761.265,-42380.235,-79543.62,-49878.18,-10168.02,-17219.43,6355.755,-57291.84,9.552792873618422,5.8816364019901215,7.733714978510551,52.366919121864186,5.8450465533442495,6.572081002539747,-8.577896363323555,3.056105357620779,0.094543215,-1.00414782,-0.17517045,-7.15694,-6.22608,0.48832,68.0
1774823249.674976,1.33514404296875e-05,2026-03-29T22:27:29.674,2026-03-29T18:27:29.674,-27767.43,-42397.47,-79562.34,-49806.63,-10182.914999999999,-17246.835,6324.885,-57311.729999999996,3.5437214730887243,-6.549603495111632,-16.085157915073005,37.052980121140415,-14.061133357606696,-3.071554270438417,-6.483730064293048,5.273919000834019,0.094543215,-1.00414782,-0.17517045,-7.15694,-6.22608,0.48832,68.0
1774823249.6749897,1.3589859008789062e-05,2026-03-29T22:27:29.674,2026-03-29T18:27:29.674,-27773.504999999997,-42423.615,-79619.58,-49828.5,-10273.904999999999,-17300.114999999998,6309.63,-57309.659999999996,-4.027212992539666,-15.97474478907104,-32.36038088670223,4.801601911821174,-27.47928201146096,-11.493461472643425,-1.4797366343906235,5.326584954446707,0.091735605,-0.99706776,-0.169982475,-5.890359999999999,-6.31764,0.8087799999999999,68.0
1774823249.6749945,4.76837158203125e-06,2026-03-29T22:27:29.674,2026-03-29T18:27:29.674,-27805.23,-42435.494999999995,-79639.155,-49945.545,-10310.805,-17318.204999999998,6312.33,-57328.56,-9.743151129287362,-18.051831481313343,-33.397156342533435,-28.176472208277307,-27.748205111788867,-14.502596238823958,4.05364415960949,3.1654820038843385,0.091735605,-0.99706776,-0.169982475,-5.890359999999999,-6.31764,0.8087799999999999,68.0
1774823249.679414,0.004419565200805664,2026-03-29T22:27:29.679,2026-03-29T18:27:29.679,-27813.105,-42410.564999999995,-79583.355,-50102.1,-10277.955,-17334.809999999998,6322.094999999999,-57320.1,-11.06144007263782,-11.866663675142371,-18.756532767874013,-46.03177126837035,-14.567433515999138,-10.49625525892592,7.568478613936374,-0.3536973865443846,0.091735605,-0.99706776,-0.169982475,-5.890359999999999,-6.31764,0.8087799999999999,68.0
1774823249.6794288,1.4781951904296875e-05,2026-03-29T22:27:29.679,2026-03-29T18:27:29.679,-27790.2,-42386.715,-79614.18,-50242.814999999995,-10216.529999999999,-17294.67,6353.6849999999995,-57297.24,-7.457557777263405,-0.333491571295019,4.552116091837993,-40.968200847119626,5.794170274200941,-1.2996234257184562,7.545706482584262,-3.79721289011855,0.091735605,-0.99706776,-0.169982475,-5.890359999999999,-6.31764,0.8087799999999999,68.0
1774823249.683499,0.004070281982421875,2026-03-29T22:27:29.683,2026-03-29T18:27:29.683,-27736.829999999998,-42346.17,-79499.295,-50004.225,-10104.795,-17212.905,6343.245,-57294.494999999995,-0.626850187602623,11.19975139705116,25.45779911337454,-16.669405152435324,23.520877134286202,8.684398383662025,4.157672886571177,-5.721852294934106,0.091735605,-0.99706776,-0.169982475,-5.890359999999999,-6.31764,0.8087799999999999,68.0
1774823249.6835208,2.1696090698242188e-05,2026-03-29T22:27:29.683,2026-03-29T18:27:29.683,-27707.715,-42307.515,-79383.105,-49909.095,-10105.065,-17177.489999999998,6324.389999999999,-57285.494999999995,6.329117351266661,17.464313086016784,34.143273060820945,14.055545996087487,30.027793455466874,14.610229830417914,-0.895109069203093,-5.269897410708934,0.091735605,-0.99706776,-0.169982475,-5.890359999999999,-6.31764,0.8087799999999999,68.0
1774823249.6886995,0.005178689956665039,2026-03-29T22:27:29.688,2026-03-29T18:27:29.688,-27706.995,-42284.43,-79310.565,-49814.595,-10103.85,-17158.454999999998,6313.86,-57283.965,10.333459383890057,15.70561771803066,26.71086559842056,35.997136912778146,22.147546193265427,13.56198757654177,-5.254331253676307,-2.551661264556454,0.091735605,-0.99706776,-0.169982475,-5.890359999999999,-6.31764,0.8087799999999999,68.0
1774823249.6887264,2.6941299438476562e-05,2026-03-29T22:27:29.688,2026-03-29T18:27:29.688,-27714.149999999998,-42287.22,-79322.58,-49795.604999999996,-10081.89,-17121.195,6344.55,-57279.78,9.71106250868768,6.9020776878817145,6.955515728013244,39.11916867735139,3.670964996398878,5.992499766321658,-7.029345613436064,1.3544243693038351,0.091735605,-0.99706776,-0.169982475,-5.890359999999999,-6.31764,0.8087799999999999,68.0
1774823249.6949656,0.006239175796508789,2026-03-29T22:27:29.694,2026-03-29T18:27:29.694,-27750.87,-42332.939999999995,-79420.455,-49866.299999999996,-10092.869999999999,-17117.954999999998,6393.509999999999,-57295.215,4.88787599378838,-4.774738129358356,-15.572742709969392,23.189481569301844,-16.507107393080492,-4.482954074792749,-5.6294234600008775,4.8105014401016355,0.091735605,-0.99706776,-0.169982475,-5.890359999999999,-6.31764,0.8087799999999999,68.0
1774823249.6949866,2.09808349609375e-05,2026-03-29T22:27:29.694,2026-03-29T18:27:29.694,-27760.815,-42370.064999999995,-79482.825,-49923.72,-10145.385,-17173.35,6412.5,-57292.784999999996,-1.8781011973884039,-13.962376099779933,-30.22655614520308,-2.6862012031979248,-28.71576452697,-12.838202875804475,-1.9302850070812603,6.293754894247679,0.091735605,-0.99706776,-0.169982475,-5.890359999999999,-6.31764,0.8087799999999999,68.0
1774823249.6950057,1.9073486328125e-05,2026-03-29T22:27:29.695,2026-03-29T18:27:29.695,-27750.6,-42376.635,-79492.05,-49935.869999999995,-10184.13,-17223.345,6356.115,-57279.465,-7.571535474434644,-16.599233736551565,-30.347914982199686,-25.13383705727013,-27.18262015340217,-15.072616694496482,2.252102338014778,5.066663121707696,0.090026625,-0.9908421900000001,-0.162658275,-2.0448399999999998,-4.16598,-0.9156,68.0
1774823249.695012,6.4373016357421875e-06,2026-03-29T22:27:29.695,2026-03-29T18:27:29.695,-27730.664999999997,-42356.205,-79469.145,-49917.42,-10176.975,-17221.995,6347.745,-57261.555,-9.78019674123524,-11.734377963401375,-16.327836613659965,-33.40889706952057,-12.777184517947699,-10.13976281344593,5.07315557741805,1.5492238635273887,0.090026625,-0.9908421900000001,-0.162658275,-2.0448399999999998,-4.16598,-0.9156,68.0
1774823249.6998641,0.0048520565032958984,2026-03-29T22:27:29.699,2026-03-29T18:27:29.699,-27735.48,-42360.345,-79482.87,-49926.96,-10178.82,-17221.995,6369.21,-57256.875,-7.719398975126601,-1.842708672435925,4.783347080727628,-24.568029673960385,7.486995118600788,-0.43272026774350475,5.4908184250278955,-2.7967149715675403,0.090026625,-0.9908421900000001,-0.162658275,-2.0448399999999998,-4.16598,-0.9156,68.0
1774823249.6998887,2.4557113647460938e-05,2026-03-29T22:27:29.699,2026-03-29T18:27:29.699,-27769.14,-42364.08,-79477.83,-49913.369999999995,-10159.695,-17206.065,6374.655,-57307.185,-2.484907193057821,8.440820645535608,22.834928353357988,-4.412509612800008,23.905195446914508,9.395876356376146,3.6330221451366724,-6.059419448943778,0.090026625,-0.9908421900000001,-0.162658275,-2.0448399999999998,-4.16598,-0.9156,68.0
1774823249.7040784,0.004189729690551758,2026-03-29T22:27:29.704,2026-03-29T18:27:29.704,-27755.954999999998,-42361.244999999995,-79483.905,-49918.275,-10165.32,-17213.489999999998,6363.585,-57300.75,3.5299948585999856,14.516957648706642,29.499551678745195,16.02984523663646,28.771395545748668,14.687712597941204,0.5818085865538442,-6.715444186596937,0.090026625,-0.9908421900000001,-0.162658275,-2.0448399999999998,-4.16598,-0.9156,68.0
1774823249.7041078,2.9325485229492188e-05,2026-03-29T22:27:29.704,2026-03-29T18:27:29.704,-27746.055,-42366.645,-79497.54,-49932.72,-10179.315,-17227.755,6352.155,-57283.829999999994,7.742567015847957,13.896293278856826,22.152193870794115,26.44197292491721,20.01867541129541,13.002931366082287,-2.2489447088550665,-4.348805103380556,0.090026625,-0.9908421900000001,-0.162658275,-2.0448399999999998,-4.16598,-0.9156,68.0
1774823249.707428,0.0033202171325683594,2026-03-29T22:27:29.707,2026-03-29T18:27:29.707,-27735.254999999997,-42366.915,-79505.64,-49946.58,-10193.49,-17238.645,6347.16,-57269.79,8.494164327432802,7.208632263783761,4.879330645030458,22.41061162202541,2.0794337786865067,5.244822620275115,-3.788679430796025,0.09168650463142033,0.090026625,-0.9908421900000001,-0.162658275,-2.0448399999999998,-4.16598,-0.9156,68.0
1774823249.7074437,1.5735626220703125e-05,2026-03-29T22:27:29.707,2026-03-29T18:27:29.707,-27743.94,-42369.075,-79508.97,-49957.695,-10203.435,-17241.255,6347.88,-57275.415,5.687577039381797,-2.254694205770782,-13.75470440789402,7.264793748927204,-16.381488612987624,-4.832392347463337,-3.70667251834098,4.65257174074766,0.090026625,-0.9908421900000001,-0.162658275,-2.0448399999999998,-4.16598,-0.9156,68.0
1774823249.71296,0.0055162906646728516,2026-03-29T22:27:29.712,2026-03-29T18:27:29.712,-27741.645,-42371.82,-79515.045,-49960.439999999995,-10205.369999999999,-17244.405,6343.245,-57270.329999999994,0.7132460215259842,-10.171087861545603,-24.976296407187807,-10.185695218506778,-26.690863969828854,-12.46059230331562,-2.3871271619375363,7.229483952220793,0.090026625,-0.9908421900000001,-0.162658275,-2.0448399999999998,-4.16598,-0.9156,68.0
1774823249.7129867,2.6702880859375e-05,2026-03-29T22:27:29.712,2026-03-29T18:27:29.712,-27771.93,-42362.055,-79480.665,-49914.27,-10164.15,-17215.155,6348.915,-57312.36,-4.243575326440979,-13.176534847807575,-23.96617414897983,-20.603054988520196,-24.270184020627017,-14.13001232119062,-0.5782009514635201,6.545104785258776,0.090026625,-0.9908421900000001,-0.162658275,-2.0448399999999998,-4.16598,-0.9156,68.0
1774823249.7174644,0.004477739334106445,2026-03-29T22:27:29.717,2026-03-29T18:27:29.717,-27780.704999999998,-42357.015,-79465.815,-49891.005,-10140.705,-17195.67,6363.585,-57328.695,-7.167273014757979,-10.291819326288127,-11.925527995387348,-19.039215077232186,-10.662984085810844,-9.20545152713725,1.0355282634414456,2.793873827035953,0.08605935,-0.9838842,-0.1647945,-1.35814,-3.3266799999999996,0.06104,68.0
1774823249.7174902,2.574920654296875e-05,2026-03-29T22:27:29.717,2026-03-29T18:27:29.717,-27763.155,-42358.77,-79474.095,-49905.27,-10155.555,-17208.495,6355.62,-57308.22,-7.020547236515743,-3.1833846979539113,4.838597668168484,-7.25545680871033,7.407129410887362,-0.14193560274137046,2.092947771535499,-2.376885597811387,0.08605935,-0.9838842,-0.1647945,-1.35814,-3.3266799999999996,0.06104,68.0
1774823249.7213008,0.0038106441497802734,2026-03-29T22:27:29.721,2026-03-29T18:27:29.721,-27764.46,-42360.795,-79479.94499999999,-49912.02,-10161.404999999999,-17213.715,6351.12,-57306.689999999995,-4.079997720376251,4.76962010666313,18.206573858899603,7.629172209823444,21.38876692628406,8.754951513437053,2.548533867815482,-6.581335705832518,0.08605935,-0.9838842,-0.1647945,-1.35814,-3.3266799999999996,0.06104,68.0
1774823249.721316,1.52587890625e-05,2026-03-29T22:27:29.721,2026-03-29T18:27:29.721,-27760.59,-42360.615,-79482.42,-49918.14,-10167.795,-17218.62,6349.7699999999995,-57304.755,0.2886699857180854,10.08952422893614,22.19996817813311,17.254328477150054,24.979227585537096,13.389648101199654,2.4805503596270158,-7.800736681180528,0.08605935,-0.9838842,-0.1647945,-1.35814,-3.3266799999999996,0.06104,68.0
1774823249.723966,0.0026497840881347656,2026-03-29T22:27:29.723,2026-03-29T18:27:29.723,-27763.155,-42362.505,-79484.985,-49921.29,-10168.785,-17220.195,6351.615,-57311.865,4.265634081665738,10.720336172987084,15.658591554268318,16.581778406200353,16.967040753208657,11.763416082534745,1.9072196940369122,-5.366055021807491,0.08605935,-0.9838842,-0.1647945,-1.35814,-3.3266799999999996,0.06104,68.0
1774823249.7239995,3.361701965332031e-05,2026-03-29T22:27:29.723,2026-03-29T18:27:29.723,-27779.445,-42372.945,-79489.305,-49928.445,-10175.445,-17224.965,6345.9,-57326.13,6.326582411393382,6.7905593708656875,2.4401845909815987,6.459434623282382,1.558399529100324,4.817154489350804,0.7716150741622257,-0.33320941144175065,0.08605935,-0.9838842,-0.1647945,-1.35814,-3.3266799999999996,0.06104,68.0
1774823249.7289076,0.004908084869384766,2026-03-29T22:27:29.728,2026-03-29T18:27:29.728,-27786.015,-42391.845,-79520.625,-49969.575,-10214.324999999999,-17256.51,6314.085,-57332.295,5.803731921220972,0.3555261235235264,-10.781757548216934,-7.092431544997037,-13.840580221994054,-4.113575599788451,-0.8884306269442813,4.96202779454166,0.08605935,-0.9838842,-0.1647945,-1.35814,-3.3266799999999996,0.06104,68.0
1774823249.728923,1.5497207641601562e-05,2026-03-29T22:27:29.728,2026-03-29T18:27:29.728,-27779.355,-42397.74,-79540.73999999999,-50007.78,-10252.529999999999,-17278.965,6284.16,-57329.28,3.066421387804532,-5.6657058386663675,-17.890104691110032,-16.355955126632686,-22.21179663684893,-10.915579057781876,-2.7284700746118093,7.989594452409645,0.08605935,-0.9838842,-0.1647945,-1.35814,-3.3266799999999996,0.06104,68.0
1774823249.731625,0.002701997756958008,2026-03-29T22:27:29.731,2026-03-29T18:27:29.731,-27749.879999999997,-42372.314999999995,-79521.3,-49986.9,-10238.895,-17269.425,6280.38,-57310.695,-0.7030971244285891,-8.8126129847128,-16.158031826909557,-16.18456240460014,-20.13089051271459,-12.594559882208872,-4.050755065452001,7.246286383220831,0.08605935,-0.9838842,-0.1647945,-1.35814,-3.3266799999999996,0.06104,68.0
1774823249.7316363,1.1205673217773438e-05,2026-03-29T22:27:29.731,2026-03-29T18:27:29.731,-27736.92,-42331.32,-79450.47,-49891.365,-10153.08,-17202.735,6342.615,-57303.0,-4.012332537680847,-8.066837085190206,-7.228783767265073,-6.747783651599038,-9.122864248175649,-8.574870424412923,-4.045647145104429,3.017373982631534,0.08605935,-0.9838842,-0.1647945,-1.35814,-3.3266799999999996,0.06104,68.0
1774823249.735701,0.004064798355102539,2026-03-29T22:27:29.735,2026-03-29T18:27:29.735,-27744.704999999998,-42334.74,-79437.69,-49860.9,-10120.095,-17182.665,6373.62,-57299.49,-5.630792456073592,-4.117406458249247,4.069486618014455,6.673515758856877,5.341932679959105,-0.8485289196008577,-2.252694760672652,-2.7139979276840562,0.08129862,-0.981747975,-0.17639115,-5.1884,-6.80596,3.2351199999999998,68.0
1774823249.7358153,0.00011420249938964844,2026-03-29T22:27:29.735,2026-03-29T18:27:29.735,-27766.305,-42383.25,-79492.05,-49864.59,-10144.935,-17214.795,6363.8099999999995,-57304.665,-5.024141023773056,1.115976232529967,12.308261780471303,16.64741170618188,16.5879456359291,7.027899688623067,1.0097851121200305,-7.194454947964609,0.08129862,-0.981747975,-0.17639115,-5.1884,-6.80596,3.2351199999999998,68.0
1774823249.7448165,0.00900125503540039,2026-03-29T22:27:29.744,2026-03-29T18:27:29.744,-27795.914999999997,-42431.22,-79565.48999999999,-49868.685,-10172.25,-17234.64,6348.15,-57329.055,-2.5116626077198267,5.406793198970662,14.067225457181362,17.64908295736393,19.827555853711463,11.575283737145341,4.5477970079248005,-8.232590135277569,0.08129862,-0.981747975,-0.17639115,-5.1884,-6.80596,3.2351199999999998,68.0
1774823249.7448301,1.3589859008789062e-05,2026-03-29T22:27:29.744,2026-03-29T18:27:29.744,-27795.149999999998,-42416.189999999995,-79561.215,-49889.744999999995,-10168.515,-17221.32,6335.594999999999,-57347.189999999995,0.8878237470798764,7.15168207847947,9.311257737879732,9.021526754060119,14.16769091034094,10.911412236005246,6.690367163415514,-5.286655598599237,0.08129862,-0.981747975,-0.17639115,-5.1884,-6.80596,3.2351199999999998,68.0
1774823249.7448432,1.3113021850585938e-05,2026-03-29T22:27:29.744,2026-03-29T18:27:29.744,-27777.645,-42383.07,-79563.69,-49949.189999999995,-10174.32,-17212.68,6338.61,-57348.36,3.852839172388096,5.9283037122525215,1.0061891539426158,-4.71405407264692,2.707064512306591,5.493553215689727,6.075402045181456,0.23953301631245655,0.08129862,-0.981747975,-0.17639115,-5.1884,-6.80596,3.2351199999999998,68.0
1774823249.744848,4.76837158203125e-06,2026-03-29T22:27:29.744,2026-03-29T18:27:29.744,-27763.02,-42364.215,-79559.325,-49960.71,-10186.92,-17220.42,6349.275,-57317.13,5.254447055893023,2.51334501950916,-6.641522920660402,-16.305912475638262,-9.155405933295704,-2.1866821578217692,2.4549459306152213,5.659184441224368,0.08129862,-0.981747975,-0.17639115,-5.1884,-6.80596,3.2351199999999998,68.0
1774823249.7566416,0.01179361343383789,2026-03-29T22:27:29.756,2026-03-29T18:27:29.756,-27752.895,-42376.545,-79578.58499999999,-49976.145,-10199.97,-17229.555,6359.804999999999,-57280.905,4.575610242638959,-1.564223323275866,-10.307523575073128,-19.62552620955509,-16.279990003210095,-8.75884286844666,-2.936178774898676,8.314087402975584,0.08129862,-0.981747975,-0.17639115,-5.1884,-6.80596,3.2351199999999998,68.0
1774823249.7566552,1.3589859008789062e-05,2026-03-29T22:27:29.756,2026-03-29T18:27:29.756,-27749.52,-42381.135,-79555.41,-49968.945,-10202.67,-17232.075,6335.91,-57300.119999999995,2.1048431531527534,-4.691421189011121,-8.964859539557697,-12.870648098403661,-15.992180228416828,-11.438273385057428,-7.741536249057033,6.892266103011602,0.08129862,-0.981747975,-0.17639115,-5.1884,-6.80596,3.2351199999999998,68.0
1774823249.7566705,1.52587890625e-05,2026-03-29T22:27:29.756,2026-03-29T18:27:29.756,-27723.149999999998,-42338.79,-79426.575,-49897.08,-10183.994999999999,-17237.79,6322.005,-57293.685,-1.1712146202576572,-5.777608425282031,-4.0053039302499265,0.5433174582308195,-9.000512495043235,-9.171116868189793,-9.508843587067263,2.091942267549278,0.08129862,-0.981747975,-0.17639115,-5.1884,-6.80596,3.2351199999999998,68.0
1774823249.7566748,4.291534423828125e-06,2026-03-29T22:27:29.756,2026-03-29T18:27:29.756,-27766.17,-42354.09,-79363.665,-49819.545,-10138.23,-17233.065,6358.905,-57300.255,-3.9456773052830485,-4.5905512126318335,1.8024930238345989,13.812028207423468,1.233251532448661,-3.0090354526350223,-6.936760262820239,-3.7113564987248737,0.08129862,-0.981747975,-0.17639115,-5.1884,-6.80596,3.2351199999999998,68.0
1774823249.7585535,0.0018787384033203125,2026-03-29T22:27:29.758,2026-03-29T18:27:29.758,-27823.004999999997,-42390.314999999995,-79427.43,-49847.265,-10182.869999999999,-17273.024999999998,6331.545,-57341.924999999996,-5.1048783019798645,-1.7477897325174863,5.829296357707603,20.274537121022615,10.221524993081013,4.39374349649406,-0.710619988473982,-7.640524010730665,0.079406535,-0.9861424950000001,-0.181457055,-6.24134,-9.65958,3.4792799999999997,68.0
1774823249.7585752,2.1696090698242188e-05,2026-03-29T22:27:29.758,2026-03-29T18:27:29.758,-27778.59,-42362.595,-79512.61499999999,-49934.52,-10256.4,-17294.175,6257.565,-57366.045,-4.180160736399647,1.5823393975807991,6.756029224547954,16.784560019705626,14.40809617329587,9.913236732111523,6.573765105040155,-7.753095513747531,0.079406535,-0.9861424950000001,-0.181457055,-6.24134,-9.65958,3.4792799999999997,68.0
1774823249.7616522,0.0030770301818847656,2026-03-29T22:27:29.761,2026-03-29T18:27:29.761,-27731.385,-42313.994999999995,-79469.145,-50003.415,-10285.92,-17296.829999999998,6304.86,-57338.055,-1.5515877626355101,4.134084528907784,4.887452922686916,5.203434802231808,12.508082158652192,11.24081434308562,11.479732642794222,-4.0161001387715904,0.079406535,-0.9861424950000001,-0.181457055,-6.24134,-9.65958,3.4792799999999997,68.0
1774823249.7616744,2.2172927856445312e-05,2026-03-29T22:27:29.761,2026-03-29T18:27:29.761,-27724.995,-42302.88,-79457.535,-50082.57,-10226.34,-17276.76,6387.389999999999,-57301.784999999996,1.6930824928842252,4.992202783044919,1.6240251881892263,-8.675962148995684,5.76686922210791,7.8111904093027835,11.359825848048455,1.6765521767747849,0.079406535,-0.9861424950000001,-0.181457055,-6.24134,-9.65958,3.4792799999999997,68.0
1774823249.7969356,0.03526115417480469,2026-03-29T22:27:29.796,2026-03-29T18:27:29.796,-27756.045,-42342.165,-79465.905,-49944.465,-10122.255,-17230.23,6408.63,-57293.595,4.201137284400456,3.8966162651876757,-1.4594786551553949,-18.12780351138133,-2.8085016386495862,1.022355179970127,5.769297621549833,6.458816021483693,0.079406535,-0.9861424950000001,-0.181457055,-6.24134,-9.65958,3.4792799999999997,68.0
1774823249.7969756,4.00543212890625e-05,2026-03-29T22:27:29.796,2026-03-29T18:27:29.796,-27761.129999999997,-42366.869999999995,-79480.08,-49923.765,-10108.664999999999,-17189.28,6361.514999999999,-57305.97,4.9232683209285195,1.3165655091121062,-3.3620790155111835,-18.823188677872484,-9.789435375790958,-6.326015455217608,-3.0858902604523273,7.939823430724094,0.079406535,-0.9861424950000001,-0.181457055,-6.24134,-9.65958,3.4792799999999997,68.0
1774823249.7970405,6.4849853515625e-05,2026-03-29T22:27:29.797,2026-03-29T18:27:29.797,-27755.594999999998,-42363.314999999995,-79463.745,-49935.645,-10147.77,-17197.92,6363.8099999999995,-57302.729999999996,3.566124708340216,-1.7265331884872324,-3.8813953353673987,-10.813845384131747,-12.641967995568024,-11.155212422997078,-11.192825575176407,5.410313944953458,0.079406535,-0.9861424950000001,-0.181457055,-6.24134,-9.65958,3.4792799999999997,68.0
1774823249.79706,1.9550323486328125e-05,2026-03-29T22:27:29.797,2026-03-29T18:27:29.797,-27745.065,-42354.99,-79444.89,-49916.115,-10158.39,-17197.47,6366.554999999999,-57320.1,0.7264308064478954,-4.034778231178976,-3.342727234759553,1.7375779672311842,-10.547279643729945,-11.360167473326964,-14.560539551568406,0.194011579328839,0.079406535,-0.9861424950000001,-0.181457055,-6.24134,-9.65958,3.4792799999999997,68.0
1774823249.7970812,2.1219253540039062e-05,2026-03-29T22:27:29.797,2026-03-29T18:27:29.797,-27742.32,-42352.515,-79456.36499999999,-49908.284999999996,-10144.26,-17178.39,6357.51,-57333.375,-2.362515112804701,-4.687367587535659,-2.1527660047152253,12.804780198031702,-4.526095980841206,-6.704186259289539,-11.195960872388634,-5.0356467889247885,0.079406535,-0.9861424950000001,-0.181457055,-6.24134,-9.65958,3.4792799999999997,68.0
1774823249.7970915,1.0251998901367188e-05,2026-03-29T22:27:29.797,2026-03-29T18:27:29.797,-27753.885,-42366.78,-79482.69,-49920.84,-10150.785,-17186.579999999998,6357.735,-57335.354999999996,-4.3687044431960915,-3.4106120808888543,-0.5387661086996378,17.48070567115369,3.061332122015705,1.0122866085554545,-2.243407661771137,-7.624177898342381,0.079406535,-0.9861424950000001,-0.181457055,-6.24134,-9.65958,3.4792799999999997,68.0
1774823249.797104,1.239776611328125e-05,2026-03-29T22:27:29.797,2026-03-29T18:27:29.797,-27755.82,-42361.29,-79478.235,-49911.705,-10144.125,-17184.645,6373.665,-57340.799999999996,-4.447644353674358,-0.7134824492256013,1.3729734833854623,14.182839048841284,9.39476845307384,8.612550236358196,8.349377779976647,-6.289307528427803,0.07971171,-0.98595939,-0.17919876,-0.9919,-8.59138,1.31236,68.0
1774823249.797114,1.0013580322265625e-05,2026-03-29T22:27:29.797,2026-03-29T18:27:29.797,-27754.245,-42360.479999999996,-79479.765,-49913.1,-10150.515,-17194.995,6372.675,-57333.015,-2.612666308080451,2.2884849058543346,3.278548019965028,5.078357296792764,12.154303440884643,12.814042380541322,15.578412545439324,-1.7657361587354445,0.07971171,-0.98595939,-0.17919876,-0.9919,-8.59138,1.31236,68.0
1774823249.7971258,1.1920928955078125e-05,2026-03-29T22:27:29.797,2026-03-29T18:27:29.797,-27754.829999999998,-42361.2,-79482.42,-49913.64,-10161.855,-17216.145,6356.969999999999,-57332.88,0.28083401500639055,4.3169773162019185,4.528460785891296,-5.3028939522717415,10.291025010855556,11.622678947881798,15.768025558638346,3.5872594069101553,0.07971171,-0.98595939,-0.17919876,-0.9919,-8.59138,1.31236,68.0
1774823249.7971356,9.775161743164062e-06,2026-03-29T22:27:29.797,2026-03-29T18:27:29.797,-27757.98,-42371.235,-79495.065,-49909.095,-10182.869999999999,-17231.579999999998,6346.26,-57335.85,2.9312519783823476,4.475501152921045,4.3108698591254875,-12.403589049778395,4.402399450074821,5.271815423795514,8.446834101615249,7.010053001899806,0.07971171,-0.98595939,-0.17919876,-0.9919,-8.59138,1.31236,68.0
1774823249.7971475,1.1920928955078125e-05,2026-03-29T22:27:29.797,2026-03-29T18:27:29.797,-27753.39,-42385.005,-79535.97,-49957.02,-10238.85,-17253.945,6335.594999999999,-57331.71,4.1843009438310235,2.6621353355724513,2.159671423158659,-13.687712354378736,-3.409047817462243,-3.7339645317002965,-3.245708217702561,6.765309565993827,0.07971171,-0.98595939,-0.17919876,-0.9919,-8.59138,1.31236,68.0
1774823249.7971575,1.0013580322265625e-05,2026-03-29T22:27:29.797,2026-03-29T18:27:29.797,-27770.489999999998,-42406.74,-79558.56,-49983.255,-10279.619999999999,-17300.97,6300.495,-57345.75,3.5493347435587914,-0.3479437428486399,-1.5225352770616836,-9.461109323312565,-10.199266719045529,-11.56517160949927,-13.904156863346834,3.024897800126112,0.07971171,-0.98595939,-0.17919876,-0.9919,-8.59138,1.31236,68.0
1774823249.799862,0.0027043819427490234,2026-03-29T22:27:29.799,2026-03-29T18:27:29.799,-27787.905,-42420.735,-79596.495,-50010.075,-10289.565,-17322.614999999998,6263.505,-57373.965,1.400657824691267,-3.214945642078326,-5.334471639554391,-2.2561566019833212,-13.21753519248903,-14.672278304814654,-18.378578030961588,-2.234241303009667,0.07971171,-0.98595939,-0.17919876,-0.9919,-8.59138,1.31236,68.0
1774823249.7999015,3.9577484130859375e-05,2026-03-29T22:27:29.799,2026-03-29T18:27:29.799,-27800.1,-42429.645,-79669.75499999999,-50031.72,-10238.715,-17263.44,6278.219999999999,-57398.939999999995,-1.224057725589363,-4.626010892324169,-7.366876230605057,4.683406609888814,-10.995313977772765,-11.390342006815679,-14.285876610824596,-6.266741951052355,0.07971171,-0.98595939,-0.17919876,-0.9919,-8.59138,1.31236,68.0
1774823249.7999372,3.5762786865234375e-05,2026-03-29T22:27:29.799,2026-03-29T18:27:29.799,-27770.175,-42390.854999999996,-79616.52,-49979.205,-10158.119999999999,-17197.829999999998,6327.945,-57376.17,-3.1251249637427936,-3.906327338788775,-6.167629928532262,8.919853035766542,-4.071760304895843,-2.819637425231429,-3.2756374583803005,-6.987062242955634,0.07971171,-0.98595939,-0.17919876,-0.9919,-8.59138,1.31236,68.0
1774823249.799956,1.8835067749023438e-05,2026-03-29T22:27:29.799,2026-03-29T18:27:29.799,-27757.395,-42367.455,-79511.12999999999,-49930.02,-10125.9,-17186.309999999998,6382.9349999999995,-57341.79,-3.498970954614392,-1.360119362386342,-1.6879366035183057,9.606888704301015,5.00901832103953,7.480645196261728,9.620702934696142,-4.047535575512999,0.07971171,-0.98595939,-0.17919876,-0.9919,-8.59138,1.31236,68.0
1774823249.7999768,2.0742416381835938e-05,2026-03-29T22:27:29.799,2026-03-29T18:27:29.799,-27733.274999999998,-42342.345,-79442.37,-49930.875,-10123.199999999999,-17179.29,6418.9349999999995,-57306.96,-2.288618341222827,1.8383486235077664,4.37555291175559,7.337278708187625,12.55439827983767,14.944861434068104,18.30891416985411,0.9912911990535365,0.0842283,-0.987485265,-0.18127395,2.60946,-7.53844,1.70912,68.0
1774823249.7999935,1.6689300537109375e-05,2026-03-29T22:27:29.799,2026-03-29T18:27:29.799,-27731.969999999998,-42344.82,-79430.175,-49925.924999999996,-10136.115,-17191.395,6401.835,-57305.564999999995,-0.16822020257594578,4.176100629836047,9.169487652957288,3.394977622285311,15.195308698239835,16.022536846094948,18.54101272028332,5.482597465165794,0.0842283,-0.987485265,-0.18127395,2.60946,-7.53844,1.70912,68.0
1774823249.8000133,1.9788742065429688e-05,2026-03-29T22:27:29.800,2026-03-29T18:27:29.800,-27727.155,-42345.72,-79427.745,-49912.74,-10161.765,-17217.225,6368.04,-57309.165,1.8164600152927957,4.518608560341093,10.032029046213832,-0.9946608436717869,11.403533821785791,9.875481707009154,10.011996367285114,7.07668331384855,0.0842283,-0.987485265,-0.18127395,2.60946,-7.53844,1.70912,68.0
1774823249.8000302,1.6927719116210938e-05,2026-03-29T22:27:29.800,2026-03-29T18:27:29.800,-27726.164999999997,-42342.84,-79421.94,-49894.244999999995,-10169.82,-17226.315,6354.495,-57314.159999999996,2.7647486398243943,2.6712076891397594,5.958779386286814,-4.9762550252344715,2.3632137937293027,-1.0658637367589678,-3.3996916484469386,4.944868518267909,0.0842283,-0.987485265,-0.18127395,2.60946,-7.53844,1.70912,68.0
1774823249.803537,0.0035066604614257812,2026-03-29T22:27:29.803,2026-03-29T18:27:29.803,-27723.78,-42337.53,-79427.79,-49888.439999999995,-10163.97,-17219.97,6351.615,-57321.72,2.338791800568118,-0.4979826506073187,-1.6169195237428804,-7.9069132337903385,-8.296014535454342,-12.030256659835695,-15.409678944148824,0.2080607874043481,0.0842283,-0.987485265,-0.18127395,2.60946,-7.53844,1.70912,68.0
1774823249.8035617,2.47955322265625e-05,2026-03-29T22:27:29.803,2026-03-29T18:27:29.803,-27732.69,-42346.755,-79461.405,-49916.07,-10172.43,-17219.835,6354.855,-57333.42,0.8844398776045759,-3.452953387413612,-9.25523451672931,-9.070511632854794,-15.921591808078112,-17.984506706390903,-20.301961100767116,-4.650816807911431,0.0842283,-0.987485265,-0.18127395,2.60946,-7.53844,1.70912,68.0
1774823249.8076942,0.004132509231567383,2026-03-29T22:27:29.807,2026-03-29T18:27:29.807,-27743.625,-42348.869999999995,-79473.78,-49932.314999999995,-10179.855,-17219.024999999998,6361.695,-57354.93,-0.7887664509648785,-4.728002652218955,-13.071424594056086,-7.684863947065983,-16.878916204815912,-15.95966455274171,-15.67837386095364,-7.082885450314938,0.0842283,-0.987485265,-0.18127395,2.60946,-7.53844,1.70912,68.0
1774823249.8077214,2.7179718017578125e-05,2026-03-29T22:27:29.807,2026-03-29T18:27:29.807,-27742.14,-42358.409999999996,-79490.925,-49951.305,-10195.92,-17235.315,6355.62,-57346.56,-1.8420866671694736,-3.6558897388821463,-10.716944922725347,-3.363129709815818,-10.309488216434314,-6.541535595644209,-3.6472329275356623,-5.802907864485189,0.0842283,-0.987485265,-0.18127395,2.60946,-7.53844,1.70912,68.0
1774823249.8114753,0.0037539005279541016,2026-03-29T22:27:29.811,2026-03-29T18:27:29.811,-27750.465,-42361.515,-79483.36499999999,-49930.064999999995,-10179.449999999999,-17229.735,6353.55,-57354.165,-1.828528046228901,-0.722853049464572,-2.765164339506264,3.227413541251787,1.2572664458710552,6.228621126248075,10.143858406080286,-1.4613624687500462,0.0842283,-0.987485265,-0.18127395,2.60946,-7.53844,1.70912,68.0
1774823249.8114872,1.1920928955078125e-05,2026-03-29T22:27:29.811,2026-03-29T18:27:29.811,-27739.754999999997,-42364.665,-79489.8,-49921.424999999996,-10173.96,-17232.165,6344.775,-57339.27,-0.8886224142665505,2.6403358024033143,7.294345560043667,10.044923985042345,12.833956750899754,16.583775995347626,19.18459719203689,3.6897578975669485,0.0842283,-0.987485265,-0.18127395,2.60946,-7.53844,1.70912,68.0
1774823249.815544,0.004056692123413086,2026-03-29T22:27:29.815,2026-03-29T18:27:29.815,-27755.28,-42367.59,-79484.805,-49910.04,-10162.08,-17222.579999999998,6336.764999999999,-57361.68,0.3676300659386861,4.746717909326537,14.58096478751795,14.143220014624836,19.131931832290416,19.654810196112006,19.207463914703382,6.963927623253159,0.08996559,-0.99535878,-0.19006299000000001,4.16598,-5.08158,5.1884,68.0
1774823249.8155546,1.0728836059570312e-05,2026-03-29T22:27:29.815,2026-03-29T18:27:29.815,-27752.579999999998,-42350.805,-79459.83,-49889.205,-10146.465,-17207.19,6326.099999999999,-57379.77,1.216924121085348,4.4925374450998765,15.202530014828918,12.94233133062739,17.008844599988485,13.78554335572807,10.225748061989805,6.635079531388306,0.08996559,-0.99535878,-0.19006299000000001,4.16598,-5.08158,5.1884,68.0
1774823249.8195245,0.003969907760620117,2026-03-29T22:27:29.819,2026-03-29T18:27:29.819,-27750.6,-42344.64,-79455.33,-49878.134999999995,-10141.244999999999,-17220.555,6337.26,-57378.195,1.2203761102672177,1.9314996374285618,8.32110065946527,5.751460317368633,7.0582208439171925,1.4257095372531412,-3.4801279154272438,2.838273739038855,0.08996559,-0.99535878,-0.19006299000000001,4.16598,-5.08158,5.1884,68.0
1774823249.8195364,1.1920928955078125e-05,2026-03-29T22:27:29.819,2026-03-29T18:27:29.819,-27756.0,-42356.79,-79491.825,-49893.119999999995,-10159.425,-17255.34,6352.785,-57380.13,0.4503021439842194,-1.7138077651548995,-3.187817034085251,-5.3240766072511025,-6.473400348009787,-11.880508443544606,-15.419762699206615,-2.490406976480516,0.08996559,-0.99535878,-0.19006299000000001,4.16598,-5.08158,5.1884,68.0
1774823249.8241374,0.004601001739501953,2026-03-29T22:27:29.824,2026-03-29T18:27:29.824,-27752.94,-42374.205,-79540.37999999999,-49956.435,-10218.914999999999,-17303.445,6344.775,-57370.229999999996,-0.5710485515307178,-4.62842856478244,-13.922711645983867,-15.7952855343843,-17.499719541918214,-20.000446928435064,-19.996683319314553,-6.60508969946988,0.08996559,-0.99535878,-0.19006299000000001,4.16598,-5.08158,5.1884,68.0
1774823249.8241832,4.57763671875e-05,2026-03-29T22:27:29.824,2026-03-29T18:27:29.824,-27740.07,-42371.82,-79548.84,-49986.18,-10230.39,-17297.91,6330.96,-57362.04,-1.1821494811390179,-5.299816410541831,-18.50622575942375,-20.593981089496687,-20.863940769996262,-19.072260119354233,-15.160482429563864,-7.362914983818256,0.08996559,-0.99535878,-0.19006299000000001,4.16598,-5.08158,5.1884,68.0
1774823249.8276775,0.0034942626953125,2026-03-29T22:27:29.827,2026-03-29T18:27:29.827,-27743.309999999998,-42376.545,-79540.2,-49973.445,-10206.63,-17263.755,6334.5599999999995,-57362.759999999995,-0.9695132482612216,-3.292008476216955,-14.284391817512716,-16.551700571724616,-14.787984201390826,-9.368611914227916,-3.336882908089576,-4.331983640421592,0.08996559,-0.99535878,-0.19006299000000001,4.16598,-5.08158,5.1884,68.0
1774823249.8276963,1.8835067749023438e-05,2026-03-29T22:27:29.827,2026-03-29T18:27:29.827,-27751.995,-42380.909999999996,-79520.67,-49970.384999999995,-10204.515,-17253.495,6334.469999999999,-57365.954999999994,-0.017112594146441302,0.4939615096461568,-2.8149128227875266,-4.326634045009114,-1.8199710910105091,4.747938749748923,9.791674673373064,0.9753296500713153,0.08996559,-0.99535878,-0.19006299000000001,4.16598,-5.08158,5.1884,68.0
1774823249.8322868,0.004590511322021484,2026-03-29T22:27:29.832,2026-03-29T18:27:29.832,-27771.434999999998,-42388.244999999995,-79503.165,-49947.57,-10196.414999999999,-17236.079999999998,6340.679999999999,-57388.275,1.1236629360070332,4.22196362796976,10.673280609137333,11.342571336312403,12.228292676072307,16.80089273768147,18.04039043952986,5.8649946103521255,0.08996559,-0.99535878,-0.19006299000000001,4.16598,-5.08158,5.1884,68.0
1774823249.8323061,1.9311904907226562e-05,2026-03-29T22:27:29.832,2026-03-29T18:27:29.832,-27768.6,-42372.765,-79471.305,-49865.085,-10155.285,-17188.29,6348.105,-57400.695,1.7347226404934377,6.006560792869634,19.681376484167025,23.436583848851452,20.91466204952257,21.205972075268388,17.66547095810779,7.831569611575378,0.08996559,-0.99535878,-0.19006299000000001,4.16598,-5.08158,5.1884,68.0
1774823249.836454,0.004147768020629883,2026-03-29T22:27:29.836,2026-03-29T18:27:29.836,-27748.71,-42348.78,-79443.045,-49823.28,-10130.895,-17163.09,6349.23,-57393.045,1.3447651191292906,4.856251234720733,19.589662729696897,25.84597765033397,20.163414171505824,15.895739883552844,9.081902460732337,5.837665734516003,0.09179664,-0.999814335,-0.1928706,1.8769799999999999,-3.79974,9.354379999999999,68.0
1774823249.8364809,2.6941299438476562e-05,2026-03-29T22:27:29.836,2026-03-29T18:27:29.836,-27764.504999999997,-42355.845,-79455.465,-49885.47,-10152.494999999999,-17185.274999999998,6332.085,-57416.805,0.029313687331245883,1.2051127123725383,10.017527905422444,16.478962555014704,10.210446584182206,3.3110403650845193,-3.4413391616881426,0.8508971715743513,0.09179664,-0.999814335,-0.1928706,1.8769799999999999,-3.79974,9.354379999999999,68.0
1774823249.8408265,0.00434565544128418,2026-03-29T22:27:29.840,2026-03-29T18:27:29.840,-27769.77,-42376.095,-79513.515,-49999.229999999996,-10197.27,-17229.645,6334.875,-57419.369999999995,-1.5775238125718734,-3.246185750311569,-4.809593953496117,-1.3058911521492313,-4.447342103805101,-10.726701857815812,-13.914073411017432,-4.635389440448908,0.09179664,-0.999814335,-0.1928706,1.8769799999999999,-3.79974,9.354379999999999,68.0
1774823249.840838,1.1444091796875e-05,2026-03-29T22:27:29.840,2026-03-29T18:27:29.840,-27768.015,-42374.205,-79504.425,-49974.84,-10193.67,-17253.045,6295.1849999999995,-57443.31,-2.586184137811168,-6.3244983676141215,-17.943273660725385,-19.831176626757014,-17.106146088108435,-19.739325289572225,-17.51543828251068,-7.85558659918486,0.09179664,-0.999814335,-0.1928706,1.8769799999999999,-3.79974,9.354379999999999,68.0
1774823249.843997,0.003159046173095703,2026-03-29T22:27:29.843,2026-03-29T18:27:29.843,-27746.1,-42358.32,-79494.61499999999,-50000.85,-10225.17,-17270.73,6299.91,-57428.369999999995,-2.3260469014178944,-6.441220622807104,-22.99582200740977,-30.45897641096797,-21.963742558740602,-19.623148316609143,-12.835580901949184,-7.166151092829953,0.09179664,-0.999814335,-0.1928706,1.8769799999999999,-3.79974,9.354379999999999,68.0
1774823249.8440301,3.314018249511719e-05,2026-03-29T22:27:29.844,2026-03-29T18:27:29.844,-27723.015,-42332.13,-79445.025,-49937.715,-10213.47,-17271.72,6322.815,-57398.13,-0.7446600904470568,-3.3986283536332547,-17.257854078677756,-27.6846114471977,-16.82034598086102,-10.549418410766034,-2.415580628380799,-2.8776492303664565,0.09179664,-0.999814335,-0.1928706,1.8769799999999999,-3.79974,9.354379999999999,68.0
1774823249.850722,0.006691932678222656,2026-03-29T22:27:29.850,2026-03-29T18:27:29.850,-27708.434999999998,-42318.135,-79439.12999999999,-49838.04,-10160.595,-17229.555,6367.275,-57383.369999999995,1.4919582670191247,1.4596456839677576,-3.1208209319556324,-11.994074643575333,-4.094451472898621,3.1618162488055095,8.61417223286938,2.8936985583764776,0.09179664,-0.999814335,-0.1928706,1.8769799999999999,-3.79974,9.354379999999999,68.0
1774823249.8507457,2.3603439331054688e-05,2026-03-29T22:27:29.850,2026-03-29T18:27:29.850,-27733.545,-42359.22,-79501.545,-49894.29,-10184.625,-17222.489999999998,6351.255,-57411.674999999996,3.278301372246615,5.848365497425974,12.932360914782544,10.00244451657666,10.325244034083852,15.118018936746187,15.073975581167373,7.279435981027305,0.09179664,-0.999814335,-0.1928706,1.8769799999999999,-3.79974,9.354379999999999,68.0
1774823249.8575099,0.00676417350769043,2026-03-29T22:27:29.857,2026-03-29T18:27:29.857,-27744.57,-42386.265,-79562.655,-49999.95,-10202.895,-17204.175,6371.01,-57409.515,3.612097814959575,7.619961431978356,23.33512436402851,28.387583857499656,19.841795644782266,19.873949158758812,14.18890366633525,8.088607716140038,0.09179664,-0.999814335,-0.1928706,1.8769799999999999,-3.79974,9.354379999999999,68.0
1774823249.8575249,1.5020370483398438e-05,2026-03-29T22:27:29.857,2026-03-29T18:27:29.857,-27758.385,-42396.299999999996,-79576.73999999999,-50001.479999999996,-10196.685,-17215.695,6383.745,-57397.905,2.1362779629104756,5.8111387316161185,23.030140912345445,34.48772266970842,20.212769729588956,15.450024638452506,6.784171655457044,4.899370983735098,0.09179664,-0.999814335,-0.1928706,1.8769799999999999,-3.79974,9.354379999999999,68.0
1774823249.8617911,0.004266262054443359,2026-03-29T22:27:29.861,2026-03-29T18:27:29.861,-27769.545,-42413.04,-79562.43,-49937.715,-10179.449999999999,-17249.67,6337.26,-57397.77,-0.6053877319950745,1.147552839687211,11.927107060496246,25.03138647580158,11.470327359283715,4.166100289456411,-3.2943272145115676,-0.7299189221616104,0.09497046,-1.005185415,-0.194030265,-3.4945399999999998,-5.73776,13.154119999999999,68.0
1774823249.86181,1.8835067749023438e-05,2026-03-29T22:27:29.861,2026-03-29T18:27:29.861,-27762.12,-42386.265,-79500.78,-49913.415,-10145.609999999999,-17227.125,6262.155,-57442.68,-3.3580755089375542,-4.25196170538184,-4.970739165217699,3.890410383804108,-2.1846998799870887,-8.566111079815375,-11.170503118477184,-6.031751511825692,0.09497046,-1.005185415,-0.194030265,-3.4945399999999998,-5.73776,13.154119999999999,68.0
1774823249.861826,1.5974044799804688e-05,2026-03-29T22:27:29.861,2026-03-29T18:27:29.861,-27742.635,-42358.725,-79496.145,-49953.509999999995,-10218.69,-17275.364999999998,6270.344999999999,-57436.29,-4.731562456987959,-7.848803257600099,-19.859854235845393,-19.519220061865795,-14.424587909550144,-16.866609745558293,-13.311307784388468,-8.396545485930725,0.09497046,-1.005185415,-0.194030265,-3.4945399999999998,-5.73776,13.154119999999999,68.0
1774823249.8618307,4.76837158203125e-06,2026-03-29T22:27:29.861,2026-03-29T18:27:29.861,-27747.945,-42373.53,-79550.595,-49968.945,-10228.545,-17262.0,6361.155,-57421.665,-3.8978431738039983,-7.883603434468061,-25.779373390921204,-34.50984817937545,-19.7693160135228,-17.141948127379262,-9.120881918791058,-6.657511543990955,0.09497046,-1.005185415,-0.194030265,-3.4945399999999998,-5.73776,13.154119999999999,68.0
1774823249.8652837,0.0034530162811279297,2026-03-29T22:27:29.865,2026-03-29T18:27:29.865,-27774.495,-42398.189999999995,-79528.545,-49920.75,-10179.9,-17212.77,6422.085,-57416.49,-1.0629791995886761,-4.231619374441907,-19.88367852002792,-34.092152372172514,-16.07571337630487,-9.662265846801594,-1.0322741900483372,-1.6607301750395282,0.09497046,-1.005185415,-0.194030265,-3.4945399999999998,-5.73776,13.154119999999999,68.0
1774823249.865301,1.71661376953125e-05,2026-03-29T22:27:29.865,2026-03-29T18:27:29.865,-27763.695,-42366.195,-79461.62999999999,-49939.02,-10147.005,-17183.34,6384.105,-57416.534999999996,2.5462727884896488,1.5001629338499969,-4.795915223732441,-18.288993629352497,-5.393177597354594,1.7422818099275101,6.858108299788866,4.155128778455864,0.09497046,-1.005185415,-0.194030265,-3.4945399999999998,-5.73776,13.154119999999999,68.0
1774823249.8714259,0.006124973297119141,2026-03-29T22:27:29.871,2026-03-29T18:27:29.871,-27749.43,-42323.174999999996,-79413.345,-49935.96,-10112.4,-17177.22,6377.085,-57422.564999999995,5.213072211331281,6.693503241996212,12.596582468553757,5.804354355802467,7.153978311814519,11.643758762327604,10.863119651372113,7.956400028236977,0.09497046,-1.005185415,-0.194030265,-3.4945399999999998,-5.73776,13.154119999999999,68.0
1774823249.8714433,1.7404556274414062e-05,2026-03-29T22:27:29.871,2026-03-29T18:27:29.871,-27743.399999999998,-42330.015,-79439.265,-49953.689999999995,-10138.185,-17224.875,6373.485,-57425.13,5.549965053615851,8.928127529865822,24.334311414132003,27.27263499142515,15.855286679495265,15.63119180952389,9.435797865246277,7.897710189323883,0.09497046,-1.005185415,-0.194030265,-3.4945399999999998,-5.73776,13.154119999999999,68.0
1774823249.8714805,3.719329833984375e-05,2026-03-29T22:27:29.871,2026-03-29T18:27:29.871,-27733.454999999998,-42331.365,-79427.745,-49920.255,-10158.705,-17248.815,6367.995,-57413.25,3.215680013525673,7.115293762868361,25.062932476180844,36.424476296760766,17.05139984232792,12.304051264748113,3.742470021115294,4.014686311029501,0.09497046,-1.005185415,-0.194030265,-3.4945399999999998,-5.73776,13.154119999999999,68.0
1774823249.8714888,8.344650268554688e-06,2026-03-29T22:27:29.871,2026-03-29T18:27:29.871,-27744.795,-42337.979999999996,-79408.70999999999,-49877.729999999996,-10155.6,-17239.454999999998,6368.355,-57409.29,-0.8386109277537358,2.0217755608411396,14.479769548491923,29.25116487491515,10.683790978372627,3.730020336965181,-3.1190186901247934,-1.8038459835706093,0.09497046,-1.005185415,-0.194030265,-3.4945399999999998,-5.73776,13.154119999999999,68.0
1774823249.8757296,0.004240751266479492,2026-03-29T22:27:29.875,2026-03-29T18:27:29.875,-27733.815,-42340.409999999996,-79430.895,-49894.064999999995,-10164.33,-17225.82,6358.275,-57416.13,-4.750175324481398,-4.066186621699363,-2.571482506921043,9.208932568429976,0.09508082922513045,-5.7622706549496705,-7.776049531146784,-6.741831278001773,0.09204078,-1.002377805,-0.189757815,9.506979999999999,-4.7458599999999995,9.155999999999999,68.0
1774823249.8757415,1.1920928955078125e-05,2026-03-29T22:27:29.875,2026-03-29T18:27:29.875,-27721.575,-42344.865,-79468.83,-49930.244999999995,-10177.335,-17224.155,6346.485,-57428.685,-6.604812818798437,-8.386591966024213,-18.36814417388722,-14.48194262310813,-9.722158213716831,-11.776260330219385,-8.23688332266528,-8.422621508914538,0.09204078,-1.002377805,-0.189757815,9.506979999999999,-4.7458599999999995,9.155999999999999,68.0
1774823249.8807573,0.005015850067138672,2026-03-29T22:27:29.880,2026-03-29T18:27:29.880,-27746.19,-42354.765,-79470.855,-49912.38,-10151.595,-17189.595,6356.16,-57451.095,-5.3781065553087135,-8.969014934612387,-25.85397758525582,-31.17067074477042,-14.512032740520999,-11.911666499550863,-4.732875781544764,-6.051403983967486,0.09204078,-1.002377805,-0.189757815,9.506979999999999,-4.7458599999999995,9.155999999999999,68.0
1774823249.8807917,3.4332275390625e-05,2026-03-29T22:27:29.880,2026-03-29T18:27:29.880,-27747.585,-42363.494999999995,-79479.405,-49914.585,-10155.779999999999,-17193.51,6351.255,-57441.42,-1.4937904764320509,-5.537544499496842,-21.812451894239477,-33.66453698355255,-12.621826827290095,-6.718158594275142,0.602742276693376,-0.7853555281694309,0.09204078,-1.002377805,-0.189757815,9.506979999999999,-4.7458599999999995,9.155999999999999,68.0
1774823249.883707,0.0029153823852539062,2026-03-29T22:27:29.883,2026-03-29T18:27:29.883,-27744.48,-42371.055,-79491.87,-49926.06,-10170.135,-17213.445,6344.594999999999,-57432.645,3.3018444432702356,0.36693480017166863,-8.230019669525813,-21.38162288980712,-5.519339261331052,0.8379179282100728,4.96554497878746,4.837511156760487,0.09204078,-1.002377805,-0.189757815,9.506979999999999,-4.7458599999999995,9.155999999999999,68.0
1774823249.8837233,1.621246337890625e-05,2026-03-29T22:27:29.883,2026-03-29T18:27:29.883,-27733.14,-42376.77,-79516.98,-49959.494999999995,-10193.265,-17237.204999999998,6334.38,-57418.515,6.726707212633671,6.096363710625077,8.719262019018398,-0.35854372210408353,3.168254661015589,7.017804166951221,6.332415873156312,8.125589481314702,0.09204078,-1.002377805,-0.189757815,9.506979999999999,-4.7458599999999995,9.155999999999999,68.0
1774823249.8877795,0.004056215286254883,2026-03-29T22:27:29.887,2026-03-29T18:27:29.887,-27732.6,-42374.52,-79518.19499999999,-49960.215,-10194.705,-17240.805,6315.66,-57428.009999999995,7.056657488440641,9.102932267972497,21.534770192690658,19.77063922349788,9.513546528983179,9.172131700023543,4.391126442547344,7.521614362088678,0.09204078,-1.002377805,-0.189757815,9.506979999999999,-4.7458599999999995,9.155999999999999,68.0
1774823249.887794,1.4543533325195312e-05,2026-03-29T22:27:29.887,2026-03-29T18:27:29.887,-27730.395,-42353.369999999995,-79484.12999999999,-49923.81,-10166.175,-17213.985,6327.945,-57442.814999999995,3.9994632420808385,8.0850452164329,24.745653236921115,30.29159367596226,11.090555665051319,6.888211325258732,0.5243793453367906,3.33552479367813,0.09204078,-1.002377805,-0.189757815,9.506979999999999,-4.7458599999999995,9.155999999999999,68.0
1774823249.8918412,0.0040471553802490234,2026-03-29T22:27:29.891,2026-03-29T18:27:29.891,-27745.829999999998,-42349.005,-79469.775,-49910.67,-10153.89,-17202.915,6358.7699999999995,-57459.284999999996,-1.0959860341143486,3.550208959626397,17.242925661980877,27.258956494237967,7.880441724012402,1.9207684189365761,-3.0624555762437287,-2.41986484080373,0.09204078,-1.002377805,-0.189757815,9.506979999999999,-4.7458599999999995,9.155999999999999,68.0
1774823249.8918638,2.2649765014648438e-05,2026-03-29T22:27:29.891,2026-03-29T18:27:29.891,-27749.43,-42367.68,-79502.08499999999,-49950.405,-10184.22,-17230.77,6364.08,-57449.34,-5.831214565575559,-2.448793734230719,2.5948551339921826,12.939181210556272,1.955382206209246,-2.943949476398233,-4.552512723571422,-7.000758599871842,0.09204078,-1.002377805,-0.189757815,9.506979999999999,-4.7458599999999995,9.155999999999999,68.0
1774823249.8978512,0.005987405776977539,2026-03-29T22:27:29.897,2026-03-29T18:27:29.897,-27737.325,-42371.685,-79520.04,-49980.33,-10201.185,-17246.385,6347.88,-57434.534999999996,-7.893793644844306,-7.264306042511084,-12.69829011257197,-5.662197911566191,-3.7625564575221078,-5.412577054589725,-3.418046237996122,-8.24041979981504,0.09118629,-0.995419815,-0.18518019,16.37398,-2.86888,6.31764,68.0
1774823249.8978767,2.5510787963867188e-05,2026-03-29T22:27:29.897,2026-03-29T18:27:29.897,-27741.195,-42366.42,-79511.48999999999,-49973.625,-10190.07,-17236.665,6351.3,-57436.65,-6.197226607434694,-8.841854202944965,-22.137322203711285,-20.29857695860855,-6.95618392687505,-4.777845209466693,-0.5718077742503718,-5.5698997511860036,0.09118629,-0.995419815,-0.18518019,16.37398,-2.86888,6.31764,68.0
1774823249.8998294,0.0019526481628417969,2026-03-29T22:27:29.899,2026-03-29T18:27:29.899,-27765.989999999998,-42361.92,-79488.855,-49944.104999999996,-10166.76,-17215.245,6350.76,-57470.4,-1.459230324708733,-6.603831605305003,-21.999309580017115,-25.23094136410073,-6.8520021920779755,-2.054607655870127,2.2482394928617153,-0.2729888939148436,0.09118629,-0.995419815,-0.18518019,16.37398,-2.86888,6.31764,68.0
1774823249.8998468,1.7404556274414062e-05,2026-03-29T22:27:29.899,2026-03-29T18:27:29.899,-27754.515,-42355.979999999996,-79470.45,-49925.07,-10169.324999999999,-17219.565,6328.26,-57467.52,4.091114500639091,-1.6449966282943405,-12.763689701599969,-19.479246919617736,-4.2631800561463615,0.818652762929911,3.4785231557690333,5.135174741165749,0.09118629,-0.995419815,-0.18518019,16.37398,-2.86888,6.31764,68.0
1774823249.9046128,0.004765987396240234,2026-03-29T22:27:29.904,2026-03-29T18:27:29.904,-27751.094999999998,-42356.07,-79467.39,-49916.159999999996,-10169.595,-17223.255,6327.405,-57466.979999999996,7.7644361602605105,3.8171842103761713,1.333162451058044,-6.690522072234868,-0.8597166198226428,2.191134581756095,2.558689825924088,8.102785044218718,0.09118629,-0.995419815,-0.18518019,16.37398,-2.86888,6.31764,68.0
1774823249.9046445,3.170967102050781e-05,2026-03-29T22:27:29.904,2026-03-29T18:27:29.904,-27741.78,-42345.945,-79455.555,-49887.494999999995,-10161.09,-17218.845,6346.3949999999995,-57462.255,7.724355611217663,7.4566195697651985,14.291188318817724,7.049083968882713,1.8310850157978888,1.6160373380551802,0.163350623882478,7.241642282437918,0.09118629,-0.995419815,-0.18518019,16.37398,-2.86888,6.31764,68.0
1774823249.9079983,0.0033538341522216797,2026-03-29T22:27:29.907,2026-03-29T18:27:29.907,-27744.12,-42362.865,-79477.155,-49875.705,-10181.07,-17230.454999999998,6369.4349999999995,-57445.11,3.917781711187677,7.84349794425135,20.928663642545736,16.191749693739258,3.12176848873299,-0.024710484038101235,-2.2462171703039044,2.97054360670837,0.09118629,-0.995419815,-0.18518019,16.37398,-2.86888,6.31764,68.0
1774823249.9080343,3.600120544433594e-05,2026-03-29T22:27:29.908,2026-03-29T18:27:29.908,-27762.75,-42397.74,-79551.94499999999,-49911.84,-10204.56,-17248.184999999998,6356.474999999999,-57462.119999999995,-1.8537307953317914,4.998944630945769,18.92878343725484,18.00438126983907,3.236417340025547,-1.2082737277176296,-3.268637603673742,-2.693050349437127,0.09118629,-0.995419815,-0.18518019,16.37398,-2.86888,6.31764,68.0
1774823249.912186,0.004151582717895508,2026-03-29T22:27:29.912,2026-03-29T18:27:29.912,-27763.829999999998,-42393.24,-79551.18,-49958.369999999995,-10207.755,-17250.66,6334.514999999999,-57472.29,-6.782998686097766,0.28783698473408004,9.556969223212839,13.189318345435886,2.83440627100138,-0.8239479070547001,-2.33165470404406,-7.087051735477489,0.09118629,-0.995419815,-0.18518019,16.37398,-2.86888,6.31764,68.0
1774823249.912206,2.002716064453125e-05,2026-03-29T22:27:29.912,2026-03-29T18:27:29.912,-27757.575,-42382.89,-79543.89,-49996.395,-10202.22,-17247.87,6312.014999999999,-57472.965,-8.428495021916227,-4.2534188576068575,-3.114956854017993,4.842275971521588,2.3778053147410083,1.0566967887721244,0.023384605937228818,-8.15270234245072,0.09118629,-0.995419815,-0.18518019,16.37398,-2.86888,6.31764,68.0
1774823249.9163024,0.004096508026123047,2026-03-29T22:27:29.916,2026-03-29T18:27:29.916,-27758.34,-42378.84,-79546.635,-50020.29,-10195.695,-17247.78,6303.735,-57472.74,-5.935768131403273,-6.816578881054272,-14.016104704943904,-3.4320661424244583,1.787138488082539,3.166402780503253,2.470260095948265,-5.393177718761904,0.10125706500000001,-1.00439196,-0.18200637,18.72402,0.09156,11.62812,68.0
1774823249.916335,3.266334533691406e-05,2026-03-29T22:27:29.916,2026-03-29T18:27:29.916,-27765.945,-42392.34,-79557.075,-50046.525,-10225.44,-17291.024999999998,6291.855,-57479.49,-0.493137788626993,-6.542223212371467,-19.09605582495469,-9.140231759705753,0.606320952951776,3.811608147000662,3.6372590999134466,-0.09973113009678784,0.10125706500000001,-1.00439196,-0.18200637,18.72402,0.09156,11.62812,68.0
1774823249.9199305,0.0035953521728515625,2026-03-29T22:27:29.919,2026-03-29T18:27:29.919,-27762.66,-42390.854999999996,-79557.3,-50051.115,-10252.529999999999,-17296.965,6310.53,-57486.015,5.225460866081379,-3.773746871525501,-16.758544489684834,-11.496865859900245,-1.457432446419342,1.982715644800461,2.8479175562204073,5.254514726958297,0.10125706500000001,-1.00439196,-0.18200637,18.72402,0.09156,11.62812,68.0
1774823249.9199626,3.218650817871094e-05,2026-03-29T22:27:29.919,2026-03-29T18:27:29.919,-27737.055,-42358.725,-79497.405,-49991.58,-10257.029999999999,-17284.5,6314.3099999999995,-57482.055,8.373586933852694,0.20899220072353336,-8.243984754073512,-10.956767352503782,-4.018999783295152,-1.859070448656724,0.4724742775510184,8.167427805565273,0.10125706500000001,-1.00439196,-0.18200637,18.72402,0.09156,11.62812,68.0
1774823249.924147,0.004184246063232422,2026-03-29T22:27:29.924,2026-03-29T18:27:29.924,-27718.289999999997,-42338.744999999995,-79455.78,-49887.494999999995,-10217.52,-17276.535,6304.455,-57463.965,7.356711105465131,3.7999091787577135,3.0468313044839013,-8.27719265602273,-5.937294489642886,-5.8273782381602155,-2.279112101787253,7.271318868323659,0.10125706500000001,-1.00439196,-0.18200637,18.72402,0.09156,11.62812,68.0
1774823249.9242325,8.559226989746094e-05,2026-03-29T22:27:29.924,2026-03-29T18:27:29.924,-27715.454999999998,-42327.674999999996,-79429.59,-49816.619999999995,-10161.494999999999,-17243.28,6279.4349999999995,-57484.305,2.6519460948655773,5.722235433105181,12.915568873349441,-3.8916579338734207,-5.82576114425491,-7.540711491752332,-3.9941765957973026,2.969098169546852,0.10125706500000001,-1.00439196,-0.18200637,18.72402,0.09156,11.62812,68.0
1774823249.9278107,0.00357818603515625,2026-03-29T22:27:29.927,2026-03-29T18:27:29.927,-27747.045,-42320.43,-79394.805,-49820.22,-10134.225,-17207.01,6283.9349999999995,-57549.465,-3.4029865489991975,5.457788747057059,17.868382197709607,1.9672420809846973,-2.921168270363649,-5.475990126445076,-3.7808626094291022,-2.7495769418658496,0.10125706500000001,-1.00439196,-0.18200637,18.72402,0.09156,11.62812,68.0
1774823249.9278288,1.811981201171875e-05,2026-03-29T22:27:29.927,2026-03-29T18:27:29.927,-27758.745,-42357.33,-79462.53,-49958.549999999996,-10198.26,-17244.045,6318.179999999999,-57548.204999999994,-7.764461696384208,3.3199606080639708,16.254692301954357,8.583235289227542,2.196646292196278,-0.0016273978167366985,-1.7076851753505888,-7.226741074327163,0.10125706500000001,-1.00439196,-0.18200637,18.72402,0.09156,11.62812,68.0
1774823249.9319255,0.0040967464447021484,2026-03-29T22:27:29.931,2026-03-29T18:27:29.931,-27783.585,-42396.299999999996,-79511.175,-49995.54,-10192.68,-17235.09,6373.98,-57540.645,-8.213500175363777,0.21260976475637366,8.73187077079319,14.182555527565665,7.534028304981471,6.5368556622107,1.248316823731343,-8.366112969570475,0.10125706500000001,-1.00439196,-0.18200637,18.72402,0.09156,11.62812,68.0
1774823249.931956,3.0517578125e-05,2026-03-29T22:27:29.931,2026-03-29T18:27:29.931,-27751.995,-42368.04,-79476.12,-49887.225,-10118.88,-17189.91,6411.735,-57503.07,-4.491868210791094,-2.7653667556363213,-2.01881835232212,16.15480419249561,10.446041948581293,10.830365874890614,3.695262665528241,-5.608343576250484,0.10125706500000001,-1.00439196,-0.18200637,18.72402,0.09156,11.62812,68.0
1774823249.93629,0.004333972930908203,2026-03-29T22:27:29.936,2026-03-29T18:27:29.936,-27730.575,-42340.725,-79435.395,-49860.674999999996,-10126.305,-17191.755,6405.48,-57490.92,1.5409166649928128,-4.690574566295021,-12.19535232608939,12.250341741523181,8.947380328034319,10.275949446441706,4.497997189787886,-0.20111558773140636,0.10577365500000001,-1.02367902,-0.179137725,20.784119999999998,0.94612,16.84704,68.0
1774823249.9363177,2.765655517578125e-05,2026-03-29T22:27:29.936,2026-03-29T18:27:29.936,-27734.895,-42345.225,-79475.44499999999,-49916.205,-10173.285,-17223.48,6350.8949999999995,-57524.13,6.826534936640325,-5.046169039488538,-18.125040063945654,2.2131492652241245,2.92079076638459,4.4615125035175405,3.2958479746308624,5.364190422710496,0.10577365500000001,-1.02367902,-0.179137725,20.784119999999998,0.94612,16.84704,68.0
1774823249.9413316,0.005013942718505859,2026-03-29T22:27:29.941,2026-03-29T18:27:29.941,-27735.03,-42351.615,-79521.97499999999,-49973.22,-10196.055,-17245.98,6338.5199999999995,-57544.74,8.652404729407708,-3.7926869925616535,-17.508390820959168,-11.174086757378335,-5.469693523926452,-4.3502578504831515,0.63448920538878,8.495575575357547,0.10577365500000001,-1.02367902,-0.179137725,20.784119999999998,0.94612,16.84704,68.0
1774823249.9413512,1.9550323486328125e-05,2026-03-29T22:27:29.941,2026-03-29T18:27:29.941,-27746.864999999998,-42358.005,-79511.4,-50012.955,-10231.02,-17294.94,6358.139999999999,-57554.954999999994,6.0434895503885215,-1.322854264723081,-10.284317723887936,-22.54099487752706,-12.512312295900553,-12.091932505112462,-2.3184864730470722,7.7014628535405345,0.10577365500000001,-1.02367902,-0.179137725,20.784119999999998,0.94612,16.84704,68.0
1774823249.9438746,0.0025234222412109375,2026-03-29T22:27:29.943,2026-03-29T18:27:29.943,-27763.155,-42391.619999999995,-79534.75499999999,-50042.97,-10271.744999999999,-17306.64,6356.969999999999,-57562.155,0.28690266381852386,1.646760486891911,1.1946580460883438,-26.05110968235323,-14.603397982764237,-14.785208166912248,-4.310129718356177,3.296500983926031,0.10577365500000001,-1.02367902,-0.179137725,20.784119999999998,0.94612,16.84704,68.0
1774823249.9438937,1.9073486328125e-05,2026-03-29T22:27:29.943,2026-03-29T18:27:29.943,-27763.965,-42387.345,-79510.545,-49998.915,-10244.97,-17269.739999999998,6336.135,-57567.509999999995,-5.694175122298994,4.226244291952612,12.823346861348062,-18.374965280496102,-10.079394586317546,-10.568728594145504,-4.53185886738572,-2.7195035965095107,0.10577365500000001,-1.02367902,-0.179137725,20.784119999999998,0.94612,16.84704,68.0
1774823249.9483285,0.004434823989868164,2026-03-29T22:27:29.948,2026-03-29T18:27:29.948,-27762.254999999997,-42384.375,-79513.605,-49992.21,-10230.029999999999,-17269.425,6289.245,-57568.5,-8.816216415602126,5.553833737052933,20.124244041325515,-1.0070364508016407,-0.2975456340158742,-0.8323092179518561,-2.919413949557522,-7.564999376378964,0.10577365500000001,-1.02367902,-0.179137725,20.784119999999998,0.94612,16.84704,68.0
1774823249.9483483,1.9788742065429688e-05,2026-03-29T22:27:29.948,2026-03-29T18:27:29.948,-27764.414999999997,-42379.38,-79503.25499999999,-49912.875,-10188.945,-17244.45,6276.87,-57584.88,-7.418432653667377,5.048244287760044,19.936023992436194,19.506896494919246,10.675262488006895,10.18917478655646,-0.12943290222884746,-8.956935624605366,0.10577365500000001,-1.02367902,-0.179137725,20.784119999999998,0.94612,16.84704,68.0
1774823249.9536476,0.00529932975769043,2026-03-29T22:27:29.953,2026-03-29T18:27:29.953,-27751.86,-42373.979999999996,-79519.31999999999,-49861.034999999996,-10150.83,-17183.565,6332.535,-57584.97,-2.142301031431244,2.660716716012719,11.79312117978642,33.95615899654748,17.758465295716608,17.27410421430142,2.7546735275978462,-6.181854080345724,0.10577365500000001,-1.02367902,-0.179137725,20.784119999999998,0.94612,16.84704,68.0
1774823249.953669,2.1457672119140625e-05,2026-03-29T22:27:29.953,2026-03-29T18:27:29.953,-27749.385,-42392.924999999996,-79555.635,-49888.71,-10158.975,-17178.66,6353.82,-57595.77,4.357023959336845,-0.981571308252187,-1.6120854551410415,34.64272150381338,17.227869410411703,16.700602252626314,4.640848499324388,-0.4577275679358786,0.10577365500000001,-1.02367902,-0.179137725,20.784119999999998,0.94612,16.84704,68.0
1774823249.958237,0.004567861557006836,2026-03-29T22:27:29.958,2026-03-29T18:27:29.958,-27731.43,-42385.095,-79541.91,-49968.0,-10176.84,-17202.645,6353.01,-57569.04,8.740565854086194,-4.660114804681196,-15.212404601812093,19.435267474331617,8.645440453266094,8.17111690932379,4.8099132402532865,5.595460434489983,0.08947731,-1.013974455,-0.174499065,21.608159999999998,0.44254,9.24756,68.0
1774823249.958259,2.2172927856445312e-05,2026-03-29T22:27:29.958,2026-03-29T18:27:29.958,-27724.364999999998,-42386.354999999996,-79509.87,-49980.869999999995,-10164.69,-17201.295,6387.21,-57522.689999999995,8.6925175381644,-6.928994033015946,-23.435518396259678,-6.419993608372877,-4.640926691781847,-4.808569678061885,3.1475996228355316,9.14936329237671,0.08947731,-1.013974455,-0.174499065,21.608159999999998,0.44254,9.24756,68.0
1774823249.9607348,0.002475738525390625,2026-03-29T22:27:29.960,2026-03-29T18:27:29.960,-27749.114999999998,-42394.545,-79495.47,-49950.99,-10145.789999999999,-17199.989999999998,6387.525,-57528.09,4.134088147064195,-6.676864291271086,-22.49652309347659,-31.953125940964785,-16.788912456956222,-16.374835400148093,0.18124460134561732,8.484581608298575,0.08947731,-1.013974455,-0.174499065,21.608159999999998,0.44254,9.24756,68.0
1774823249.9607685,3.361701965332031e-05,2026-03-29T22:27:29.960,2026-03-29T18:27:29.960,-27760.77,-42361.83,-79471.395,-49975.02,-10164.645,-17209.215,6371.639999999999,-57550.905,-2.6890732658766825,-3.6721316054810713,-12.165023574090988,-45.164524911028685,-22.052892663589844,-20.9769160378095,-3.072481294732665,3.8204338084264746,0.08947731,-1.013974455,-0.174499065,21.608159999999998,0.44254,9.24756,68.0
1774823249.9693618,0.008593320846557617,2026-03-29T22:27:29.969,2026-03-29T18:27:29.969,-27772.515,-42329.744999999995,-79432.29,-49948.155,-10172.295,-17217.72,6366.915,-57585.195,-8.31260223164318,1.1770549962390362,3.831132180592827,-38.73218026383988,-17.514373122526887,-16.045921292804547,-5.411779580710419,-2.742391109450964,0.08947731,-1.013974455,-0.174499065,21.608159999999998,0.44254,9.24756,68.0
1774823249.9693923,3.0517578125e-05,2026-03-29T22:27:29.969,2026-03-29T18:27:29.969,-27755.73,-42325.38,-79429.995,-49902.57,-10175.94,-17234.46,6353.82,-57580.29,-9.80781795676398,6.037111910800459,19.08932322270475,-13.986267993994531,-4.647913791625749,-3.376294905630585,-5.843975310436,-8.162216580851254,0.08947731,-1.013974455,-0.174499065,21.608159999999998,0.44254,9.24756,68.0
1774823249.969418,2.574920654296875e-05,2026-03-29T22:27:29.969,2026-03-29T18:27:29.969,-27742.23,-42318.854999999996,-79434.98999999999,-49900.545,-10174.904999999999,-17237.024999999998,6346.575,-57575.384999999995,-6.297348400922227,8.828225757949758,27.09773799114329,18.978215256255442,11.0992298608891,11.504458157679865,-3.9737282160185816,-9.86235619085183,0.08947731,-1.013974455,-0.174499065,21.608159999999998,0.44254,9.24756,68.0
1774823249.9694283,1.0251998901367188e-05,2026-03-29T22:27:29.969,2026-03-29T18:27:29.969,-27745.155,-42329.88,-79442.595,-49908.24,-10174.32,-17233.02,6346.62,-57577.86,0.5495787382053801,8.12490678142306,24.054014426195092,45.43243057789417,22.62897569591624,21.767618377434804,-0.25328105104985793,-6.95505698929849,0.08947731,-1.013974455,-0.174499065,21.608159999999998,0.44254,9.24756,68.0
1774823249.9722648,0.002836465835571289,2026-03-29T22:27:29.972,2026-03-29T18:27:29.972,-27759.555,-42364.305,-79488.765,-49919.354999999996,-10183.185,-17237.475,6344.099999999999,-57583.034999999996,7.315517901767174,3.882891060782621,10.696995118889879,52.69311890016684,24.417783761969364,22.43662957000226,4.04157071986083,-0.7025374890537558,0.08947731,-1.013974455,-0.174499065,21.608159999999998,0.44254,9.24756,68.0
1774823249.9722877,2.288818359375e-05,2026-03-29T22:27:29.972,2026-03-29T18:27:29.972,-27758.7,-42371.64,-79498.17,-49912.02,-10181.52,-17235.72,6327.54,-57587.4,10.543189192060199,-2.3783901926707607,-7.743957082146901,36.275670080528734,15.167631622269809,12.79676217558467,7.182953270578064,6.023604377797744,0.08947731,-1.013974455,-0.174499065,21.608159999999998,0.44254,9.24756,68.0
1774823249.9766414,0.004353761672973633,2026-03-29T22:27:29.976,2026-03-29T18:27:29.976,-27748.754999999997,-42354.72,-79475.67,-49921.155,-10182.42,-17232.93,6314.355,-57588.479999999996,8.498243581398327,-8.094960621025665,-23.589182268297456,2.5028489689217217,-1.3922285902676954,-3.1044256858500368,7.647079728811111,10.057743660000723,0.075622365,-0.9912084,-0.163512765,14.481739999999999,-0.9613799999999999,6.07348,68.0
1774823249.9766705,2.9087066650390625e-05,2026-03-29T22:27:29.976,2026-03-29T18:27:29.976,-27732.69,-42343.92,-79470.45,-49959.99,-10182.6,-17226.09,6325.0199999999995,-57573.494999999995,2.088237747458881,-10.716470759120895,-29.9473040394197,-33.896894849261365,-18.010214162234572,-18.168360815077303,4.830323632289149,9.430184869968441,0.075622365,-0.9912084,-0.163512765,14.481739999999999,-0.9613799999999999,6.07348,68.0
1774823249.98281,0.006139516830444336,2026-03-29T22:27:29.982,2026-03-29T18:27:29.982,-27730.89,-42352.83,-79486.965,-49982.04,-10184.67,-17234.325,6346.3949999999995,-57552.39,-5.545119399712556,-8.862861394036154,-23.76650888682773,-56.30918053104696,-27.115155158453536,-25.438519632487676,-0.5008102989792231,4.330599837196212,0.075622365,-0.9912084,-0.163512765,14.481739999999999,-0.9613799999999999,6.07348,68.0
1774823249.9828312,2.1219253540039062e-05,2026-03-29T22:27:29.982,2026-03-29T18:27:29.982,-27742.094999999998,-42370.74,-79506.18,-49972.545,-10195.875,-17253.405,6346.53,-57552.615,-10.575527522146002,-3.046222551750394,-7.320977473872109,-53.94041173495523,-24.289153699440696,-21.327665097970083,-6.309855069016869,-2.9274280063265747,0.075622365,-0.9912084,-0.163512765,14.481739999999999,-0.9613799999999999,6.07348,68.0
1774823249.9828515,2.0265579223632812e-05,2026-03-29T22:27:29.982,2026-03-29T18:27:29.982,-27760.59,-42369.21,-79477.37999999999,-49925.744999999995,-10193.67,-17250.795,6359.13,-57578.579999999994,-10.415065534507594,4.418379277007983,12.60232735671539,-27.080119129845468,-10.406801818508121,-7.375502297736847,-10.01723067828497,-8.952134570535215,0.075622365,-0.9912084,-0.163512765,14.481739999999999,-0.9613799999999999,6.07348,68.0
1774823249.9828584,6.9141387939453125e-06,2026-03-29T22:27:29.982,2026-03-29T18:27:29.982,-27765.945,-42364.305,-79461.135,-49920.075,-10189.35,-17240.399999999998,6362.55,-57584.88,-5.041474225119184,10.336562888774564,27.540203022897305,12.675999262815159,8.593568203384065,10.319555146350147,-9.627058573548483,-10.859710288533583,0.075622365,-0.9912084,-0.163512765,14.481739999999999,-0.9613799999999999,6.07348,68.0
1774823249.9879973,0.005138874053955078,2026-03-29T22:27:29.987,2026-03-29T18:27:29.987,-27776.34,-42374.52,-79475.265,-49934.88,-10195.109999999999,-17245.62,6358.679999999999,-57594.96,2.9502937210879674,12.023585731470233,31.01056565869452,47.5080609750705,24.2719353747057,23.788191942043046,-4.772350945610524,-7.658985254372203,0.075622365,-0.9912084,-0.163512765,14.481739999999999,-0.9613799999999999,6.07348,68.0
1774823249.988026,2.86102294921875e-05,2026-03-29T22:27:29.988,2026-03-29T18:27:29.988,-27761.76,-42389.595,-79548.25499999999,-49940.549999999996,-10214.82,-17270.325,6338.07,-57607.515,9.614701925051397,8.544448433608563,21.379779084976036,61.49652501014985,29.465737984401226,26.802303593881533,2.858281605562154,-0.7676014226626277,0.075622365,-0.9912084,-0.163512765,14.481739999999999,-0.9613799999999999,6.07348,68.0
1774823249.9920835,0.004057645797729492,2026-03-29T22:27:29.992,2026-03-29T18:27:29.992,-27751.815,-42391.305,-79566.84,-49888.845,-10193.265,-17265.87,6312.105,-57612.555,11.616803655249178,1.2222971893483574,2.644783381178912,48.02197826629774,21.579993478613787,17.76377444492717,10.032676539672616,6.610179235341204,0.075622365,-0.9912084,-0.163512765,14.481739999999999,-0.9613799999999999,6.07348,68.0
1774823249.9921117,2.8133392333984375e-05,2026-03-29T22:27:29.992,2026-03-29T18:27:29.992,-27753.93,-42392.52,-79562.79,-49919.085,-10190.744999999999,-17258.85,6301.035,-57618.09,7.907420990971253,-6.858051190369549,-17.251570985667417,12.94365391422576,3.8690142937356304,0.5261571062021525,13.321661209695257,10.974943744088264,0.075622365,-0.9912084,-0.163512765,14.481739999999999,-0.9613799999999999,6.07348,68.0
1774823249.9960744,0.00396275520324707,2026-03-29T22:27:29.996,2026-03-29T18:27:29.996,-27749.114999999998,-42377.22,-79565.84999999999,-50050.215,-10207.529999999999,-17267.355,6314.625,-57621.104999999996,0.2676012705864837,-12.169306439972106,-29.850242427336305,-27.991101565283337,-15.91768192411588,-17.263905381356036,10.732990244182458,10.19860219759271,0.08715798,-1.004941275,-0.15612753000000001,17.38114,2.39582,9.58328,68.0
1774823249.996094,1.9550323486328125e-05,2026-03-29T22:27:29.996,2026-03-29T18:27:29.996,-27765.945,-42357.33,-79509.915,-50040.45,-10182.869999999999,-17245.8,6348.554999999999,-57633.704999999994,-7.558968320866064,-12.310477427892579,-29.840131202105326,-56.341871027015486,-28.9558170236675,-27.583853262596943,2.856443727532932,4.569235902125599,0.08715798,-1.004941275,-0.15612753000000001,17.38114,2.39582,9.58328,68.0
1774823249.999925,0.0038309097290039062,2026-03-29T22:27:29.999,2026-03-29T18:27:29.999,-27789.254999999997,-42381.18,-79503.75,-50028.84,-10210.59,-17260.065,6331.995,-57644.505,-11.718269968898309,-7.114195614829317,-17.336406518913986,-59.42988045435541,-29.309562388777316,-25.672349373443083,-7.117646986177557,-3.302513089687877,0.08715798,-1.004941275,-0.15612753000000001,17.38114,2.39582,9.58328,68.0
1774823249.9999523,2.7418136596679688e-05,2026-03-29T22:27:29.999,2026-03-29T18:27:29.999,-27767.879999999997,-42377.49,-79482.285,-50003.145,-10233.315,-17290.934999999998,6244.38,-57686.67,-10.15924495927323,1.2280494038653331,2.2244985209222476,-36.108097391601085,-16.644936732017026,-12.228839832555122,-14.657632833029274,-9.694959043126847,0.08715798,-1.004941275,-0.15612753000000001,17.38114,2.39582,9.58328,68.0
1774823250.004062,0.004109621047973633,2026-03-29T22:27:30.004,2026-03-29T18:27:30.004,-27723.51,-42326.595,-79413.84,-49911.255,-10182.51,-17244.18,6241.094999999999,-57690.18,-3.6515254561646198,9.103811816719277,20.501217684226987,2.826051452700119,3.5517066365167858,6.841737574908918,-15.951119568435432,-11.543170030981171,0.08715798,-1.004941275,-0.15612753000000001,17.38114,2.39582,9.58328,68.0
1774823250.0040824,2.0503997802734375e-05,2026-03-29T22:27:30.004,2026-03-29T18:27:30.004,-27677.07,-42300.72,-79402.14,-49879.53,-10161.315,-17201.295,6349.23,-57621.78,4.6005941325414375,13.073240818047724,29.877232951674156,39.71689043987616,22.374364584294554,23.045169428495132,-9.83007180756809,-7.919921604934854,0.08715798,-1.004941275,-0.15612753000000001,17.38114,2.39582,9.58328,68.0
1774823250.0079265,0.003844022750854492,2026-03-29T22:27:30.007,2026-03-29T18:27:30.007,-27718.965,-42366.06,-79473.645,-49875.479999999996,-10205.955,-17237.16,6393.735,-57625.244999999995,10.552463431078724,11.401988010022558,26.689849170159704,58.20114919243575,31.45529913506131,29.105480334834866,1.4114147723697412,-0.5086731945611378,0.08715798,-1.004941275,-0.15612753000000001,17.38114,2.39582,9.58328,68.0
1774823250.0079513,2.47955322265625e-05,2026-03-29T22:27:30.007,2026-03-29T18:27:30.007,-27759.87,-42433.875,-79599.19499999999,-49905.72,-10264.41,-17305.965,6331.275,-57669.93,11.321989474968603,4.836334314246023,12.66191978146377,50.59472256902837,26.707262654879276,22.246187274982802,12.822716720439585,7.176794423818956,0.08715798,-1.004941275,-0.15612753000000001,17.38114,2.39582,9.58328,68.0
1774823250.012725,0.004773855209350586,2026-03-29T22:27:30.012,2026-03-29T18:27:30.012,-27763.065,-42431.58,-79625.43,-49934.43,-10265.58,-17332.559999999998,6301.844999999999,-57707.189999999995,6.600888747093442,-3.7340665844632763,-6.024816365553092,21.1210761518562,10.166683163651253,5.4594609313017965,18.977647708492977,11.466386121767773,0.08715798,-1.004941275,-0.15612753000000001,17.38114,2.39582,9.58328,68.0
1774823250.0127509,2.574920654296875e-05,2026-03-29T22:27:30.012,2026-03-29T18:27:30.012,-27774.809999999998,-42422.895,-79615.395,-50049.225,-10289.205,-17325.405,6326.46,-57718.17,-1.2235764397681814,-10.571917402528829,-21.519434045433787,-16.391806916255764,-10.894498658898597,-13.815471173371467,16.571263558306217,10.30084320308202,0.08715798,-1.004941275,-0.15612753000000001,17.38114,2.39582,9.58328,68.0
1774823250.0161273,0.003376483917236328,2026-03-29T22:27:30.016,2026-03-29T18:27:30.016,-27765.899999999998,-42410.835,-79601.805,-50163.795,-10304.955,-17322.57,6333.525,-57690.494999999995,-8.283778015270402,-12.754844079526597,-27.665892926349397,-45.10548073236783,-27.193532076035474,-27.01312368856183,6.182136672242611,4.234542774800642,0.09704565,-1.03710672,-0.148376085,38.4552,7.41636,13.79504,68.0
1774823250.016146,1.8596649169921875e-05,2026-03-29T22:27:30.016,2026-03-29T18:27:30.016,-27748.844999999998,-42380.955,-79553.79,-50160.104999999996,-10301.67,-17318.925,6351.615,-57659.939999999995,-11.162552385085153,-9.45024155263805,-22.467990230539655,-52.8645675269255,-31.55540155995888,-28.268481539026787,-7.735595701164222,-3.8214873956474857,0.09704565,-1.03710672,-0.148376085,38.4552,7.41636,13.79504,68.0
1774823250.0200531,0.003907203674316406,2026-03-29T22:27:30.020,2026-03-29T18:27:30.020,-27745.785,-42352.695,-79502.265,-50101.29,-10282.455,-17305.965,6348.825,-57665.52,-8.568277378701515,-2.2340699485402378,-8.657598546782774,-37.4125825204631,-22.0859646650538,-17.031106839750024,-18.75583922575195,-10.001507419364007,0.09704565,-1.03710672,-0.148376085,38.4552,7.41636,13.79504,68.0
1774823250.0200732,2.002716064453125e-05,2026-03-29T22:27:30.020,2026-03-29T18:27:30.020,-27736.739999999998,-42322.185,-79407.72,-49919.354999999996,-10170.63,-17229.015,6335.55,-57686.31,-1.9243083678570965,5.66950022336977,7.745998365534821,-6.8586309577211555,-2.9905203104871827,1.7015057715910593,-21.4714590198356,-11.355470414659694,0.09704565,-1.03710672,-0.148376085,38.4552,7.41636,13.79504,68.0
1774823250.0242858,0.004212617874145508,2026-03-29T22:27:30.024,2026-03-29T18:27:30.024,-27749.16,-42317.189999999995,-79361.325,-49815.45,-10076.715,-17152.38,6353.235,-57725.145,5.40082315795966,10.857203979742192,20.12533142145024,24.565735069540846,17.313193264117885,19.625928101469366,-14.169859619573018,-7.2763320116402435,0.09704565,-1.03710672,-0.148376085,38.4552,7.41636,13.79504,68.0
1774823250.0243132,2.7418136596679688e-05,2026-03-29T22:27:30.024,2026-03-29T18:27:30.024,-27746.1,-42314.31,-79363.62,-49806.36,-10065.734999999999,-17142.885,6359.94,-57736.755,9.810652077579741,11.24253132408535,23.970710251446853,43.24307303265667,29.931701476982898,28.83536696007298,0.1412765974871195,0.21532961692580194,0.09704565,-1.03710672,-0.148376085,38.4552,7.41636,13.79504,68.0
1774823250.028195,0.003881692886352539,2026-03-29T22:27:30.028,2026-03-29T18:27:30.028,-27709.02,-42310.53,-79391.205,-49839.345,-10111.725,-17183.34,6344.28,-57707.009999999995,9.26671372409481,6.9067547980082455,18.477558184905682,42.163340232626815,29.411981566226554,25.322087800189024,14.953925240742345,7.469897723948733,0.09704565,-1.03710672,-0.148376085,38.4552,7.41636,13.79504,68.0
1774823250.0282483,5.340576171875e-05,2026-03-29T22:27:30.028,2026-03-29T18:27:30.028,-27723.645,-42322.905,-79398.72,-49828.86,-10131.795,-17200.665,6332.535,-57711.104999999996,4.248324356338404,-0.04805358432601228,6.493869569401442,23.493323995080875,16.104230244111903,10.722243185478256,23.243052931216447,10.99891991704668,0.09704565,-1.03710672,-0.148376085,38.4552,7.41636,13.79504,68.0
1774823250.0320945,0.0038461685180664062,2026-03-29T22:27:30.032,2026-03-29T18:27:30.032,-27734.355,-42357.015,-79455.59999999999,-49853.835,-10163.699999999999,-17222.265,6329.025,-57708.314999999995,-2.5732066086135643,-6.529175180157081,-6.969525792068109,-3.1836230333377737,-4.0541785236164305,-8.456064477600803,20.83550527876429,9.17397507609746,0.09704565,-1.03710672,-0.148376085,38.4552,7.41636,13.79504,68.0
1774823250.0321212,2.6702880859375e-05,2026-03-29T22:27:30.032,2026-03-29T18:27:30.032,-27770.67,-42400.26,-79548.61499999999,-49945.905,-10207.935,-17248.14,6340.23,-57745.665,-7.746812374788026,-9.857221705151648,-16.882718714261173,-25.79068277672964,-22.206339881799206,-23.752689613764762,8.531755193022928,2.997248097152083,0.09704565,-1.03710672,-0.148376085,38.4552,7.41636,13.79504,68.0
1774823250.036416,0.004294872283935547,2026-03-29T22:27:30.036,2026-03-29T18:27:30.036,-27789.48,-42428.744999999995,-79624.44,-50042.7,-10229.175,-17267.805,6340.23,-57776.67,-8.797713448977134,-8.893754199449837,-20.053577084608857,-35.311517001313675,-30.488199722996374,-28.50487530812095,-8.107909525356549,-4.430508000480733,0.089416275,-1.03283427,-0.142150515,49.93072,9.6901,16.12982,68.0
1774823250.0364497,3.361701965332031e-05,2026-03-29T22:27:30.036,2026-03-29T18:27:30.036,-27794.655,-42448.5,-79675.33499999999,-50046.03,-10229.13,-17278.649999999998,6313.41,-57778.829999999994,-5.430045373454781,-4.408267158897977,-16.023366660155677,-29.382095900186524,-25.44890536109915,-20.757238247360124,-21.294092817817504,-9.469732557182706,0.089416275,-1.03283427,-0.142150515,49.93072,9.6901,16.12982,68.0
1774823250.040532,0.004082441329956055,2026-03-29T22:27:30.040,2026-03-29T18:27:30.040,-27800.19,-42433.965,-79607.43,-49975.83,-10199.97,-17260.875,6263.639999999999,-57805.695,0.4159545015219123,1.4211703156201523,-6.8326807389091195,-12.494288173299559,-9.486877931142386,-4.058745750685168,-24.69672456258365,-9.744176464716881,0.089416275,-1.03283427,-0.142150515,49.93072,9.6901,16.12982,68.0
1774823250.0405607,2.86102294921875e-05,2026-03-29T22:27:30.040,2026-03-29T18:27:30.040,-27752.489999999998,-42363.045,-79482.555,-49932.36,-10160.82,-17218.665,6179.264999999999,-57825.134999999995,5.644524665248943,6.077779127334692,4.032712761442831,6.885620947653337,10.293731440200968,14.173369317328183,-16.525420439559515,-5.285089907303862,0.089416275,-1.03283427,-0.142150515,49.93072,9.6901,16.12982,68.0
1774823250.0463173,0.0057566165924072266,2026-03-29T22:27:30.046,2026-03-29T18:27:30.046,-27677.745,-42288.165,-79412.84999999999,-49956.255,-10143.449999999999,-17177.985,6249.96,-57754.845,7.633871154857035,7.815815065134429,12.964208997799238,20.57310597813966,25.259704453013743,25.963715498258363,-0.4834953287151148,1.544554725366895,0.089416275,-1.03283427,-0.142150515,49.93072,9.6901,16.12982,68.0
1774823250.04633,1.2636184692382812e-05,2026-03-29T22:27:30.046,2026-03-29T18:27:30.046,-27674.954999999998,-42278.49,-79371.27,-49912.92,-10125.494999999999,-17172.225,6423.03,-57684.104999999996,5.560803369412285,6.31008710353775,17.318043994106358,24.150955481576922,29.03216027418613,26.27913488389673,15.917848402230847,7.288372705735657,0.089416275,-1.03283427,-0.142150515,49.93072,9.6901,16.12982,68.0
1774823250.04636,3.0040740966796875e-05,2026-03-29T22:27:30.046,2026-03-29T18:27:30.046,-27744.3,-42365.924999999996,-79453.17,-49957.92,-10185.48,-17232.66,6483.285,-57685.59,0.7476372215184078,2.6059786979030988,16.006917046060185,18.1880508127308,20.21323373854502,15.178788239641484,24.91530178455559,9.154327907087664,0.089416275,-1.03283427,-0.142150515,49.93072,9.6901,16.12982,68.0
1774823250.0463707,1.0728836059570312e-05,2026-03-29T22:27:30.046,2026-03-29T18:27:30.046,-27747.18,-42371.235,-79460.45999999999,-49953.869999999995,-10194.39,-17242.11,6411.735,-57717.99,-4.117477433529571,-1.5214420252805174,9.594551436468041,6.991093862402127,2.888525169228492,-2.3040110915454335,22.21820609893688,6.39470696478966,0.089416275,-1.03283427,-0.142150515,49.93072,9.6901,16.12982,68.0
1774823250.055076,0.00870513916015625,2026-03-29T22:27:30.055,2026-03-29T18:27:30.055,-27739.079999999998,-42347.34,-79432.73999999999,-49885.2,-10175.67,-17248.905,6378.344999999999,-57734.82,-6.446655667116252,-4.43020101036079,0.03302109334786135,-4.086897753634803,-15.266282785180422,-18.452484710267207,9.09194009606598,0.6162566340846456,0.089416275,-1.03283427,-0.142150515,49.93072,9.6901,16.12982,68.0
1774823250.0551016,2.574920654296875e-05,2026-03-29T22:27:30.055,2026-03-29T18:27:30.055,-27743.129999999997,-42364.08,-79484.94,-49909.005,-10202.535,-17271.315,6361.605,-57743.505,-5.1176791271070785,-5.271526214032015,-9.825353823137752,-11.214067178480724,-26.397152517695883,-26.28348298671731,-8.229105582498326,-5.114936082976463,0.089416275,-1.03283427,-0.142150515,49.93072,9.6901,16.12982,68.0
1774823250.055127,2.5272369384765625e-05,2026-03-29T22:27:30.055,2026-03-29T18:27:30.055,-27754.829999999998,-42379.515,-79504.515,-49904.729999999996,-10213.74,-17272.755,6337.035,-57757.095,-1.02273088538433,-4.17833870625576,-16.887694691020766,-13.288831068761603,-25.88175578177638,-22.57380217876915,-21.530367055348016,-7.8894748843972184,0.08105448,-0.98986563,-0.13171353,32.44276,11.292399999999999,16.99964,68.0
1774823250.0551374,1.049041748046875e-05,2026-03-29T22:27:30.055,2026-03-29T18:27:30.055,-27747.135,-42386.31,-79528.23,-49933.395,-10214.414999999999,-17254.89,6338.429999999999,-57751.604999999996,3.4706434090085865,-1.9802138803668752,-18.628515188461325,-11.483469714491626,-14.253410076257467,-9.182499045310811,-24.562280710021938,-6.444238377518174,0.08105448,-0.98986563,-0.13171353,32.44276,11.292399999999999,16.99964,68.0
1774823250.0602393,0.005101919174194336,2026-03-29T22:27:30.060,2026-03-29T18:27:30.060,-27751.995,-42401.295,-79553.745,-49997.835,-10207.305,-17240.265,6344.099999999999,-57743.865,5.837724367810344,0.32548979445015214,-13.941248001891582,-7.768132841468835,3.1629646264351163,7.870091341548747,-16.0242558547417,-1.75772806248961,0.08105448,-0.98986563,-0.13171353,32.44276,11.292399999999999,16.99964,68.0
1774823250.0602703,3.0994415283203125e-05,2026-03-29T22:27:30.060,2026-03-29T18:27:30.060,-27785.204999999998,-42427.935,-79580.87999999999,-50073.39,-10205.775,-17234.145,6350.219999999999,-57763.71,4.776961496940321,2.035116166226041,-3.777192401111364,-3.5150602155387634,18.68797113643139,21.114172492106217,-0.14040350780031277,3.539150484607081,0.08105448,-0.98986563,-0.13171353,32.44276,11.292399999999999,16.99964,68.0
1774823250.0730107,0.012740373611450195,2026-03-29T22:27:30.073,2026-03-29T18:27:30.073,-27793.26,-42430.455,-79574.985,-50076.314999999995,-10215.404999999999,-17259.93,6345.719999999999,-57773.204999999994,0.9112787037653991,2.9152795614894944,8.778311518409978,0.9621249731186684,25.68398828898368,24.909870057857212,15.43743738845375,6.60366639656901,0.08105448,-0.98986563,-0.13171353,32.44276,11.292399999999999,16.99964,68.0
1774823250.0730343,2.3603439331054688e-05,2026-03-29T22:27:30.073,2026-03-29T18:27:30.073,-27769.545,-42388.695,-79495.69499999999,-49972.77,-10191.06,-17276.715,6322.005,-57774.645,-3.561893193732724,3.074962166808605,19.25070243254311,5.810871721891585,21.40551979857428,17.852389070103516,23.35483171259927,5.8976902743020085,0.08105448,-0.98986563,-0.13171353,32.44276,11.292399999999999,16.99964,68.0
1774823250.073058,2.3603439331054688e-05,2026-03-29T22:27:30.073,2026-03-29T18:27:30.073,-27742.59,-42353.415,-79447.72499999999,-49940.28,-10191.285,-17267.579999999998,6306.255,-57784.365,-6.0798143632957355,2.694180765653556,23.290535014715715,10.60173569225966,8.074982367160448,3.2768344347640026,20.076586359628152,1.9746931617618322,0.08105448,-0.98986563,-0.13171353,32.44276,11.292399999999999,16.99964,68.0
1774823250.0730684,1.049041748046875e-05,2026-03-29T22:27:30.073,2026-03-29T18:27:30.073,-27731.25,-42344.369999999995,-79428.59999999999,-49917.06,-10201.949999999999,-17272.62,6296.4,-57801.555,-5.130632940986419,1.8313459914866215,18.491707959430578,13.762228912358326,-8.237171151471944,-12.310385986369676,7.495672312517629,-2.871480443472745,0.08105448,-0.98986563,-0.13171353,32.44276,11.292399999999999,16.99964,68.0
1774823250.0730813,1.2874603271484375e-05,2026-03-29T22:27:30.073,2026-03-29T18:27:30.073,-27731.07,-42358.77,-79462.845,-49942.08,-10219.77,-17285.715,6283.8,-57811.365,-1.1115707403005572,0.4465512855509402,5.748242776760733,13.070755517281592,-20.37668219184702,-22.139019831549863,-8.117952844819476,-5.893559904638067,0.08105448,-0.98986563,-0.13171353,32.44276,11.292399999999999,16.99964,68.0
1774823250.0730903,9.059906005859375e-06,2026-03-29T22:27:30.073,2026-03-29T18:27:30.073,-27725.985,-42362.145,-79484.625,-49974.659999999996,-10230.84,-17292.915,6292.53,-57803.579999999994,3.8415594521238123,-1.3919695680809232,-10.590869810535558,7.061905092929313,-23.2564893348557,-22.121630132216414,-19.25914401867409,-5.410187465163891,0.08105448,-0.98986563,-0.13171353,32.44276,11.292399999999999,16.99964,68.0
1774823250.0761724,0.0030820369720458984,2026-03-29T22:27:30.076,2026-03-29T18:27:30.076,-27716.715,-42363.09,-79504.33499999999,-49991.58,-10231.92,-17289.045,6287.49,-57808.575,6.977483192692707,-3.295939183142384,-24.088478034341275,-3.4977589892812198,-16.001626742440262,-12.555330981629703,-20.83738569259141,-1.7311730988974088,0.08508279,-0.98132073,-0.1257321,27.513779999999997,13.87134,22.72214,68.0
1774823250.0761917,1.9311904907226562e-05,2026-03-29T22:27:30.076,2026-03-29T18:27:30.076,-27708.12,-42375.015,-79534.89,-50005.08,-10262.295,-17330.715,6264.0,-57806.595,6.418184718004156,-4.543355702107998,-28.748367370429662,-15.109557784003764,-2.177325299512128,2.130222615505394,-12.540154338691282,3.0164411923949284,0.08508279,-0.98132073,-0.1257321,27.513779999999997,13.87134,22.72214,68.0
1774823250.080712,0.004520416259765625,2026-03-29T22:27:30.080,2026-03-29T18:27:30.080,-27695.34,-42377.67,-79546.635,-50023.439999999995,-10286.279999999999,-17341.829999999998,6284.34,-57781.89,2.221053849398296,-4.3515946627075905,-21.71713352339232,-22.61690919481232,11.938450153031534,15.416976389072458,1.2052074235305217,6.071101085918103,0.08508279,-0.98132073,-0.1257321,27.513779999999997,13.87134,22.72214,68.0
1774823250.0807328,2.0742416381835938e-05,2026-03-29T22:27:30.080,2026-03-29T18:27:30.080,-27736.289999999997,-42387.119999999995,-79528.23,-49984.29,-10225.35,-17266.095,6349.094999999999,-57800.43,-3.56587660272857,-2.3341464121478532,-4.9240183843064305,-21.568403590826353,20.211166239471133,21.594899631433886,13.57223294038277,5.586723927650747,0.08508279,-0.98132073,-0.1257321,27.513779999999997,13.87134,22.72214,68.0
1774823250.0875573,0.006824493408203125,2026-03-29T22:27:30.087,2026-03-29T18:27:30.087,-27759.105,-42384.42,-79498.98,-49942.575,-10157.85,-17206.29,6362.054999999999,-57815.909999999996,-7.914052869536571,1.114838554755533,15.249095109781406,-10.751621575200916,19.333382073889563,18.22291025616149,18.748397938216733,1.699535204713026,0.08508279,-0.98132073,-0.1257321,27.513779999999997,13.87134,22.72214,68.0
1774823250.0875833,2.5987625122070312e-05,2026-03-29T22:27:30.087,2026-03-29T18:27:30.087,-27742.14,-42355.619999999995,-79452.94499999999,-49881.015,-10132.74,-17210.43,6360.48,-57823.65,-8.386421830582274,4.776953066280589,30.357510330208317,6.507487986980909,10.153612510404855,7.090997263123846,14.703155320004491,-3.487966597522947,0.08508279,-0.98132073,-0.1257321,27.513779999999997,13.87134,22.72214,68.0
1774823250.0876083,2.5033950805664062e-05,2026-03-29T22:27:30.087,2026-03-29T18:27:30.087,-27726.75,-42366.104999999996,-79488.675,-49882.049999999996,-10179.18,-17256.015,6315.21,-57815.505,-4.45946220735145,7.0232511625263765,33.46750124838557,23.20608357081792,-2.8882202512630233,-6.694881537770581,3.9758883506357834,-7.023828838611371,0.08508279,-0.98132073,-0.1257321,27.513779999999997,13.87134,22.72214,68.0
1774823250.0876188,1.049041748046875e-05,2026-03-29T22:27:30.087,2026-03-29T18:27:30.087,-27702.225,-42366.06,-79507.98,-49828.545,-10209.69,-17283.329999999998,6283.53,-57799.079999999994,2.1069619703874842,6.553746946892955,22.38306339790549,31.56076362012933,-13.892179834119265,-17.049935510279518,-7.817212492169768,-6.738300363389284,0.08508279,-0.98132073,-0.1257321,27.513779999999997,13.87134,22.72214,68.0
1774823250.0922408,0.004621982574462891,2026-03-29T22:27:30.092,2026-03-29T18:27:30.092,-27713.34,-42394.77,-79581.015,-49884.795,-10269.494999999999,-17294.085,6319.485,-57800.52,8.076705770787832,3.12014031298414,1.0043718204873695,26.709726301781895,-18.17972672455979,-19.602437400583852,-14.91197409967764,-2.5052676308816557,0.08508279,-0.98132073,-0.1257321,27.513779999999997,13.87134,22.72214,68.0
1774823250.0922668,2.5987625122070312e-05,2026-03-29T22:27:30.092,2026-03-29T18:27:30.092,-27746.55,-42439.409999999996,-79650.58499999999,-50002.29,-10281.285,-17277.39,6327.54,-57832.65,10.342183697857518,-2.1599914771442523,-21.96770003536956,9.427410474123086,-14.300483673534337,-13.547040783754442,-14.236543456085991,3.576653512798746,0.08508279,-0.98132073,-0.1257321,27.513779999999997,13.87134,22.72214,68.0
1774823250.0962672,0.004000425338745117,2026-03-29T22:27:30.096,2026-03-29T18:27:30.096,-27748.305,-42423.345,-79619.22,-50045.13,-10219.904999999999,-17233.245,6320.835,-57825.045,7.526299507297909,-7.129627251695655,-36.59435606279242,-13.623311340087005,-4.494112683034468,-1.8700658569624673,-6.752780439868335,8.226929249511503,0.088195575,-0.983945235,-0.125915205,34.075579999999995,15.4889,21.50134,68.0
1774823250.096296,2.8848648071289062e-05,2026-03-29T22:27:30.096,2026-03-29T18:27:30.096,-27745.605,-42374.205,-79552.08,-50125.634999999995,-10172.385,-17197.155,6368.175,-57810.825,0.7611453697568326,-9.486000148671986,-36.059172898428926,-32.47168358602905,6.525996610320948,10.100616706984457,3.2923410548287344,8.7306425313338,0.088195575,-0.983945235,-0.125915205,34.075579999999995,15.4889,21.50134,68.0
1774823250.100351,0.004055023193359375,2026-03-29T22:27:30.100,2026-03-29T18:27:30.100,-27764.055,-42376.545,-79533.54,-50157.09,-10182.779999999999,-17230.23,6388.65,-57811.68,-6.778313829133462,-7.864825572077873,-19.884964597072777,-38.24163184251066,13.831729299159498,17.125835143986848,10.71415039691437,4.467707119710327,0.088195575,-0.983945235,-0.125915205,34.075579999999995,15.4889,21.50134,68.0
1774823250.1003716,2.0503997802734375e-05,2026-03-29T22:27:30.100,2026-03-29T18:27:30.100,-27771.3,-42375.825,-79470.045,-50015.88,-10176.84,-17243.19,6364.844999999999,-57840.525,-11.386746856054256,-2.597083148682378,5.52789048909334,-27.389096251251345,14.500848733232658,16.357282185757796,12.060790588365954,-2.618447495557905,0.088195575,-0.983945235,-0.125915205,34.075579999999995,15.4889,21.50134,68.0
1774823250.1044822,0.004110574722290039,2026-03-29T22:27:30.104,2026-03-29T18:27:30.104,-27762.254999999997,-42356.97,-79395.25499999999,-49920.93,-10195.38,-17260.065,6331.995,-57850.829999999994,-10.656378276189058,4.270143679514368,29.431163920606895,-3.727993848544913,8.78971508430104,8.495616544894586,7.232249086353994,-8.917049244792874,0.088195575,-0.983945235,-0.125915205,34.075579999999995,15.4889,21.50134,68.0
1774823250.1045125,3.0279159545898438e-05,2026-03-29T22:27:30.104,2026-03-29T18:27:30.104,-27727.605,-42325.02,-79373.87999999999,-49897.034999999996,-10183.994999999999,-17239.005,6320.07,-57838.229999999996,-4.715340277066454,9.77126654235056,41.32748421219031,22.86285891730654,-0.21615935160361585,-2.668755475027596,-0.7177583833184996,-10.993635905063794,0.088195575,-0.983945235,-0.125915205,34.075579999999995,15.4889,21.50134,68.0
1774823250.1083405,0.0038280487060546875,2026-03-29T22:27:30.108,2026-03-29T18:27:30.108,-27707.579999999998,-42309.45,-79381.75499999999,-49916.43,-10178.775,-17222.94,6341.67,-57826.845,3.7531685370349486,11.32574763556573,35.64501869697042,40.633769263103275,-8.218163612298326,-12.06775274290155,-7.388823304598613,-7.438097534538443,0.088195575,-0.983945235,-0.125915205,34.075579999999995,15.4889,21.50134,68.0
1774823250.1083696,2.9087066650390625e-05,2026-03-29T22:27:30.108,2026-03-29T18:27:30.108,-27708.254999999997,-42314.58,-79398.45,-49933.665,-10183.68,-17256.645,6346.98,-57820.32,10.747828427648336,7.963799713330685,14.377129135969188,41.24238136143623,-11.758032779415466,-15.660222102224605,-9.420759849484863,0.26850332685655637,0.088195575,-0.983945235,-0.125915205,34.075579999999995,15.4889,21.50134,68.0
