unix_time_s,dt_s,UTC,LOCAL,EMG1_Raw,EMG2_Raw,EMG3_Raw,EMG4_Raw,EMG5_Raw,EMG6_Raw,EMG7_Raw,EMG8_Raw,EMG1_Filtered,EMG2_Filtered,EMG3_Filtered,EMG4_Filtered,EMG5_Filtered,EMG6_Filtered,EMG7_Filtered,EMG8_Filtered,Accel1_Raw,Accel2_Raw,Accel3_Raw,Gyro1_Raw,Gyro2_Raw,Gyro3_Raw,Battery
1774822420.7099345,,2026-03-29T22:13:40.709,2026-03-29T18:13:40.709,-33817.5,-47267.189999999995,-85228.965,-50071.814999999995,-13608.18,-18560.969999999998,6258.554999999999,-62856.045,0.019756903235303623,-0.27194052084234394,-0.1343277141525001,0.3148838877455048,0.007747084104239407,-0.03803533070872933,0.121876473026412,0.30145760098588004,-0.11737030500000001,-1.016537925,-0.013366665,7.828379999999999,-1.69386,-9.36964,71.0
1774822420.7099576,2.3126602172851562e-05,2026-03-29T22:13:40.709,2026-03-29T18:13:40.709,-33802.965,-47252.61,-85218.93,-50069.655,-13606.019999999999,-18556.875,6243.48,-62846.189999999995,2.704796751723604,2.2709797215563023,0.7734976200995752,3.601675095571233,2.394554163550326,0.4811486909620323,-9.733459870696755,1.2088496134447666,-0.11737030500000001,-1.016537925,-0.013366665,7.828379999999999,-1.69386,-9.36964,71.0
1774822420.7099788,2.1219253540039062e-05,2026-03-29T22:13:40.709,2026-03-29T18:13:40.709,-33802.47,-47259.0,-85252.86,-50087.07,-13617.135,-18568.215,6214.23,-62851.77,4.305691810504168,4.003508239944395,1.5392857063570422,5.33320308864285,3.7378770104874635,0.7930560756934302,-15.320286072366578,1.6413242097219238,-0.116149605,-1.004941275,-0.014343225,-3.2809,-5.85984,-5.7225,71.0
1774822420.7099893,1.049041748046875e-05,2026-03-29T22:13:40.709,2026-03-29T18:13:40.709,-33804.18,-47260.35,-85262.715,-50094.314999999995,-13621.725,-18575.684999999998,6189.3,-62857.305,4.041696207154967,4.185174531136273,1.957985516669739,4.841766312313912,3.490909821425056,0.8065733488676182,-13.977622111360242,1.345360773610971,-0.116149605,-1.004941275,-0.014343225,-3.2809,-5.85984,-5.7225,71.0
1774822420.71,1.0728836059570312e-05,2026-03-29T22:13:40.710,2026-03-29T18:13:40.710,-33805.215,-47256.615,-85245.20999999999,-50093.64,-13621.005,-18576.405,6199.425,-62856.854999999996,1.9392603087416627,2.6597620044439054,1.820726690372809,2.3907088552918365,1.786659953732119,0.5391109289263167,-6.201476253700299,0.38954060867444507,-0.116149605,-1.004941275,-0.014343225,-3.2809,-5.85984,-5.7225,71.0
1774822420.710009,9.059906005859375e-06,2026-03-29T22:13:40.710,2026-03-29T18:13:40.710,-33809.76,-47264.67,-85241.97,-50097.24,-13622.76,-18578.25,6215.8949999999995,-62856.899999999994,-1.1393132246042614,-0.04369649107151535,1.0115156445080262,-0.9667226026075219,-0.6344600023516087,0.09530721833460065,4.533876990679598,-0.8362838287438351,-0.116149605,-1.004941275,-0.014343225,-3.2809,-5.85984,-5.7225,71.0
1774822420.714182,0.004172801971435547,2026-03-29T22:13:40.714,2026-03-29T18:13:40.714,-33814.305,-47270.205,-85236.03,-50096.7,-13626.18,-18578.745,6235.469999999999,-62856.72,-3.847047426797929,-2.878439833497738,-0.3607382926596597,-3.8449434327296257,-2.7493979936716237,-0.3744811477611255,13.3412247220218,-1.7775026844150157,-0.116149605,-1.004941275,-0.014343225,-3.2809,-5.85984,-5.7225,71.0
1774822420.714208,2.5987625122070312e-05,2026-03-29T22:13:40.714,2026-03-29T18:13:40.714,-33809.76,-47274.795,-85245.12,-50094.09,-13628.07,-18575.28,6241.094999999999,-62851.14,-4.941682454259889,-4.6727399232602655,-1.8906718402684577,-5.09905709743832,-3.685640688180674,-0.7189082439107675,16.160720221125885,-1.9655986035782915,-0.116149605,-1.004941275,-0.014343225,-3.2809,-5.85984,-5.7225,71.0
1774822420.716792,0.002584218978881836,2026-03-29T22:13:40.716,2026-03-29T18:13:40.716,-33812.19,-47268.45,-85240.75499999999,-50078.835,-13614.975,-18566.415,6251.985,-62857.755,-3.8554979664257023,-4.607951436399602,-2.9554087446280533,-4.275991514907219,-3.0790994159395875,-0.8242052606827334,11.640966269159364,-1.2499147043031016,-0.116149605,-1.004941275,-0.014343225,-3.2809,-5.85984,-5.7225,71.0
1774822420.7168148,2.2649765014648438e-05,2026-03-29T22:13:40.716,2026-03-29T18:13:40.716,-33809.13,-47263.095,-85230.315,-50078.115,-13611.869999999999,-18567.945,6232.005,-62852.085,-0.984242124782035,-2.5905875686959003,-2.9595848134048834,-1.7683819709776643,-1.211226319444587,-0.6439685602409759,1.784955443180064,0.1039027856829032,-0.116149605,-1.004941275,-0.014343225,-3.2809,-5.85984,-5.7225,71.0
1774822420.723831,0.007016181945800781,2026-03-29T22:13:40.723,2026-03-29T18:13:40.723,-33803.865,-47266.02,-85238.28,-50090.759999999995,-13619.385,-18576.989999999998,6206.625,-62844.93,2.4498972351997508,0.6498951893928565,-1.655068800961452,1.3753500820168116,1.12355758608957,-0.21805680040449238,-8.946938806448,1.5076410716916315,-0.116149605,-1.004941275,-0.014343225,-3.2809,-5.85984,-5.7225,71.0
1774822420.723858,2.7179718017578125e-05,2026-03-29T22:13:40.723,2026-03-29T18:13:40.723,-33819.119999999995,-47272.86,-85232.205,-50073.93,-13609.26,-18568.17,6214.5,-62867.564999999995,4.917985076549883,3.807282945993968,0.6319267769177535,3.8919001997199922,2.95671466265409,0.3260826736800604,-15.670438186122249,2.306363914993678,-0.116149605,-1.004941275,-0.014343225,-3.2809,-5.85984,-5.7225,71.0
1774822420.7238808,2.2649765014648438e-05,2026-03-29T22:13:40.723,2026-03-29T18:13:40.723,-33826.005,-47267.505,-85212.94499999999,-50044.5,-13593.644999999999,-18556.02,6226.38,-62879.939999999995,5.266196942829313,5.516454027187751,3.023519328685086,4.808447434757539,3.5457761305987203,0.7992676782252987,-15.313165086098142,2.085070808447626,-0.116882025,-1.008725445,-0.01672359,-5.2646999999999995,-6.83648,-3.3266799999999996,71.0
1774822420.7238872,6.4373016357421875e-06,2026-03-29T22:13:40.723,2026-03-29T18:13:40.723,-33815.97,-47260.619999999995,-85215.015,-50048.595,-13603.725,-18565.469999999998,6221.88,-62863.155,3.255349702794712,4.9427702330389,4.41236771028777,3.8116283660344785,2.6715529211513434,1.0076130146592714,-8.02349146376778,0.8820138071598846,-0.116882025,-1.008725445,-0.01672359,-5.2646999999999995,-6.83648,-3.3266799999999996,71.0
1774822420.7297735,0.0058863162994384766,2026-03-29T22:13:40.729,2026-03-29T18:13:40.729,-33808.725,-47245.005,-85209.39,-50053.32,-13605.57,-18566.01,6219.945,-62859.284999999996,-0.2942938298782202,2.1893032247424578,3.9740117311550716,1.3440289185463508,0.7155251565720492,0.8294942487618815,2.8955022856667534,-0.8003025710035767,-0.116882025,-1.008725445,-0.01672359,-5.2646999999999995,-6.83648,-3.3266799999999996,71.0
1774822420.7297945,2.09808349609375e-05,2026-03-29T22:13:40.729,2026-03-29T18:13:40.729,-33809.94,-47251.935,-85227.84,-50076.27,-13614.93,-18571.005,6220.08,-62864.325,-3.8351177740997273,-1.6767428698610598,1.632396960045843,-1.5950389432985073,-1.507306264688868,0.2835212801757559,12.49485061698371,-2.204734472117569,-0.116882025,-1.008725445,-0.01672359,-5.2646999999999995,-6.83648,-3.3266799999999996,71.0
1774822420.7326512,0.002856731414794922,2026-03-29T22:13:40.732,2026-03-29T18:13:40.732,-33809.805,-47262.33,-85243.95,-50097.915,-13623.345,-18574.515,6221.655,-62862.84,-5.76821821247108,-5.025070933759349,-1.7763241551286075,-3.8536048066151825,-3.086496593402447,-0.4492835952007133,16.436209881992994,-2.6626304566367867,-0.116882025,-1.008725445,-0.01672359,-5.2646999999999995,-6.83648,-3.3266799999999996,71.0
1774822420.732686,3.4809112548828125e-05,2026-03-29T22:13:40.732,2026-03-29T18:13:40.732,-33810.795,-47266.38,-85240.935,-50094.72,-13623.885,-18575.325,6220.349999999999,-62858.88,-5.167711540884353,-6.3476042237691574,-4.777769042407451,-4.572929996661122,-3.3858442979556105,-1.0743496947746813,12.961043368241913,-1.9139053818189602,-0.116882025,-1.008725445,-0.01672359,-5.2646999999999995,-6.83648,-3.3266799999999996,71.0
1774822420.7365835,0.003897428512573242,2026-03-29T22:13:40.736,2026-03-29T18:13:40.736,-33809.715,-47265.479999999996,-85240.89,-50086.215,-13615.47,-18569.52,6218.46,-62857.89,-2.2241798735581884,-4.941564550279569,-5.896663896358403,-3.505631303860225,-2.2965307339413146,-1.2981216640080335,3.675121011404173,-0.24992147083680305,-0.116882025,-1.008725445,-0.01672359,-5.2646999999999995,-6.83648,-3.3266799999999996,71.0
1774822420.7365956,1.2159347534179688e-05,2026-03-29T22:13:40.736,2026-03-29T18:13:40.736,-33808.229999999996,-47263.005,-85241.295,-50090.58,-13617.404999999999,-18571.14,6212.745,-62858.61,1.8052811324741398,-1.279235701006795,-4.382459869523063,-1.0928009028216605,-0.2749350727361092,-0.9662055873624337,-7.201008169937391,1.59782094240064,-0.116882025,-1.008725445,-0.01672359,-5.2646999999999995,-6.83648,-3.3266799999999996,71.0
1774822420.7422702,0.005674600601196289,2026-03-29T22:13:40.742,2026-03-29T18:13:40.742,-33802.695,-47251.034999999996,-85223.34,-50077.395,-13609.664999999999,-18568.62,6201.045,-62857.665,5.13438505185006,3.128836075495297,-0.6658966111686637,1.7190240720051093,1.8469027269259453,-0.16011572227011225,-14.7619293172559,2.782006965827592,-0.116882025,-1.008725445,-0.01672359,-5.2646999999999995,-6.83648,-3.3266799999999996,71.0
1774822420.742293,2.2649765014648438e-05,2026-03-29T22:13:40.742,2026-03-29T18:13:40.742,-33797.34,-47245.86,-85217.58,-50072.445,-13608.135,-18569.114999999998,6205.86,-62852.22,6.242749892094736,6.352074852102476,3.716805748526161,3.8446490724257587,3.200357172733044,0.804747361652388,-15.639778827006253,2.7318581825211776,-0.116882025,-1.008725445,-0.01672359,-5.2646999999999995,-6.83648,-3.3266799999999996,71.0
1774822420.7470884,0.004795551300048828,2026-03-29T22:13:40.747,2026-03-29T18:13:40.747,-33799.59,-47255.04,-85230.22499999999,-50084.415,-13617.314999999999,-18574.02,6222.6449999999995,-62847.314999999995,4.5735218797940576,6.889508393493235,6.75445833691121,4.470992174667691,3.2326333983347446,1.4968146740141999,-9.508036099072147,1.4300363273101395,-0.116027535,-1.015195155,-0.016906695,1.17502,-7.3248,-1.9380199999999999,71.0
1774822420.747105,1.6450881958007812e-05,2026-03-29T22:13:40.747,2026-03-29T18:13:40.747,-33806.61,-47258.189999999995,-85231.17,-50077.935,-13610.34,-18569.835,6235.335,-62847.765,0.8118984819709781,4.375165674255749,6.890050944439019,3.3607400916807806,1.9314971566895662,1.5613936658570755,0.8058603361190646,-0.5612204882684398,-0.116027535,-1.015195155,-0.016906695,1.17502,-7.3248,-1.9380199999999999,71.0
1774822420.7471297,2.47955322265625e-05,2026-03-29T22:13:40.747,2026-03-29T18:13:40.747,-33814.665,-47255.4,-85230.675,-50076.18,-13608.404999999999,-18566.73,6232.86,-62860.454999999994,-3.3944749898043174,-0.19521768348302793,3.816467887482831,0.9396489537672696,-0.1682761566152207,0.9028873726286125,10.632062560840435,-2.345241917028867,-0.116027535,-1.015195155,-0.016906695,1.17502,-7.3248,-1.9380199999999999,71.0
1774822420.7471364,6.67572021484375e-06,2026-03-29T22:13:40.747,2026-03-29T18:13:40.747,-33816.645,-47267.865,-85243.05,-50095.395,-13623.57,-18575.37,6223.635,-62864.64,-6.160281360839636,-4.849534715751793,-1.2671054120790393,-1.862983683466455,-2.200881221908153,-0.23749878147285258,15.58194222687388,-3.0994948005141874,-0.116027535,-1.015195155,-0.016906695,1.17502,-7.3248,-1.9380199999999999,71.0
1774822420.7527807,0.005644321441650391,2026-03-29T22:13:40.752,2026-03-29T18:13:40.752,-33815.79,-47269.755,-85238.055,-50090.354999999996,-13623.345,-18574.965,6224.355,-62863.604999999996,-6.212440321168535,-7.492943833256286,-6.110988967978136,-3.9627957054768705,-3.3228206816854935,-1.3616271322306768,13.514055928345902,-2.459200097347757,-0.116027535,-1.015195155,-0.016906695,1.17502,-7.3248,-1.9380199999999999,71.0
1774822420.7528038,2.3126602172851562e-05,2026-03-29T22:13:40.752,2026-03-29T18:13:40.752,-33810.479999999996,-47262.015,-85234.00499999999,-50083.56,-13617.539999999999,-18574.2,6227.37,-62857.799999999996,-3.479807684580271,-6.859341741925842,-8.416854866620648,-4.5316027138368815,-3.061582815886206,-1.9309845552424048,5.459597164397869,-0.694972411036613,-0.116027535,-1.015195155,-0.016906695,1.17502,-7.3248,-1.9380199999999999,71.0
1774822420.7592757,0.006471872329711914,2026-03-29T22:13:40.759,2026-03-29T18:13:40.759,-33810.255,-47260.665,-85236.93,-50085.134999999995,-13619.925,-18576.63,6223.41,-62857.935,0.8522822772375687,-3.1245701168288194,-6.936729448339639,-3.3201300612924207,-1.516489182904938,-1.6265177948168463,-4.891460892937516,1.40274771861613,-0.116027535,-1.015195155,-0.016906695,1.17502,-7.3248,-1.9380199999999999,71.0
1774822420.7593167,4.100799560546875e-05,2026-03-29T22:13:40.759,2026-03-29T18:13:40.759,-33798.69,-47253.015,-85234.185,-50080.32,-13615.83,-18573.524999999998,6204.825,-62852.895,4.858124517981353,2.1186940474628986,-2.139868854891365,-0.7688424141457413,0.6744481752376117,-0.5256238572438081,-12.887335818231454,2.882664625485914,-0.116027535,-1.015195155,-0.016906695,1.17502,-7.3248,-1.9380199999999999,71.0
1774822420.7593548,3.814697265625e-05,2026-03-29T22:13:40.759,2026-03-29T18:13:40.759,-33793.02,-47251.71,-85236.48,-50084.595,-13619.43,-18578.88,6186.465,-62847.585,6.733014622678715,6.540173876019258,3.905607451494501,2.1428916110112914,2.593522373761337,0.9010230230927789,-15.011252638916902,3.069780759356469,-0.116027535,-1.015195155,-0.016906695,1.17502,-7.3248,-1.9380199999999999,71.0
1774822420.7593691,1.430511474609375e-05,2026-03-29T22:13:40.759,2026-03-29T18:13:40.759,-33805.305,-47260.755,-85241.205,-50098.32,-13630.994999999999,-18584.46,6193.844999999999,-62852.354999999996,5.612240821604694,8.116032986540759,8.427551924738083,4.263003550132193,3.4255962488718055,1.9882087440491734,-10.430536212342181,1.877143786335068,-0.116027535,-1.015195155,-0.016906695,1.17502,-7.3248,-1.9380199999999999,71.0
1774822420.7648988,0.005529642105102539,2026-03-29T22:13:40.764,2026-03-29T18:13:40.764,-33816.869999999995,-47261.07,-85233.915,-50089.77,-13617.63,-18569.7,6218.1449999999995,-62866.079999999994,1.973277737579893,6.066149190241103,9.232734803948588,4.716902072589691,2.805751400047161,2.1880676962189796,-1.3151780923063108,-0.15367994194752688,-0.11059542,-1.01257065,-0.01025388,2.27374,-8.07254,-0.50358,71.0
1774822420.7649293,3.0517578125e-05,2026-03-29T22:13:40.764,2026-03-29T18:13:40.764,-33820.56,-47264.985,-85241.025,-50093.369999999995,-13618.215,-18568.17,6242.219999999999,-62867.97,-2.56756267637019,1.2455236890362993,5.778910523744394,3.2690681612970267,0.9835240425343456,1.3481577635408641,8.191322494792264,-2.102379413389304,-0.11059542,-1.01257065,-0.01025388,2.27374,-8.07254,-0.50358,71.0
1774822420.7682943,0.003365039825439453,2026-03-29T22:13:40.768,2026-03-29T18:13:40.768,-33817.725,-47267.865,-85240.17,-50086.125,-13616.369999999999,-18568.215,6237.945,-62862.704999999994,-5.977695053080481,-4.20878171066327,-0.4916359188527055,0.4465085331881925,-1.2721156500638842,-0.1862325399724384,13.860153739091174,-3.0929981859017714,-0.11059542,-1.01257065,-0.01025388,2.27374,-8.07254,-0.50358,71.0
1774822420.768312,1.7642974853515625e-05,2026-03-29T22:13:40.768,2026-03-29T18:13:40.768,-33819.84,-47272.86,-85239.98999999999,-50078.295,-13611.824999999999,-18567.405,6226.83,-62862.57,-6.7250360216448515,-7.8315834502940715,-6.752108648528287,-2.6407913240773304,-2.9940446670582053,-1.709682591260294,13.262173708002434,-2.693049839791731,-0.11059542,-1.01257065,-0.01025388,2.27374,-8.07254,-0.50358,71.0
1774822420.7724767,0.004164695739746094,2026-03-29T22:13:40.772,2026-03-29T18:13:40.772,-33822.09,-47270.655,-85237.245,-50078.34,-13616.91,-18573.614999999998,6220.035,-62864.64,-4.472340492036141,-7.955660391027904,-10.076742030171092,-4.7285934961183935,-3.4321431354597522,-2.481899626753822,6.808244050283234,-1.1042690569851912,-0.11059542,-1.01257065,-0.01025388,2.27374,-8.07254,-0.50358,71.0
1774822420.7725065,2.9802322387695312e-05,2026-03-29T22:13:40.772,2026-03-29T18:13:40.772,-33813.09,-47269.125,-85244.355,-50090.985,-13625.955,-18578.565,6222.285,-62851.68,-0.23158767921573378,-4.490095212866521,-8.822257364370394,-4.915255868796833,-2.3840288779392846,-2.090247795226938,-2.499850485956535,0.9400766256680413,-0.11059542,-1.01257065,-0.01025388,2.27374,-8.07254,-0.50358,71.0
1774822420.776725,0.004218578338623047,2026-03-29T22:13:40.776,2026-03-29T18:13:40.776,-33802.604999999996,-47267.369999999995,-85253.08499999999,-50103.63,-13634.505,-18585.945,6215.219999999999,-62839.53,4.093422057149293,1.0176209100717255,-3.4466896095429846,-3.0562394531448023,-0.29369868020277556,-0.6707212454854274,-10.466486687875925,2.5186807203123713,-0.11059542,-1.01257065,-0.01025388,2.27374,-8.07254,-0.50358,71.0
1774822420.7767568,3.170967102050781e-05,2026-03-29T22:13:40.776,2026-03-29T18:13:40.776,-33801.119999999995,-47258.235,-85239.54,-50094.045,-13621.859999999999,-18578.024999999998,6205.365,-62841.375,6.5684025755349795,6.076014933512619,3.6452080165678495,0.13852606178455684,1.9321747476864675,1.1310869764364035,-13.596844944080276,2.9432858130199056,-0.11059542,-1.01257065,-0.01025388,2.27374,-8.07254,-0.50358,71.0
1774822420.7805493,0.0037925243377685547,2026-03-29T22:13:40.780,2026-03-29T18:13:40.780,-33812.909999999996,-47250.54,-85219.47,-50074.47,-13598.865,-18555.795,6216.21,-62869.005,6.101191431854754,8.387522335180707,9.18576326236146,3.365201173254307,3.3166772967214655,2.4535748587100663,-10.632429417185874,2.062184687550355,-0.11059542,-1.01257065,-0.01025388,2.27374,-8.07254,-0.50358,71.0
1774822420.7805834,3.409385681152344e-05,2026-03-29T22:13:40.780,2026-03-29T18:13:40.780,-33806.115,-47253.78,-85223.655,-50073.659999999996,-13608.045,-18565.335,6227.054999999999,-62858.43,2.9284953672696594,6.905155588859828,10.565397829432293,5.255121956285843,3.24447077177408,2.6337856342857253,-3.0521459045913875,0.3107167585562224,-0.11059542,-1.01257065,-0.01025388,2.27374,-8.07254,-0.50358,71.0
1774822420.7859716,0.0053882598876953125,2026-03-29T22:13:40.785,2026-03-29T18:13:40.785,-33812.325,-47259.81,-85224.645,-50074.695,-13614.48,-18571.545,6234.12,-62856.225,-1.5024960190554222,2.3158753667156593,7.075974967069647,4.959681492321207,1.7406819105752698,1.5422585378077807,5.65796261339452,-1.5057423165746788,-0.10314915,-1.010800635,-0.0054931500000000005,-0.33571999999999996,-10.72778,2.5484199999999997,71.0
1774822420.7859952,2.3603439331054688e-05,2026-03-29T22:13:40.785,2026-03-29T18:13:40.785,-33822.315,-47269.845,-85239.18,-50084.729999999996,-13620.015,-18572.67,6237.405,-62860.545,-5.199115364590938,-3.276819521535102,0.27778058095717173,2.5392495684933905,-0.5320813393629551,-0.3322122386086381,11.608831277766996,-2.5872656195259913,-0.10314915,-1.010800635,-0.0054931500000000005,-0.33571999999999996,-10.72778,2.5484199999999997,71.0
1774822420.788696,0.0027008056640625,2026-03-29T22:13:40.788,2026-03-29T18:13:40.788,-33822.494999999995,-47275.74,-85269.06,-50091.705,-13622.445,-18577.395,6231.6449999999995,-62860.095,-6.527148306052752,-7.324908309187074,-6.701319030259993,-1.0255487186920278,-2.5633607749986007,-2.100476693079079,12.24812637328527,-2.4959503140941917,-0.10314915,-1.010800635,-0.0054931500000000005,-0.33571999999999996,-10.72778,2.5484199999999997,71.0
1774822420.7887156,1.9550323486328125e-05,2026-03-29T22:13:40.788,2026-03-29T18:13:40.788,-33823.305,-47278.53,-85272.705,-50097.42,-13625.144999999999,-18580.5,6226.065,-62861.579999999994,-4.940097679401578,-8.009693100368615,-10.618418398581182,-4.225462447235581,-3.4456732232264806,-2.896950028102303,7.456245101555427,-1.33270408289854,-0.10314915,-1.010800635,-0.0054931500000000005,-0.33571999999999996,-10.72778,2.5484199999999997,71.0
1774822420.7927394,0.00402379035949707,2026-03-29T22:13:40.792,2026-03-29T18:13:40.792,-33820.38,-47274.705,-85254.48,-50091.39,-13618.08,-18573.93,6227.1449999999995,-62858.024999999994,-1.2051353798008515,-5.070657068511734,-9.639242182646807,-5.664082819355989,-2.7846018603831015,-2.306305289069106,-0.4725534741320071,0.3366816755506029,-0.10314915,-1.010800635,-0.0054931500000000005,-0.33571999999999996,-10.72778,2.5484199999999997,71.0
1774822420.7927573,1.7881393432617188e-05,2026-03-29T22:13:40.792,2026-03-29T18:13:40.792,-33814.215,-47267.46,-85236.48,-50085.27,-13611.24,-18568.079999999998,6235.29,-62853.03,2.9683377097426495,0.09399348149775215,-4.20950784670898,-4.675598720333717,-0.8805912395640335,-0.5811109609550271,-7.924055796600963,1.759018103575505,-0.10314915,-1.010800635,-0.0054931500000000005,-0.33571999999999996,-10.72778,2.5484199999999997,71.0
1774822420.7983162,0.005558967590332031,2026-03-29T22:13:40.798,2026-03-29T18:13:40.798,-33809.715,-47264.805,-85228.29,-50086.17,-13614.93,-18572.76,6219.855,-62854.155,5.717470270227586,5.095037573051233,3.145456762426765,-1.641759546524981,1.403887884124443,1.464093077359381,-11.613603502868058,2.3376582025079005,-0.10314915,-1.010800635,-0.0054931500000000005,-0.33571999999999996,-10.72778,2.5484199999999997,71.0
1774822420.7983418,2.5510787963867188e-05,2026-03-29T22:13:40.798,2026-03-29T18:13:40.798,-33804.854999999996,-47262.689999999995,-85233.33,-50092.83,-13623.84,-18577.26,6230.16,-62847.99,5.865247169703622,7.668105423666563,9.003960567363196,2.1465899183467005,3.0347713302831183,2.839016711396234,-10.037739585878649,1.8840420180062676,-0.10314915,-1.010800635,-0.0054931500000000005,-0.33571999999999996,-10.72778,2.5484199999999997,71.0
1774822420.8013017,0.0029599666595458984,2026-03-29T22:13:40.801,2026-03-29T18:13:40.801,-33808.14,-47253.915,-85221.0,-50076.854999999996,-13617.765,-18574.155,6214.094999999999,-62856.314999999995,3.4285466758909395,6.711623998494195,10.65566999820962,5.038619352747709,3.277679020512475,2.8601036984257444,-4.084774963233708,0.6703984546350809,-0.10314915,-1.010800635,-0.0054931500000000005,-0.33571999999999996,-10.72778,2.5484199999999997,71.0
1774822420.801335,3.337860107421875e-05,2026-03-29T22:13:40.801,2026-03-29T18:13:40.801,-33808.59,-47248.604999999996,-85203.62999999999,-50059.395,-13607.055,-18567.0,6199.245,-62858.7,-0.42638308314926293,2.7650822492709892,7.3712242957993706,5.750015072134505,2.033637099368374,1.4926487968964564,3.4429569580684505,-0.725321303358658,-0.10314915,-1.010800635,-0.0054931500000000005,-0.33571999999999996,-10.72778,2.5484199999999997,71.0
1774822420.812665,0.011329889297485352,2026-03-29T22:13:40.812,2026-03-29T18:13:40.812,-33814.485,-47268.405,-85224.23999999999,-50072.85,-13615.019999999999,-18574.469999999998,6211.304999999999,-62856.899999999994,-3.944538391961182,-2.283410527876504,0.7319230929949422,3.9439309800459013,-0.11662727106189066,-0.6198289384316543,9.146459447088894,-1.6966725951190114,-0.095397705,-1.01257065,-0.005676255,-1.2207999999999999,-13.9629,4.59326,71.0
1774822420.8126836,1.8596649169921875e-05,2026-03-29T22:13:40.812,2026-03-29T18:13:40.812,-33824.88,-47275.515,-85232.11499999999,-50076.18,-13614.66,-18573.614999999998,6223.41,-62864.865,-5.588325808385652,-6.105756616362046,-6.133120271230464,0.39875263397882255,-2.1816618218128285,-2.459658320635484,10.568701022496773,-1.8743121813794759,-0.095397705,-1.01257065,-0.005676255,-1.2207999999999999,-13.9629,4.59326,71.0
1774822420.8127015,1.7881393432617188e-05,2026-03-29T22:13:40.812,2026-03-29T18:13:40.812,-33817.994999999995,-47264.895,-85232.52,-50074.92,-13613.715,-18573.75,6215.49,-62868.06,-4.715705851175648,-7.018866206446405,-10.033461698492443,-3.3241781956840386,-3.2177122902281012,-3.128180161442349,7.256229604029065,-1.2628834225407841,-0.095397705,-1.01257065,-0.005676255,-1.2207999999999999,-13.9629,4.59326,71.0
1774822420.812706,4.5299530029296875e-06,2026-03-29T22:13:40.812,2026-03-29T18:13:40.812,-33808.68,-47253.42,-85235.805,-50080.455,-13618.439999999999,-18578.565,6208.469999999999,-62866.17,-1.8282947910835905,-4.735004370838686,-9.215911442790452,-5.572787434287362,-2.763832974687854,-2.2874824490877668,0.8832681929890114,-0.20068130624001598,-0.095397705,-1.01257065,-0.005676255,-1.2207999999999999,-13.9629,4.59326,71.0
1774822420.8143365,0.001630544662475586,2026-03-29T22:13:40.814,2026-03-29T18:13:40.814,-33800.22,-47244.465,-85225.14,-50076.854999999996,-13612.59,-18571.995,6217.065,-62852.265,1.7051392490484953,-0.43847245376933025,-4.1641045718171155,-5.347485044708627,-1.0511928298027586,-0.33211268548791006,-5.583622828233116,0.8220765622227239,-0.095397705,-1.01257065,-0.005676255,-1.2207999999999999,-13.9629,4.59326,71.0
1774822420.8143528,1.621246337890625e-05,2026-03-29T22:13:40.814,2026-03-29T18:13:40.814,-33801.119999999995,-47244.465,-85217.805,-50067.99,-13606.695,-18568.665,6210.2699999999995,-62849.88,4.301492020346366,3.8230431226149544,2.6709264004252105,-2.756359538470905,1.1104800030375896,1.7969826264327091,-9.26792228366288,1.3906934970047458,-0.095397705,-1.01257065,-0.005676255,-1.2207999999999999,-13.9629,4.59326,71.0
1774822420.8167963,0.002443552017211914,2026-03-29T22:13:40.816,2026-03-29T18:13:40.816,-33805.619999999995,-47250.18,-85222.17,-50074.02,-13617.314999999999,-18579.555,6190.29,-62855.235,4.879336378385846,6.1214908922157765,8.064374433676898,1.029949291498522,2.7149905787213635,3.0681009334129152,-8.667587488964488,1.3332869627568087,-0.095397705,-1.01257065,-0.005676255,-1.2207999999999999,-13.9629,4.59326,71.0
1774822420.816818,2.1696090698242188e-05,2026-03-29T22:13:40.816,2026-03-29T18:13:40.816,-33803.28,-47246.759999999995,-85217.805,-50076.854999999996,-13620.285,-18580.77,6182.91,-62855.325,3.311164740495672,5.530524485411903,9.55192517038611,4.308008728894501,3.03005400110014,2.8619041384839714,-4.265337810664809,0.7612077108420529,-0.095397705,-1.01257065,-0.005676255,-1.2207999999999999,-13.9629,4.59326,71.0
1774822420.820757,0.003938913345336914,2026-03-29T22:13:40.820,2026-03-29T18:13:40.820,-33798.195,-47242.979999999996,-85215.23999999999,-50068.665,-13610.744999999999,-18575.1,6215.3099999999995,-62847.405,0.42179563707851436,2.498400797130646,6.568792184749028,5.615827873293449,1.934910547819661,1.2750055197666306,1.782713275839121,-0.018968571560278247,-0.095397705,-1.01257065,-0.005676255,-1.2207999999999999,-13.9629,4.59326,71.0
1774822420.8207903,3.337860107421875e-05,2026-03-29T22:13:40.820,2026-03-29T18:13:40.820,-33804.225,-47254.229999999996,-85231.08,-50078.79,-13619.654999999999,-18583.02,6252.615,-62846.954999999994,-2.439846150227265,-1.438262231692467,0.6609936581250001,4.396000748147292,-0.032154663697070686,-0.925777092194901,6.698346528983198,-0.6652665205155966,-0.095397705,-1.01257065,-0.005676255,-1.2207999999999999,-13.9629,4.59326,71.0
1774822420.8253324,0.004542112350463867,2026-03-29T22:13:40.825,2026-03-29T18:13:40.825,-33810.57,-47264.67,-85240.845,-50089.14,-13627.484999999999,-18587.655,6244.0199999999995,-62847.27,-4.035348390715141,-4.431288861861223,-5.308543400961681,1.2417629614105685,-1.9358716558767264,-2.676660490551572,8.361553046248515,-0.9503884485627624,-0.089416275,-1.01476791,-0.004699695,1.78542,-15.12266,6.9433,71.0
1774822420.8253565,2.4080276489257812e-05,2026-03-29T22:13:40.825,2026-03-29T18:13:40.825,-33802.515,-47267.685,-85245.705,-50096.97,-13631.31,-18590.175,6222.195,-62831.835,-3.7770562797201452,-5.196012627469085,-8.55381164331572,-2.3868638416040144,-2.888818983262438,-3.134642503843457,6.227488807602673,-0.8364221650385429,-0.089416275,-1.01476791,-0.004699695,1.78542,-15.12266,6.9433,71.0
1774822420.8324137,0.00705718994140625,2026-03-29T22:13:40.832,2026-03-29T18:13:40.832,-33811.74,-47270.61,-85247.50499999999,-50092.11,-13623.39,-18578.79,6231.42,-62845.2,-1.936170724051896,-3.5667122050260467,-7.67765166136932,-4.842767069208237,-2.467081778853177,-2.0859783492664716,1.4816097556965093,-0.4528965783748575,-0.089416275,-1.01476791,-0.004699695,1.78542,-15.12266,6.9433,71.0
1774822420.8324397,2.5987625122070312e-05,2026-03-29T22:13:40.832,2026-03-29T18:13:40.832,-33822.045,-47272.814999999995,-85247.19,-50079.33,-13615.47,-18569.7,6212.385,-62866.215,0.5504082386821966,-0.49020254673904906,-3.2784841452013542,-5.048929544000363,-0.9009323238537593,-0.04609813814736117,-3.597151189059605,-0.005094888203760782,-0.089416275,-1.01476791,-0.004699695,1.78542,-15.12266,6.9433,71.0
1774822420.8357608,0.0033211708068847656,2026-03-29T22:13:40.835,2026-03-29T18:13:40.835,-33822.36,-47258.369999999995,-85226.84999999999,-50060.744999999995,-13598.955,-18555.39,6192.855,-62884.215,2.554598399160712,2.5022699788442453,2.41420072174017,-2.9805137547976193,1.0462917203278341,1.995910057283485,-6.730759861357358,0.33192808853972317,-0.089416275,-1.01476791,-0.004699695,1.78542,-15.12266,6.9433,71.0
1774822420.8357909,3.0040740966796875e-05,2026-03-29T22:13:40.835,2026-03-29T18:13:40.835,-33814.17,-47255.354999999996,-85226.58,-50065.2,-13602.689999999999,-18559.98,6189.3,-62870.715,3.2735023789695568,4.0577591235437245,6.6664615361011705,0.3486959163078985,2.4489066081185884,3.060610190466565,-6.667830611247162,0.48056043726272274,-0.089416275,-1.01476791,-0.004699695,1.78542,-15.12266,6.9433,71.0
1774822420.8397803,0.003989458084106445,2026-03-29T22:13:40.839,2026-03-29T18:13:40.839,-33807.284999999996,-47251.619999999995,-85219.965,-50065.155,-13603.904999999999,-18559.35,6209.955,-62857.215,2.5491001761334915,3.6183994534630632,7.560073286558759,3.3808174851665327,2.6594144970339046,2.6513670203520348,-3.6763717712648245,0.4641975986906671,-0.089416275,-1.01476791,-0.004699695,1.78542,-15.12266,6.9433,71.0
1774822420.8397944,1.4066696166992188e-05,2026-03-29T22:13:40.839,2026-03-29T18:13:40.839,-33813.27,-47256.884999999995,-85225.995,-50080.14,-13616.46,-18567.27,6238.889999999999,-62857.89,0.8649202260562991,1.6084925713233413,4.8651180232347375,4.748762088923835,1.6086942162434759,0.9870785813883256,0.6872846367914572,0.3589839156021275,-0.089416275,-1.01476791,-0.004699695,1.78542,-15.12266,6.9433,71.0
1774822420.839809,1.4543533325195312e-05,2026-03-29T22:13:40.839,2026-03-29T18:13:40.839,-33813.99,-47256.255,-85222.215,-50067.494999999995,-13611.689999999999,-18567.405,6236.054999999999,-62859.06,-0.9449995129370132,-0.8631995989082722,0.06446526869253275,3.901881226826473,-0.1740730188240471,-1.115181507328289,4.378139690774073,0.23110834199610744,-0.089416275,-1.01476791,-0.004699695,1.78542,-15.12266,6.9433,71.0
1774822420.8398156,6.67572021484375e-06,2026-03-29T22:13:40.839,2026-03-29T18:13:40.839,-33809.67,-47247.165,-85204.98,-50042.07,-13601.88,-18562.005,6229.215,-62857.755,-2.109283297651041,-2.6009884958554403,-4.444172179397202,1.3315018401044396,-1.8258098678273114,-2.6446958834391068,5.823266817107414,0.09934313853251704,-0.089416275,-1.01476791,-0.004699695,1.78542,-15.12266,6.9433,71.0
1774822420.8511884,0.011372804641723633,2026-03-29T22:13:40.851,2026-03-29T18:13:40.851,-33804.54,-47236.77,-85191.93,-50043.42,-13604.58,-18561.87,6227.6849999999995,-62854.604999999996,-2.2496515445801113,-2.902484918369624,-6.545509288990197,-1.6983569300863168,-2.5668241244920873,-2.8869962645981837,4.590451894910864,-0.05746045967952448,-0.082946565,-1.009579935,-0.003478995,3.2198599999999997,-15.9467,7.553699999999999,71.0
1774822420.8512206,3.218650817871094e-05,2026-03-29T22:13:40.851,2026-03-29T18:13:40.851,-33813.09,-47250.045,-85218.03,-50069.564999999995,-13614.93,-18569.79,6223.679999999999,-62864.729999999996,-1.4861725794560592,-1.8388134055103946,-5.404869436005877,-3.7725020810045415,-2.0691594092916956,-1.7597812150748766,1.480854015484275,-0.2579180003054258,-0.082946565,-1.009579935,-0.003478995,3.2198599999999997,-15.9467,7.553699999999999,71.0
1774822420.8512492,2.86102294921875e-05,2026-03-29T22:13:40.851,2026-03-29T18:13:40.851,-33806.88,-47254.95,-85232.295,-50083.604999999996,-13613.67,-18567.225,6223.1849999999995,-62860.229999999996,-0.29919736186265333,-0.12492886511603299,-1.7931553941354665,-3.9922338299869584,-0.6016021999193436,0.16418311128901608,-1.94826098094969,-0.47310843094700794,-0.082946565,-1.009579935,-0.003478995,3.2198599999999997,-15.9467,7.553699999999999,71.0
1774822420.8512611,1.1920928955078125e-05,2026-03-29T22:13:40.851,2026-03-29T18:13:40.851,-33807.015,-47261.07,-85241.385,-50098.409999999996,-13614.39,-18564.165,6222.96,-62858.564999999995,0.7509396683804541,1.3149431761927788,2.384409036770632,-2.3707129354478274,1.11281691142916,1.9500809039809315,-4.159923105411705,-0.6140044970747186,-0.082946565,-1.009579935,-0.003478995,3.2198599999999997,-15.9467,7.553699999999999,71.0
1774822420.8580022,0.006741046905517578,2026-03-29T22:13:40.858,2026-03-29T18:13:40.858,-33810.165,-47265.705,-85243.77,-50102.28,-13619.385,-18567.63,6225.03,-62857.755,1.28987642506052,1.8366035755451575,5.0830050219689324,0.22115232098652046,2.2522842367626392,2.759303088952855,-4.326540157150763,-0.5674403291100817,-0.082946565,-1.009579935,-0.003478995,3.2198599999999997,-15.9467,7.553699999999999,71.0
1774822420.8580604,5.817413330078125e-05,2026-03-29T22:13:40.858,2026-03-29T18:13:40.858,-33810.435,-47268.765,-85237.37999999999,-50089.409999999996,-13626.18,-18577.665,6220.349999999999,-62855.325,1.2538310260474153,1.363936206243843,5.120497410646238,2.5130664770627567,2.2899896786884186,2.246473509874995,-2.6220220682356667,-0.2664931066395088,-0.082946565,-1.009579935,-0.003478995,3.2198599999999997,-15.9467,7.553699999999999,71.0
1774822420.8581183,5.793571472167969e-05,2026-03-29T22:13:40.858,2026-03-29T18:13:40.858,-33813.18,-47269.935,-85231.08,-50074.56,-13619.609999999999,-18576.315,6218.639999999999,-62854.02,0.8364827274297979,0.34679414012227316,2.6946414871459883,3.459730445793855,1.2373351037180818,0.7057278093591968,-0.02390955010610407,0.24371130666910412,-0.082946565,-1.009579935,-0.003478995,3.2198599999999997,-15.9467,7.553699999999999,71.0
1774822420.858146,2.765655517578125e-05,2026-03-29T22:13:40.858,2026-03-29T18:13:40.858,-33823.17,-47271.915,-85247.64,-50071.275,-13611.195,-18567.27,6221.16,-62864.189999999995,0.3198564757441671,-0.5553185596866431,-0.8110911187328836,2.722868610846184,-0.375786894923876,-1.0951236135467557,2.2274314965722963,0.7885136508244385,-0.082946565,-1.009579935,-0.003478995,3.2198599999999997,-15.9467,7.553699999999999,71.0
1774822420.861884,0.0037381649017333984,2026-03-29T22:13:40.861,2026-03-29T18:13:40.861,-33818.67,-47268.27,-85267.395,-50081.715,-13615.019999999999,-18568.8,6221.205,-62871.93,-0.09637797246876323,-0.8661527046239513,-3.5938624658527396,0.7855991687969106,-1.7674181438363004,-2.300339364485723,3.219968000357027,1.1180186166993777,-0.082946565,-1.009579935,-0.003478995,3.2198599999999997,-15.9467,7.553699999999999,71.0
1774822420.8619013,1.71661376953125e-05,2026-03-29T22:13:40.861,2026-03-29T18:13:40.861,-33811.604999999996,-47266.2,-85257.36,-50089.95,-13623.029999999999,-18576.495,6216.03,-62869.814999999995,-0.3696947924839011,-0.5389505280481508,-4.353556603541472,-1.3360999557355586,-2.282812756528088,-2.3768073943614305,2.7294768779107663,1.0195183771564973,-0.082946565,-1.009579935,-0.003478995,3.2198599999999997,-15.9467,7.553699999999999,71.0
1774822420.8651145,0.003213167190551758,2026-03-29T22:13:40.865,2026-03-29T18:13:40.865,-33811.155,-47258.82,-85237.245,-50087.34,-13619.654999999999,-18573.614999999998,6214.05,-62868.555,-0.5667965215220805,0.06969462867651455,-2.9002515519039047,-2.620999170999709,-1.7022973997030924,-1.3506522334751956,1.210891469538192,0.438634022234883,-0.078674115,-1.0026829800000001,-0.00476073,7.202719999999999,-14.603819999999999,8.91184,71.0
1774822420.8651524,3.790855407714844e-05,2026-03-29T22:13:40.865,2026-03-29T18:13:40.865,-33807.825,-47253.689999999995,-85220.145,-50083.92,-13617.18,-18571.23,6213.554999999999,-62863.29,-0.745867478870426,0.46281470020906823,-0.16253080179991614,-2.5365825030555635,-0.33276157606698575,0.23551579637120268,-0.520389124065848,-0.45492386986177547,-0.078674115,-1.0026829800000001,-0.00476073,7.202719999999999,-14.603819999999999,8.91184,71.0
1774822420.8701885,0.005036115646362305,2026-03-29T22:13:40.870,2026-03-29T18:13:40.870,-33803.055,-47245.994999999995,-85206.465,-50075.505,-13614.255,-18569.385,6217.965,-62860.68,-0.8630094139027615,0.3340320598050191,2.368192092845863,-1.258532285218597,1.1544063237892426,1.609602988550955,-1.7176778112381037,-1.3036017119814955,-0.078674115,-1.0026829800000001,-0.00476073,7.202719999999999,-14.603819999999999,8.91184,71.0
1774822420.870222,3.361701965332031e-05,2026-03-29T22:13:40.870,2026-03-29T18:13:40.870,-33805.755,-47250.63,-85208.84999999999,-50067.54,-13616.505,-18572.175,6218.955,-62865.765,-0.7763167952905389,-0.2346286665798768,3.4377983898004776,0.47458805294351397,2.053648382435216,2.1495965329727826,-2.0194364697210028,-1.701565054080641,-0.078674115,-1.0026829800000001,-0.00476073,7.202719999999999,-14.603819999999999,8.91184,71.0
1774822420.872738,0.0025157928466796875,2026-03-29T22:13:40.872,2026-03-29T18:13:40.872,-33799.725,-47248.695,-85209.93,-50058.54,-13612.545,-18571.545,6218.6849999999995,-62864.28,-0.35264461422232934,-0.8253626688713706,2.6490871419897957,1.7738897036996952,1.9607410732200716,1.6674820807236421,-1.521430760805598,-1.3852264292220746,-0.078674115,-1.0026829800000001,-0.00476073,7.202719999999999,-14.603819999999999,8.91184,71.0
1774822420.8727603,2.2411346435546875e-05,2026-03-29T22:13:40.872,2026-03-29T18:13:40.872,-33803.775,-47248.83,-85207.275,-50056.02,-13608.539999999999,-18568.079999999998,6217.469999999999,-62866.034999999996,0.39168006875779143,-0.9547301589240428,0.5947105725322779,2.0541244773931218,0.953358779573216,0.46679975590561873,-0.6182282864306895,-0.3870577279972351,-0.078674115,-1.0026829800000001,-0.00476073,7.202719999999999,-14.603819999999999,8.91184,71.0
1774822420.8769372,0.0041768550872802734,2026-03-29T22:13:40.876,2026-03-29T18:13:40.876,-33807.555,-47258.865,-85222.395,-50067.99,-13613.175,-18570.239999999998,6215.219999999999,-62866.89,1.2178029376416661,-0.3981640423426102,-1.532320799546303,1.2970399364543344,-0.46367653527014296,-0.8386715646092008,0.2567392691237075,0.9309085609569546,-0.078674115,-1.0026829800000001,-0.00476073,7.202719999999999,-14.603819999999999,8.91184,71.0
1774822420.8769577,2.0503997802734375e-05,2026-03-29T22:13:40.876,2026-03-29T18:13:40.876,-33811.29,-47266.38,-85234.5,-50078.205,-13619.88,-18576.809999999998,6210.9,-62869.59,1.7293776246907626,0.6300921185721214,-2.6121399765591193,0.0049701628015553015,-1.6133375934763117,-1.6404429428858818,0.8351260836007611,2.0000912665770687,-0.078674115,-1.0026829800000001,-0.00476073,7.202719999999999,-14.603819999999999,8.91184,71.0
1774822420.8816736,0.004715919494628906,2026-03-29T22:13:40.881,2026-03-29T18:13:40.881,-33807.195,-47261.52,-85231.17,-50074.29,-13615.064999999999,-18572.445,6215.264999999999,-62865.225,1.5654999094274586,1.5604819621956558,-2.1826110769950344,-1.1070366566318977,-1.9721121717457148,-1.6222108423917398,1.0670185439570423,2.2881138874704,-0.078674115,-1.0026829800000001,-0.00476073,7.202719999999999,-14.603819999999999,8.91184,71.0
1774822420.881708,3.4332275390625e-05,2026-03-29T22:13:40.881,2026-03-29T18:13:40.881,-33809.85,-47264.715,-85233.23999999999,-50076.494999999995,-13617.0,-18573.614999999998,6227.325,-62863.695,0.6265810541279321,1.781961234940785,-0.631224691387752,-1.500192221436425,-1.408693143434182,-0.8813529397647537,1.035341830184755,1.5592960457038136,-0.078674115,-1.0026829800000001,-0.00476073,7.202719999999999,-14.603819999999999,8.91184,71.0
1774822420.884617,0.0029091835021972656,2026-03-29T22:13:40.884,2026-03-29T18:13:40.884,-33813.18,-47273.13,-85241.655,-50085.405,-13626.269999999999,-18582.93,6221.655,-62860.049999999996,-0.7994587249491125,1.014492224195167,1.0827872873400508,-1.072309855361262,-0.22642082359209648,0.15978489573462332,0.8253356019409439,0.027473075117837253,-0.07452373500000001,-0.9948705,-0.003845205,11.58234,-12.14696,8.07254,71.0
1774822420.88464,2.288818359375e-05,2026-03-29T22:13:40.884,2026-03-29T18:13:40.884,-33808.14,-47269.215,-85239.09,-50084.505,-13625.73,-18582.255,6214.679999999999,-62853.615,-2.106086817287217,-0.4768307284433346,1.9967481912544298,-0.16304223142962057,1.0008802444172025,0.9902107363553083,0.4546111005889606,-1.6882617706169385,-0.07452373500000001,-0.9948705,-0.003845205,11.58234,-12.14696,8.07254,71.0
1774822420.8887475,0.004107475280761719,2026-03-29T22:13:40.888,2026-03-29T18:13:40.888,-33816.869999999995,-47258.369999999995,-85219.69499999999,-50062.32,-13603.32,-18561.42,6222.87,-62880.119999999995,-2.6288907427082226,-1.9657269417384868,1.6763445283979945,0.6770290053918726,1.7109427857617596,1.263866667263955,-0.09035207752896895,-2.8089609019190855,-0.07452373500000001,-0.9948705,-0.003845205,11.58234,-12.14696,8.07254,71.0
1774822420.8887675,2.002716064453125e-05,2026-03-29T22:13:40.888,2026-03-29T18:13:40.888,-33814.53,-47258.235,-85223.79,-50067.405,-13607.64,-18565.92,6220.71,-62885.34,-1.98480830986626,-2.6247802991215683,0.4205701828132964,1.0084354008874332,1.6128910682109694,0.9434549041476388,-0.7524305326820011,-2.7480507377644026,-0.07452373500000001,-0.9948705,-0.003845205,11.58234,-12.14696,8.07254,71.0
1774822420.893728,0.004960536956787109,2026-03-29T22:13:40.893,2026-03-29T18:13:40.893,-33801.93,-47255.534999999996,-85229.19,-50077.665,-13616.865,-18574.965,6217.335,-62867.295,-0.3162602269757551,-1.9806592917035613,-0.9568333705131685,0.7317074371724268,0.8035964539761606,0.2749426884114062,-1.3330008385089491,-1.412098949961066,-0.07452373500000001,-0.9948705,-0.003845205,11.58234,-12.14696,8.07254,71.0
1774822420.8937647,3.6716461181640625e-05,2026-03-29T22:13:40.893,2026-03-29T18:13:40.893,-33806.655,-47253.915,-85223.7,-50073.345,-13614.21,-18573.48,6216.57,-62872.29,1.7047414784972328,-0.21643587190159727,-1.626561583200851,0.10345910305715542,-0.30467510550978016,-0.37481262618060873,-1.5335121838411783,0.7016364217495829,-0.07452373500000001,-0.9948705,-0.003845205,11.58234,-12.14696,8.07254,71.0
1774822420.8968513,0.003086566925048828,2026-03-29T22:13:40.896,2026-03-29T18:13:40.896,-33812.1,-47252.564999999995,-85217.44499999999,-50066.82,-13608.18,-18567.945,6209.505,-62885.52,3.146306238679614,1.8601688730588912,-1.2286946880623488,-0.4522768950766886,-1.1975567040317878,-0.7179240858694715,-1.1140583356372626,2.680540115335031,-0.07452373500000001,-0.9948705,-0.003845205,11.58234,-12.14696,8.07254,71.0
1774822420.8968775,2.6226043701171875e-05,2026-03-29T22:13:40.896,2026-03-29T18:13:40.896,-33802.155,-47252.34,-85219.2,-50066.729999999996,-13607.505,-18567.315,6202.8,-62875.979999999996,3.252506483258881,3.192537159924189,-0.06602357387308401,-0.6130914540331991,-1.5014256002356143,-0.6746385736148317,-0.0830418726061571,3.5889913338778507,-0.07452373500000001,-0.9948705,-0.003845205,11.58234,-12.14696,8.07254,71.0
1774822420.9025464,0.0056688785552978516,2026-03-29T22:13:40.902,2026-03-29T18:13:40.902,-33798.33,-47249.865,-85216.00499999999,-50060.924999999996,-13605.119999999999,-18568.215,6205.139999999999,-62868.555,1.838840029434747,3.0174344913696833,1.0981809954684587,-0.3438227394816734,-1.1392489658166074,-0.37306182069082133,1.2114459599791179,2.9103088024305355,-0.07452373500000001,-0.9948705,-0.003845205,11.58234,-12.14696,8.07254,71.0
1774822420.9025807,3.4332275390625e-05,2026-03-29T22:13:40.902,2026-03-29T18:13:40.902,-33811.83,-47247.119999999995,-85205.79,-50046.57,-13593.644999999999,-18557.19,6232.094999999999,-62875.619999999995,-0.5590221638759095,1.2939550160332403,1.5124865225375752,0.10762396295487485,-0.3345223195383592,-0.03724983012409959,2.1796291807411645,0.8299021565495688,-0.07452373500000001,-0.9948705,-0.003845205,11.58234,-12.14696,8.07254,71.0
1774822420.9158418,0.013261079788208008,2026-03-29T22:13:40.915,2026-03-29T18:13:40.915,-33822.72,-47256.705,-85219.37999999999,-50057.955,-13602.465,-18562.635,6235.11,-62889.479999999996,-2.8819962571934985,-1.2181971620983103,0.8990630211390347,0.3924777659830069,0.522895868601481,0.15870250937951358,2.263063389616621,-1.7917171600637436,-0.074889945,-0.9882176850000001,-0.003356925,13.79504,-11.1398,8.13358,71.0
1774822420.9158745,3.266334533691406e-05,2026-03-29T22:13:40.915,2026-03-29T18:13:40.915,-33812.909999999996,-47263.994999999995,-85228.73999999999,-50070.195,-13609.439999999999,-18566.73,6230.88,-62880.479999999996,-4.0210856122535485,-3.2962361983328505,-0.36899259999853123,0.30127822024978845,1.0705598618470544,0.1818273926997432,1.2541509972290295,-3.7708949995792715,-0.074889945,-0.9882176850000001,-0.003356925,13.79504,-11.1398,8.13358,71.0
1774822420.9159029,2.8371810913085938e-05,2026-03-29T22:13:40.915,2026-03-29T18:13:40.915,-33809.04,-47271.915,-85236.03,-50078.07,-13611.869999999999,-18569.385,6223.7699999999995,-62878.049999999996,-3.3532889144389073,-3.856318225790248,-1.4836835323848263,-0.0921924515802463,1.1285574705284713,0.12863283979799964,-0.5189946636547021,-4.136320877598408,-0.074889945,-0.9882176850000001,-0.003356925,13.79504,-11.1398,8.13358,71.0
1774822420.9159143,1.1444091796875e-05,2026-03-29T22:13:40.915,2026-03-29T18:13:40.915,-33814.305,-47276.145,-85241.06999999999,-50082.525,-13608.945,-18565.739999999998,6217.695,-62879.04,-1.078243213897799,-2.520806376244571,-1.6904970734776799,-0.47711604341876473,0.7485193874797855,0.12870683878687023,-2.274341004031256,-2.6056129936401438,-0.074889945,-0.9882176850000001,-0.003356925,13.79504,-11.1398,8.13358,71.0
1774822420.9159286,1.430511474609375e-05,2026-03-29T22:13:40.915,2026-03-29T18:13:40.915,-33811.604999999996,-47266.02,-85234.14,-50086.665,-13616.189999999999,-18569.61,6221.429999999999,-62877.96,1.8245240777916585,0.146473083819766,-0.7644243207859364,-0.5166683246561824,0.14979649456643043,0.23340026378631565,-3.1218971802321542,0.23073557706699155,-0.074889945,-0.9882176850000001,-0.003356925,13.79504,-11.1398,8.13358,71.0
1774822420.915939,1.049041748046875e-05,2026-03-29T22:13:40.915,2026-03-29T18:13:40.915,-33799.905,-47245.59,-85217.985,-50074.515,-13614.93,-18570.6,6226.0199999999995,-62874.54,4.020704224050351,2.876489513489578,0.8131106267942928,-0.09189949098545995,-0.40750632696203193,0.3664567126019573,-2.5201156747495888,3.128534774620835,-0.074889945,-0.9882176850000001,-0.003356925,13.79504,-11.1398,8.13358,71.0
1774822420.9159524,1.33514404296875e-05,2026-03-29T22:13:40.915,2026-03-29T18:13:40.915,-33791.625,-47235.015,-85202.01,-50059.17,-13607.505,-18564.93,6233.13,-62863.784999999996,4.442579584928564,4.304539721184702,2.0979717685826533,0.5818095866813755,-0.7396579546791706,0.37230825041807997,-0.6064584780893602,4.736092699973212,-0.074889945,-0.9882176850000001,-0.003356925,13.79504,-11.1398,8.13358,71.0
1774822420.9159627,1.0251998901367188e-05,2026-03-29T22:13:40.915,2026-03-29T18:13:40.915,-33803.595,-47244.735,-85209.93,-50062.725,-13611.51,-18567.855,6233.4,-62874.99,2.8137226560066364,3.6575926470948836,2.226620456711408,1.0550246992938244,-0.791826151919631,0.13355499686049696,1.7934547665474523,4.227861608416524,-0.074889945,-0.9882176850000001,-0.003356925,13.79504,-11.1398,8.13358,71.0
1774822420.922495,0.006532192230224609,2026-03-29T22:13:40.922,2026-03-29T18:13:40.922,-33812.595,-47257.604999999996,-85218.48,-50062.994999999995,-13617.99,-18577.62,6213.69,-62887.59,-0.18308017433487958,1.171245977924077,0.9546179168741932,0.918512090952828,-0.6160107977732974,-0.31896841908154233,3.519869192907038,1.727282148362544,-0.074889945,-0.9882176850000001,-0.003356925,13.79504,-11.1398,8.13358,71.0
1774822420.9225235,2.86102294921875e-05,2026-03-29T22:13:40.922,2026-03-29T18:13:40.922,-33817.095,-47261.655,-85224.915,-50060.384999999995,-13614.48,-18578.07,6200.46,-62893.755,-3.1921137987106776,-1.9874570069728807,-1.1300966446713763,0.09280200975701554,-0.30746556280744924,-0.781850953186932,3.6453202214161107,-1.6972762207149488,-0.074889945,-0.9882176850000001,-0.003356925,13.79504,-11.1398,8.13358,71.0
1774822420.9261136,0.003590106964111328,2026-03-29T22:13:40.926,2026-03-29T18:13:40.926,-33808.68,-47251.17,-85219.065,-50050.619999999995,-13600.98,-18569.43,6212.205,-62888.67,-4.805164131356761,-4.271238877385595,-2.870938534732774,-1.0529231486708701,0.05062237102505659,-0.9707041873860296,1.97385414315995,-4.487194531735706,-0.07763652,-0.987607335,-0.00463866,14.78694,-11.078759999999999,7.73682,71.0
1774822420.9261284,1.4781951904296875e-05,2026-03-29T22:13:40.926,2026-03-29T18:13:40.926,-33803.46,-47247.075,-85212.045,-50045.13,-13589.46,-18560.79,6220.53,-62884.125,-4.228897646774391,-4.515609596665984,-3.1685760014252353,-1.8531221215556521,0.40120180030495445,-0.6864329696863837,-0.7959684496662471,-5.306741119262848,-0.07763652,-0.987607335,-0.00463866,14.78694,-11.078759999999999,7.73682,71.0
1774822420.930514,0.004385709762573242,2026-03-29T22:13:40.930,2026-03-29T18:13:40.930,-33798.42,-47246.85,-85222.44,-50074.2,-13600.619999999999,-18561.78,6238.3949999999995,-62879.265,-1.6792910634342766,-2.5351056230641227,-1.6359143306372141,-1.7132597933052736,0.6896849179434447,0.038009018791897914,-3.3576935489243764,-3.6869431681773466,-0.07763652,-0.987607335,-0.00463866,14.78694,-11.078759999999999,7.73682,71.0
1774822420.9305356,2.1457672119140625e-05,2026-03-29T22:13:40.930,2026-03-29T18:13:40.930,-33816.104999999996,-47264.805,-85236.20999999999,-50085.405,-13618.484999999999,-18573.255,6220.215,-62896.68,1.694601782204847,0.7533141987715384,1.0939438155537762,-0.496101859360444,0.8368297228789305,0.905277203771798,-4.4185784652091495,-0.288032649851835,-0.07763652,-0.987607335,-0.00463866,14.78694,-11.078759999999999,7.73682,71.0
1774822420.936232,0.005696535110473633,2026-03-29T22:13:40.936,2026-03-29T18:13:40.936,-33813.27,-47258.369999999995,-85225.77,-50063.22,-13614.57,-18576.855,6168.0599999999995,-62905.095,4.33337175795625,3.755908585958405,3.615297246829588,1.3069406881915884,0.746401286903689,1.4739565886251238,-3.357643680042386,3.3640625074974344,-0.07763652,-0.987607335,-0.00463866,14.78694,-11.078759999999999,7.73682,71.0
1774822420.9362624,3.0279159545898438e-05,2026-03-29T22:13:40.936,2026-03-29T18:13:40.936,-33802.424999999996,-47248.2,-85229.86499999999,-50057.729999999996,-13607.279999999999,-18567.989999999998,6190.469999999999,-62896.409999999996,4.996382833587591,4.978331104819016,4.463786197315791,2.7554502881486354,0.3593997153691979,1.3839168217106996,-0.5824939426988176,5.565438142018077,-0.07763652,-0.987607335,-0.00463866,14.78694,-11.078759999999999,7.73682,71.0
1774822420.936289,2.6702880859375e-05,2026-03-29T22:13:40.936,2026-03-29T18:13:40.936,-33810.03,-47262.869999999995,-85244.67,-50074.244999999995,-13616.144999999999,-18573.12,6225.344999999999,-62899.244999999995,3.352655127130164,3.7723334697618123,2.937322418872948,2.9362755383760595,-0.2733095479272851,0.5713951354148796,2.6173998254326087,5.235309646568869,-0.07763652,-0.987607335,-0.00463866,14.78694,-11.078759999999999,7.73682,71.0
1774822420.9363005,1.1444091796875e-05,2026-03-29T22:13:40.936,2026-03-29T18:13:40.936,-33819.75,-47268.72,-85244.895,-50077.125,-13614.119999999999,-18573.704999999998,6219.495,-62918.369999999995,0.14884717758771646,0.6785497052898488,-0.42563500983184116,1.5003799999112726,-0.9542629201639665,-0.6500966070381072,4.6743573991252,2.4512950631019295,-0.07763652,-0.987607335,-0.00463866,14.78694,-11.078759999999999,7.73682,71.0
1774822420.9410217,0.004721164703369141,2026-03-29T22:13:40.941,2026-03-29T18:13:40.941,-33830.549999999996,-47273.895,-85244.94,-50086.619999999995,-13615.335,-18573.48,6194.07,-62935.829999999994,-3.1318299057251604,-2.815152463405718,-4.008033501164328,-1.042475365827408,-1.3843007006770383,-1.7058670786852188,4.518215687505935,-1.548120702544151,-0.07763652,-0.987607335,-0.00463866,14.78694,-11.078759999999999,7.73682,71.0
1774822420.941051,2.9325485229492188e-05,2026-03-29T22:13:40.941,2026-03-29T18:13:40.941,-33815.744999999995,-47267.235,-85240.44,-50091.795,-13617.18,-18573.84,6195.42,-62921.34,-4.9629737661508235,-4.991708756327524,-5.88618105045012,-3.474516251629248,-1.2912313673593685,-2.0331377679145533,2.1365358280237783,-4.914813357370988,-0.07763652,-0.987607335,-0.00463866,14.78694,-11.078759999999999,7.73682,71.0
1774822420.9451168,0.004065752029418945,2026-03-29T22:13:40.945,2026-03-29T18:13:40.945,-33812.369999999995,-47271.78,-85246.785,-50085.674999999996,-13622.085,-18577.71,6234.03,-62914.454999999994,-4.493442890276275,-4.751171592303163,-4.844912331376562,-4.442275948022485,-0.5883804166673355,-1.380179953785925,-1.3755968261550515,-6.05082037503387,-0.08117655,-0.98803458,-0.001770015,13.18464,-10.42258,7.46214,71.0
1774822420.945147,3.0279159545898438e-05,2026-03-29T22:13:40.945,2026-03-29T18:13:40.945,-33833.97,-47275.695,-85233.59999999999,-50062.725,-13611.734999999999,-18568.305,6242.219999999999,-62954.865,-1.9490998546151836,-2.1667994940833633,-1.1064111861686368,-3.1859890264964075,0.5251236780216149,0.027112139912239173,-4.322416618363012,-4.374326657586861,-0.08117655,-0.98803458,-0.001770015,13.18464,-10.42258,7.46214,71.0
1774822420.951578,0.006430864334106445,2026-03-29T22:13:40.951,2026-03-29T18:13:40.951,-33828.03,-47259.54,-85209.84,-50040.45,-13594.59,-18558.36,6220.9349999999995,-62963.325,1.4743730336430672,1.5302928743247552,3.6455373499078116,-0.04124908237945552,1.5971509768058108,1.553568716664879,-5.234850595186591,-0.6214688417223224,-0.08117655,-0.98803458,-0.001770015,13.18464,-10.42258,7.46214,71.0
1774822420.9516065,2.86102294921875e-05,2026-03-29T22:13:40.951,2026-03-29T18:13:40.951,-33813.945,-47249.909999999996,-85212.62999999999,-50066.595,-13608.269999999999,-18568.844999999998,6203.295,-62949.195,4.177173256948914,4.539614904249473,7.019493126249768,3.592194491988482,2.101701205133656,2.443887198826169,-3.6106544900091357,3.473958857700101,-0.08117655,-0.98803458,-0.001770015,13.18464,-10.42258,7.46214,71.0
1774822420.9516325,2.5987625122070312e-05,2026-03-29T22:13:40.951,2026-03-29T18:13:40.951,-33791.265,-47232.63,-85200.345,-50067.494999999995,-13607.234999999999,-18566.954999999998,6224.04,-62928.54,4.910132498199127,5.370224588161097,7.1126925112668,5.862937349998222,1.696061659652147,2.199876158687378,-0.19076868551364948,5.985274140141026,-0.08117655,-0.98803458,-0.001770015,13.18464,-10.42258,7.46214,71.0
1774822420.95164,7.3909759521484375e-06,2026-03-29T22:13:40.951,2026-03-29T18:13:40.951,-33791.354999999996,-47229.39,-85188.825,-50057.955,-13603.545,-18561.78,6259.7699999999995,-62926.424999999996,3.3592306189312606,3.5796556861249016,3.5533394093153547,5.39908671356269,0.4305501846939652,0.8558805772013277,3.3801920222746387,5.707100220885704,-0.08117655,-0.98803458,-0.001770015,13.18464,-10.42258,7.46214,71.0
1774822420.9573696,0.00572967529296875,2026-03-29T22:13:40.957,2026-03-29T18:13:40.957,-33813.494999999995,-47243.564999999995,-85194.94499999999,-50048.685,-13592.475,-18548.01,6274.844999999999,-62950.905,0.2832171084229027,0.006256509763299734,-2.171322618382553,2.094101109559763,-1.2106400299125972,-0.998517563591965,5.353258052800102,2.741886633653999,-0.08117655,-0.98803458,-0.001770015,13.18464,-10.42258,7.46214,71.0
1774822420.9573936,2.4080276489257812e-05,2026-03-29T22:13:40.957,2026-03-29T18:13:40.957,-33826.59,-47260.619999999995,-85222.75499999999,-50067.045,-13609.215,-18567.315,6229.08,-62971.829999999994,-2.85736292224816,-3.6256678949215995,-7.327896319272697,-2.6884429611522633,-2.486949575535584,-2.478301979039146,4.74191484372661,-1.5299773423586214,-0.08117655,-0.98803458,-0.001770015,13.18464,-10.42258,7.46214,71.0
1774822420.9643035,0.006909847259521484,2026-03-29T22:13:40.964,2026-03-29T18:13:40.964,-33826.994999999995,-47263.455,-85230.495,-50068.979999999996,-13611.33,-18574.605,6199.335,-62977.005,-4.598222520714882,-5.540519312058909,-9.242700202277463,-6.662157595417957,-2.7370287721679385,-2.8304304629419588,1.8221206479938132,-5.0932960292153995,-0.08117655,-0.98803458,-0.001770015,13.18464,-10.42258,7.46214,71.0
1774822420.9643266,2.3126602172851562e-05,2026-03-29T22:13:40.964,2026-03-29T18:13:40.964,-33817.14,-47253.555,-85224.645,-50065.335,-13604.58,-18568.934999999998,6202.98,-62974.259999999995,-4.160706699237125,-4.780215392155753,-6.675745622975576,-7.706540736923503,-1.71975561208115,-1.8202032157386754,-1.9910178252746455,-6.254668983640009,-0.08117655,-0.98803458,-0.001770015,13.18464,-10.42258,7.46214,71.0
1774822420.964346,1.9311904907226562e-05,2026-03-29T22:13:40.964,2026-03-29T18:13:40.964,-33813.494999999995,-47248.47,-85221.135,-50066.955,-13606.515,-18571.14,6203.745,-62974.665,-1.8049744158526768,-1.6812921944657209,-0.5607727751470893,-4.980351754109305,0.21465002577172235,0.12297798623562457,-4.835724420022228,-4.455920295755225,-0.087707295,-0.982724535,6.1035e-05,5.96666,-12.467419999999999,7.553699999999999,71.0
1774822420.964353,7.152557373046875e-06,2026-03-29T22:13:40.964,2026-03-29T18:13:40.964,-33815.52,-47250.405,-85214.745,-50059.665,-13602.06,-18563.715,6219.764999999999,-62967.284999999996,1.3153682157721922,2.276526597051767,6.310430158918276,0.5185590224604562,2.2314648743924863,2.0873174862528177,-5.323485832214315,-0.5499388876783007,-0.087707295,-0.982724535,6.1035e-05,5.96666,-12.467419999999999,7.553699999999999,71.0
1774822420.9689524,0.004599332809448242,2026-03-29T22:13:40.968,2026-03-29T18:13:40.968,-33822.0,-47265.84,-85225.995,-50066.955,-13606.064999999999,-18559.665,6237.179999999999,-62968.229999999996,3.718815390944715,5.180799057402801,10.56737753618466,6.288685035261765,3.372759968892076,3.1115430852278094,-3.2270712239094643,3.6004494221166374,-0.087707295,-0.982724535,6.1035e-05,5.96666,-12.467419999999999,7.553699999999999,71.0
1774822420.9689724,2.002716064453125e-05,2026-03-29T22:13:40.968,2026-03-29T18:13:40.968,-33823.395,-47283.795,-85250.87999999999,-50083.155,-13617.269999999999,-18571.32,6226.469999999999,-62975.07,4.303935266884247,5.61267929654341,9.915233918587774,9.462013743983343,3.0165103790602164,2.6612145340497735,0.40889713936124056,6.013310117889126,-0.087707295,-0.982724535,6.1035e-05,5.96666,-12.467419999999999,7.553699999999999,71.0
1774822420.9874644,0.01849198341369629,2026-03-29T22:13:40.987,2026-03-29T18:13:40.987,-33814.305,-47270.61,-85242.645,-50077.17,-13613.67,-18571.59,6221.5199999999995,-62972.369999999995,2.8593585120473186,3.339025884434382,4.350921863330621,8.226747018930375,1.2116216523513335,0.9098008902856168,3.790971886511093,5.541034651188583,-0.087707295,-0.982724535,6.1035e-05,5.96666,-12.467419999999999,7.553699999999999,71.0
1774822420.9874873,2.288818359375e-05,2026-03-29T22:13:40.987,2026-03-29T18:13:40.987,-33816.51,-47256.39,-85231.62,-50068.799999999996,-13605.615,-18566.37,6218.594999999999,-62979.57,0.13734205126479748,-0.5671838336796722,-3.6962088673437448,2.8305075055424402,-1.290205648448878,-1.3242164682226543,5.270709085120852,2.424732264881873,-0.087707295,-0.982724535,6.1035e-05,5.96666,-12.467419999999999,7.553699999999999,71.0
1774822420.987508,2.0742416381835938e-05,2026-03-29T22:13:40.987,2026-03-29T18:13:40.987,-33815.295,-47247.345,-85223.205,-50061.555,-13600.89,-18564.165,6217.11,-62986.77,-2.5330809655955524,-4.238431885548703,-10.428985556998056,-4.3806865343529555,-3.346793023807191,-2.9639934928453733,4.159964428206537,-1.8218084833530745,-0.087707295,-0.982724535,6.1035e-05,5.96666,-12.467419999999999,7.553699999999999,71.0
1774822420.9875176,9.5367431640625e-06,2026-03-29T22:13:40.987,2026-03-29T18:13:40.987,-33813.315,-47246.13,-85219.73999999999,-50059.08,-13603.095,-18568.665,6214.724999999999,-62989.784999999996,-3.8960598942217506,-5.909867875621627,-12.484090848087934,-9.980112159183319,-3.9530062618311437,-3.200247794059182,1.0592968886941763,-5.14539674735183,-0.087707295,-0.982724535,6.1035e-05,5.96666,-12.467419999999999,7.553699999999999,71.0
1774822420.9875307,1.3113021850585938e-05,2026-03-29T22:13:40.987,2026-03-29T18:13:40.987,-33816.96,-47249.685,-85217.76,-50051.88,-13600.89,-18569.07,6213.465,-62993.204999999994,-3.3634995853440266,-4.768907654546984,-8.611182079419185,-11.09534046604668,-2.737166809469214,-1.8965263359145295,-2.46118391836745,-5.949440325908294,-0.087707295,-0.982724535,6.1035e-05,5.96666,-12.467419999999999,7.553699999999999,71.0
1774822420.987541,1.0251998901367188e-05,2026-03-29T22:13:40.987,2026-03-29T18:13:40.987,-33822.72,-47260.215,-85230.0,-50056.92,-13603.635,-18570.915,6211.8,-62997.84,-1.2709836224365678,-1.3473755181671712,-0.39080486841414297,-6.877511496696206,-0.17887009858732925,0.33174754249921434,-4.661120457520102,-3.868028818106039,-0.087707295,-0.982724535,6.1035e-05,5.96666,-12.467419999999999,7.553699999999999,71.0
1774822421.019936,0.032395124435424805,2026-03-29T22:13:41.019,2026-03-29T18:13:41.019,-33815.295,-47260.845,-85239.315,-50066.28,-13607.279999999999,-18572.355,6208.335,-62986.59,1.317256389752251,2.732067386292807,8.407242521074487,0.9455677271938963,2.5760336155615025,2.4102299859480225,-4.500829979407976,0.060164450772083954,-0.093688725,-0.979428645,-0.00036621,-3.2351199999999998,-13.68822,10.08686,71.0
1774822421.0199566,2.0503997802734375e-05,2026-03-29T22:13:41.019,2026-03-29T18:13:41.019,-33807.465,-47252.295,-85227.435,-50067.72,-13602.869999999999,-18567.495,6206.13,-62966.88,3.1460053859912125,5.531846757613097,13.566879440898862,8.767287921421484,4.234648600004565,3.33015805750183,-2.14363670248967,3.903970433709386,-0.093688725,-0.979428645,-0.00036621,-3.2351199999999998,-13.68822,10.08686,71.0
1774822421.0199776,2.09808349609375e-05,2026-03-29T22:13:41.019,2026-03-29T18:13:41.019,-33817.229999999996,-47247.884999999995,-85198.815,-50056.11,-13589.505,-18552.059999999998,6215.535,-62967.555,3.378929967661009,5.72383056983563,12.457779058491681,12.775810441954055,3.9725901817882607,2.6454386671512657,1.1579714125807548,5.787560000166446,-0.093688725,-0.979428645,-0.00036621,-3.2351199999999998,-13.68822,10.08686,71.0
1774822421.0199897,1.2159347534179688e-05,2026-03-29T22:13:41.019,2026-03-29T18:13:41.019,-33841.08,-47256.21,-85208.265,-50045.49,-13582.574999999999,-18544.86,6233.76,-63004.725,1.9837365455517209,3.2191292603508237,5.371571555662251,10.822355632017432,1.848894866318354,0.6939848876024042,3.7231796087363547,4.809228011700522,-0.093688725,-0.979428645,-0.00036621,-3.2351199999999998,-13.68822,10.08686,71.0
1774822421.0200024,1.2636184692382812e-05,2026-03-29T22:13:41.020,2026-03-29T18:13:41.020,-33825.15,-47272.365,-85264.065,-50072.805,-13614.39,-18579.105,6228.135,-62998.02,-0.28591365078252284,-0.7954579230696739,-4.515373458113388,3.56367493269743,-1.1908341814288088,-1.5688486568869338,4.3038901837948735,1.4796428188556043,-0.093688725,-0.979428645,-0.00036621,-3.2351199999999998,-13.68822,10.08686,71.0
1774822421.0200107,8.344650268554688e-06,2026-03-29T22:13:41.020,2026-03-29T18:13:41.020,-33808.815,-47276.595,-85268.295,-50083.695,-13622.67,-18586.844999999998,6225.525,-62985.465,-2.2886524476630754,-4.42705116636785,-12.579469134170695,-5.725630109685489,-3.73985817678292,-3.0428150652896977,2.7028146761417293,-2.5361042432852168,-0.093688725,-0.979428645,-0.00036621,-3.2351199999999998,-13.68822,10.08686,71.0
1774822421.0200229,1.2159347534179688e-05,2026-03-29T22:13:41.020,2026-03-29T18:13:41.020,-33815.025,-47268.45,-85241.205,-50072.58,-13603.59,-18565.695,6231.735,-63000.314999999995,-3.066485559041626,-5.9758834402903815,-14.93112770428395,-12.640408823140564,-4.591110106629323,-3.0254810164987127,-0.16202873405809742,-5.245311345081099,-0.093688725,-0.979428645,-0.00036621,-3.2351199999999998,-13.68822,10.08686,71.0
1774822421.0200303,7.3909759521484375e-06,2026-03-29T22:13:41.020,2026-03-29T18:13:41.020,-33832.485,-47260.665,-85220.55,-50078.384999999995,-13597.154999999999,-18556.245,6232.679999999999,-63017.189999999995,-2.3039622822738335,-4.733928882034652,-10.30213829754676,-13.752594910791686,-3.3186218326779313,-1.553933016238212,-2.76653238191958,-5.314807668037734,-0.093688725,-0.979428645,-0.00036621,-3.2351199999999998,-13.68822,10.08686,71.0
1774822421.0200384,8.106231689453125e-06,2026-03-29T22:13:41.020,2026-03-29T18:13:41.020,-33816.69,-47255.354999999996,-85221.09,-50087.52,-13608.63,-18568.17,6217.2,-63015.03,-0.454916910314877,-1.3062435205079774,-0.7180898195695707,-8.322708913237285,-0.49509953863266054,0.6239924237097974,-3.787039387290039,-2.7298785676047252,-0.093688725,-0.979428645,-0.00036621,-3.2351199999999998,-13.68822,10.08686,71.0
1774822421.0200455,7.152557373046875e-06,2026-03-29T22:13:41.020,2026-03-29T18:13:41.020,-33796.034999999996,-47242.665,-85211.01,-50061.375,-13598.505,-18563.04,6219.045,-63008.865,1.513410125846909,2.6898612220206646,9.396864741022467,1.2447020016541164,2.567401321629055,2.4312137325984375,-2.7791063495138566,1.201887993178006,-0.093688725,-0.979428645,-0.00036621,-3.2351199999999998,-13.68822,10.08686,71.0
1774822421.0200548,9.298324584960938e-06,2026-03-29T22:13:41.020,2026-03-29T18:13:41.020,-33809.445,-47250.945,-85213.665,-50051.205,-13600.08,-18565.92,6209.91,-63015.615,2.619311214315743,5.395956310252828,15.283469448217641,10.470556283407456,4.435780840537933,3.0004525451025135,-0.37806134442574973,4.504384094568928,-0.094665285,-0.9863256,0.000793455,-4.79164,-12.971,12.42164,71.0
1774822421.0200624,7.62939453125e-06,2026-03-29T22:13:41.020,2026-03-29T18:13:41.020,-33821.19,-47261.295,-85227.61499999999,-50058.45,-13605.975,-18570.555,6207.075,-63022.86,2.353782355785333,5.582846174134044,14.10730898990509,14.918805663935327,4.238031902929931,2.0982737485620286,2.072552556137119,5.520183647701595,-0.094665285,-0.9863256,0.000793455,-4.79164,-12.971,12.42164,71.0
1774822421.0200715,9.059906005859375e-06,2026-03-29T22:13:41.020,2026-03-29T18:13:41.020,-33818.31,-47260.305,-85228.37999999999,-50058.945,-13602.285,-18566.28,6216.885,-63021.96,0.9150539467563752,3.209830854742445,6.332912264988838,12.352176852121094,2.0793719610530754,0.223206949234592,3.2564648287042046,3.7400385542424375,-0.094665285,-0.9863256,0.000793455,-4.79164,-12.971,12.42164,71.0
1774822421.020079,7.3909759521484375e-06,2026-03-29T22:13:41.020,2026-03-29T18:13:41.020,-33812.19,-47250.674999999996,-85213.08,-50052.24,-13599.09,-18564.66,6222.42,-63020.07,-0.9176608783311982,-0.5820065799954712,-4.458458319151753,3.8685190300748937,-1.0103830313958133,-1.6648107940333785,2.587357083100867,0.060277588288497504,-0.094665285,-0.9863256,0.000793455,-4.79164,-12.971,12.42164,71.0
1774822421.0200877,8.821487426757812e-06,2026-03-29T22:13:41.020,2026-03-29T18:13:41.020,-33812.955,-47254.545,-85222.215,-50060.115,-13602.689999999999,-18567.18,6225.075,-63020.79,-2.196740074567973,-4.025598111556529,-13.236823378711469,-6.564279596785577,-3.57321091966907,-2.638756539364871,0.5052843912583138,-3.6627574747268663,-0.094665285,-0.9863256,0.000793455,-4.79164,-12.971,12.42164,71.0
1774822421.0200956,7.867813110351562e-06,2026-03-29T22:13:41.020,2026-03-29T18:13:41.020,-33816.825,-47261.564999999995,-85233.42,-50069.025,-13602.06,-18565.515,6217.695,-63022.905,-2.2899988013039425,-5.559215969256826,-15.892457134119846,-13.981059488899684,-4.42156747100247,-2.26687780074778,-1.7854799567039505,-5.541775457877165,-0.094665285,-0.9863256,0.000793455,-4.79164,-12.971,12.42164,71.0
1774822421.020105,9.298324584960938e-06,2026-03-29T22:13:41.020,2026-03-29T18:13:41.020,-33816.465,-47257.604999999996,-85230.18,-50061.33,-13594.095,-18559.44,6207.795,-63027.674999999996,-1.1910160747970575,-4.538868333568417,-11.179377017584832,-14.80883550602003,-3.199828886139465,-0.809320491674574,-2.9890975023721174,-4.608685057213339,-0.094665285,-0.9863256,0.000793455,-4.79164,-12.971,12.42164,71.0
1774822421.0201125,7.62939453125e-06,2026-03-29T22:13:41.020,2026-03-29T18:13:41.020,-33811.92,-47253.825,-85223.745,-50058.45,-13595.039999999999,-18562.905,6196.275,-63030.104999999996,0.4955840966118482,-1.5050174907886003,-1.305663373107921,-8.611552781346694,-0.5379928730859421,0.9432086667498385,-2.433806017199133,-1.3097409178246036,-0.094665285,-0.9863256,0.000793455,-4.79164,-12.971,12.42164,71.0
1774822421.0201228,1.0251998901367188e-05,2026-03-29T22:13:41.020,2026-03-29T18:13:41.020,-33812.505,-47251.935,-85213.89,-50047.47,-13590.99,-18563.579999999998,6204.0599999999995,-63030.24,1.8784840708366848,2.104776320862807,9.111699523912622,1.6721001933107407,2.271223920501861,2.0948554727065902,-0.4414816863244642,2.7062890959329873,-0.094665285,-0.9863256,0.000793455,-4.79164,-12.971,12.42164,71.0
1774822421.0201309,8.106231689453125e-06,2026-03-29T22:13:41.020,2026-03-29T18:13:41.020,-33815.79,-47253.104999999996,-85207.5,-50019.884999999995,-13584.914999999999,-18568.35,6212.79,-63033.57,2.242658943220843,4.644444824538962,15.228181686468611,11.13035058906753,3.9070263999474606,2.1066505848800645,1.8501979854831525,5.407012071889204,-0.094665285,-0.9863256,0.000793455,-4.79164,-12.971,12.42164,71.0
1774822421.0250318,0.004900932312011719,2026-03-29T22:13:41.025,2026-03-29T18:13:41.025,-33803.28,-47240.415,-85200.39,-49990.365,-13573.71,-18564.93,6205.005,-63023.67,1.4134535339328744,5.016327663520424,14.248882340308008,15.24755863879169,3.6523119415972887,1.0551823087139536,3.117620603280003,5.397402031622551,-0.09216285,-0.999570195,0.0027465750000000002,1.55652,-11.18558,13.21516,71.0
1774822421.0250647,3.2901763916015625e-05,2026-03-29T22:13:41.025,2026-03-29T18:13:41.025,-33806.159999999996,-47246.49,-85215.95999999999,-49993.47,-13583.654999999999,-18568.44,6200.91,-63027.36,-0.16156269313229416,3.1456670702509713,6.720521890753747,12.08814589789685,1.7155497407730065,-0.43924965689652595,2.591191579820529,2.6325745730986174,-0.09216285,-0.999570195,0.0027465750000000002,1.55652,-11.18558,13.21516,71.0
1774822421.029063,0.003998279571533203,2026-03-29T22:13:41.029,2026-03-29T18:13:41.029,-33817.14,-47265.299999999996,-85263.12,-50033.34,-13602.195,-18568.98,6218.6849999999995,-63033.884999999995,-1.6505186504712273,-0.032209238243084616,-3.7655344041156065,3.2268278843160036,-0.9052969870429193,-1.5654567840510425,0.5000900004352795,-1.53914287152628,-0.09216285,-0.999570195,0.0027465750000000002,1.55652,-11.18558,13.21516,71.0
1774822421.0290911,2.8133392333984375e-05,2026-03-29T22:13:41.029,2026-03-29T18:13:41.029,-33831.54,-47285.189999999995,-85292.19,-50101.56,-13625.505,-18572.399999999998,6231.24,-63047.88,-2.2698739080489645,-3.0427939566904136,-12.300743390750158,-7.030806882776414,-2.9361074335160127,-1.7591950273490682,-2.0277616983355458,-5.0330908350755585,-0.09216285,-0.999570195,0.0027465750000000002,1.55652,-11.18558,13.21516,71.0
1774822421.0372162,0.008125066757202148,2026-03-29T22:13:41.037,2026-03-29T18:13:41.037,-33826.725,-47287.89,-85291.83,-50133.645,-13627.17,-18576.585,6206.67,-63045.765,-1.6892590276675603,-4.563109439802884,-14.98018786297472,-13.75354240297035,-3.4532007331573973,-0.9907100414041276,-3.566901012891999,-6.065236285480389,-0.09216285,-0.999570195,0.0027465750000000002,1.55652,-11.18558,13.21516,71.0
1774822421.0372374,2.1219253540039062e-05,2026-03-29T22:13:41.037,2026-03-29T18:13:41.037,-33821.055,-47284.38,-85281.795,-50134.409999999996,-13628.295,-18573.39,6212.025,-63035.415,-0.2020816050520291,-4.005898695855627,-10.709362798330718,-13.780326215669835,-2.311796357553661,0.24659292354833826,-3.178768143216721,-4.054969610681412,-0.09216285,-0.999570195,0.0027465750000000002,1.55652,-11.18558,13.21516,71.0
1774822421.0372531,1.5735626220703125e-05,2026-03-29T22:13:41.037,2026-03-29T18:13:41.037,-33823.935,-47266.244999999995,-85239.315,-50124.33,-13629.285,-18568.62,6213.24,-63045.674999999996,1.424225416224537,-1.73829986431766,-1.6521828996396242,-7.231704357091123,-0.17378530728552952,1.2305889121121123,-0.9543657974174286,0.060341808240720635,-0.09216285,-0.999570195,0.0027465750000000002,1.55652,-11.18558,13.21516,71.0
1774822421.0372598,6.67572021484375e-06,2026-03-29T22:13:41.037,2026-03-29T18:13:41.037,-33808.68,-47246.625,-85211.235,-50119.695,-13632.119999999999,-18576.945,6224.445,-63036.45,2.3413647262855717,1.1414666182022704,7.863170798583935,2.596633414216405,1.86139566518669,1.4195556968785135,1.9890277536917491,4.265500788989591,-0.09216285,-0.999570195,0.0027465750000000002,1.55652,-11.18558,13.21516,71.0
1774822421.0410848,0.003824949264526367,2026-03-29T22:13:41.041,2026-03-29T18:13:41.041,-33812.415,-47240.64,-85182.03,-50070.42,-13611.869999999999,-18568.755,6229.17,-63040.32,2.0564308486491334,3.3396775326993513,13.42772633539181,10.88967781260691,2.8216358636373435,0.748686017526234,4.073160622799956,6.454406122643578,-0.09216285,-0.999570195,0.0027465750000000002,1.55652,-11.18558,13.21516,71.0
1774822421.0411108,2.5987625122070312e-05,2026-03-29T22:13:41.041,2026-03-29T18:13:41.041,-33800.67,-47233.485,-85172.76,-50031.225,-13594.994999999999,-18565.92,6212.969999999999,-63033.975,0.6892109102506833,3.952221731467266,12.614885768250177,13.686723074599456,2.3323537811942017,-0.34757080407334867,4.098400320185589,5.480176298298544,-0.09216285,-0.999570195,0.0027465750000000002,1.55652,-11.18558,13.21516,71.0
1774822421.0448422,0.0037314891815185547,2026-03-29T22:13:41.044,2026-03-29T18:13:41.044,-33802.155,-47242.755,-85198.23,-50050.845,-13602.06,-18572.04,6205.545,-63040.905,-1.081098593828293,2.833056920943344,6.049142786910034,9.796056952401301,0.7619477988638806,-1.1954357011286587,1.9132326386578296,1.7463602357549306,-0.0903318,-1.01476791,0.004821765,11.00246,-9.06444,15.96196,71.0
1774822421.044874,3.170967102050781e-05,2026-03-29T22:13:41.044,2026-03-29T18:13:41.044,-33823.215,-47247.03,-85202.73,-50050.08,-13593.465,-18561.69,6223.679999999999,-63077.399999999994,-2.354603608110545,0.5980917438962026,-2.994578505617189,1.315270059622908,-1.01344547146839,-1.2752915673555976,-1.4529281622193626,-2.9622566057763677,-0.0903318,-1.01476791,0.004821765,11.00246,-9.06444,15.96196,71.0
1774822421.057551,0.01267695426940918,2026-03-29T22:13:41.057,2026-03-29T18:13:41.057,-33819.975,-47252.655,-85214.79,-50058.045,-13601.43,-18569.295,6225.525,-63070.47,-2.46544298994954,-1.7071611883999318,-10.223951739523969,-7.475716572424166,-2.086532142925428,-0.5259637826982275,-4.284097815243144,-6.337472259615985,-0.0903318,-1.01476791,0.004821765,11.00246,-9.06444,15.96196,71.0
1774822421.057638,8.702278137207031e-05,2026-03-29T22:13:41.057,2026-03-29T18:13:41.057,-33806.07,-47259.405,-85224.69,-50062.814999999995,-13609.08,-18578.88,6216.03,-63053.369999999995,-1.323789640402097,-3.0992027718583426,-12.37986357309383,-12.272476751457345,-1.981418383831192,0.6134407660944673,-5.05788264652056,-6.679846044151868,-0.0903318,-1.01476791,0.004821765,11.00246,-9.06444,15.96196,71.0
1774822421.0576584,2.0503997802734375e-05,2026-03-29T22:13:41.057,2026-03-29T18:13:41.057,-33795.45,-47263.229999999996,-85226.805,-50058.314999999995,-13607.775,-18576.719999999998,6225.21,-63041.939999999995,0.5282927056971377,-3.075228898240883,-8.71913751611808,-10.866734049244515,-0.866422773225627,1.450991083910843,-3.257696838663611,-3.7493692874175206,-0.0903318,-1.01476791,0.004821765,11.00246,-9.06444,15.96196,71.0
1774822421.057665,6.67572021484375e-06,2026-03-29T22:13:41.057,2026-03-29T18:13:41.057,-33807.555,-47255.22,-85194.9,-50020.56,-13576.455,-18546.57,6235.38,-63064.665,2.178123979934506,-1.7815444820537516,-1.2493691447263795,-4.1793757916039125,0.5786621969367634,1.442590598634374,0.3141999211103739,1.089594353104817,-0.0903318,-1.01476791,0.004821765,11.00246,-9.06444,15.96196,71.0
1774822421.0576727,7.62939453125e-06,2026-03-29T22:13:41.057,2026-03-29T18:13:41.057,-33816.825,-47255.805,-85178.79,-49996.979999999996,-13554.945,-18525.42,6247.08,-63067.814999999995,2.7932781742615527,0.11629032906399196,6.344613825796561,4.284188360531159,1.5533877797845883,0.5204456778879393,3.903264981198123,5.5105902330958765,-0.0903318,-1.01476791,0.004821765,11.00246,-9.06444,15.96196,71.0
1774822421.0576785,5.7220458984375e-06,2026-03-29T22:13:41.057,2026-03-29T18:13:41.057,-33835.725,-47280.465,-85216.77,-50031.854999999996,-13580.01,-18540.765,6252.344999999999,-63062.369999999995,2.038887601881658,1.7723020277468795,10.517644531986836,10.250689539219536,1.5680603067189258,-0.840880810203654,5.677401480913834,7.349312353416521,-0.0903318,-1.01476791,0.004821765,11.00246,-9.06444,15.96196,71.0
1774822421.0622828,0.004604339599609375,2026-03-29T22:13:41.062,2026-03-29T18:13:41.062,-33840.045,-47289.33,-85263.435,-50087.475,-13619.07,-18570.69,6233.445,-63071.1,0.25320609638565106,2.53667347633744,9.528361674177878,10.832901994335362,0.6870280700923698,-1.8685065459732793,4.66840764251334,5.664045871682408,-0.0903318,-1.01476791,0.004821765,11.00246,-9.06444,15.96196,71.0
1774822421.0623,1.71661376953125e-05,2026-03-29T22:13:41.062,2026-03-29T18:13:41.062,-33806.43,-47256.479999999996,-85240.215,-50079.96,-13615.92,-18570.915,6232.86,-63067.185,-1.7083079394356508,2.2029352678267013,4.1657737391555045,5.9358723114127425,-0.5360020086314965,-1.9198114921047997,1.2936639280047468,1.2120637426152367,-0.0903318,-1.01476791,0.004821765,11.00246,-9.06444,15.96196,71.0
1774822421.0653667,0.0030667781829833984,2026-03-29T22:13:41.065,2026-03-29T18:13:41.065,-33825.15,-47251.619999999995,-85225.995,-50071.994999999995,-13603.455,-18558.855,6227.505,-63096.75,-2.886651436712049,1.036611820764522,-2.763718251200168,-1.7730297622331754,-1.3829307896357272,-0.8614493771162283,-2.82089868127602,-3.8971315331428413,-0.088317645,-1.02843975,0.007385235,21.135099999999998,-8.530339999999999,19.34968,71.0
1774822421.065404,3.719329833984375e-05,2026-03-29T22:13:41.065,2026-03-29T18:13:41.065,-33840.945,-47258.415,-85236.93,-50078.564999999995,-13608.539999999999,-18561.735,6203.429999999999,-63123.075,-2.689125220232111,-0.3968111570897595,-7.883599794353792,-8.2838248659579,-1.3726611923828138,0.8172497319066203,-5.63946655385829,-7.2102518025511175,-0.088317645,-1.02843975,0.007385235,21.135099999999998,-8.530339999999999,19.34968,71.0
1774822421.0722053,0.0068013668060302734,2026-03-29T22:13:41.072,2026-03-29T18:13:41.072,-33810.615,-47252.52,-85251.87,-50082.84,-13610.07,-18564.614999999998,6203.07,-63110.924999999996,-1.184793991359423,-1.5027649147909403,-8.889631484091014,-10.308558638500841,-0.5207943327131884,2.233888358557027,-5.737953242297029,-7.114569405057342,-0.088317645,-1.02843975,0.007385235,21.135099999999998,-8.530339999999999,19.34968,71.0
1774822421.072235,2.9802322387695312e-05,2026-03-29T22:13:41.072,2026-03-29T18:13:41.072,-33813.81,-47261.52,-85244.355,-50075.64,-13606.695,-18565.965,6207.57,-63109.305,0.920754710946414,-1.8988995416887509,-5.589376518613243,-6.934925167980932,0.6781745518060183,2.576287687465007,-3.029885710253126,-3.6236016449179567,-0.088317645,-1.02843975,0.007385235,21.135099999999998,-8.530339999999999,19.34968,71.0
1774822421.0722668,3.170967102050781e-05,2026-03-29T22:13:41.072,2026-03-29T18:13:41.072,-33819.795,-47266.784999999996,-85236.075,-50070.465,-13602.33,-18565.38,6213.78,-63112.814999999995,2.6213141496642214,-1.5321142898832179,0.13045648818469266,-0.03963239963493793,1.5300988778330389,1.556177392305881,1.176249775320909,1.6192278876727186,-0.088317645,-1.02843975,0.007385235,21.135099999999998,-8.530339999999999,19.34968,71.0
1774822421.0722783,1.1444091796875e-05,2026-03-29T22:13:41.072,2026-03-29T18:13:41.072,-33829.56,-47258.865,-85215.33,-50058.765,-13595.085,-18558.27,6219.495,-63130.095,3.09471941171616,-0.6455313879100306,5.337872114366334,6.726065677507459,1.5265563158430282,-0.39605323306292645,4.82243939668516,6.1236621224759595,-0.088317645,-1.02843975,0.007385235,21.135099999999998,-8.530339999999999,19.34968,71.0
1774822421.077232,0.004953622817993164,2026-03-29T22:13:41.077,2026-03-29T18:13:41.077,-33822.18,-47250.674999999996,-85210.065,-50059.979999999996,-13609.619999999999,-18568.395,6227.099999999999,-63138.869999999995,2.10130077676298,0.3632429143336186,7.538608317548603,9.839740851729918,0.6274923613085108,-2.3153273170560547,6.1255604350087935,7.745449837072341,-0.088317645,-1.02843975,0.007385235,21.135099999999998,-8.530339999999999,19.34968,71.0
1774822421.07726,2.8133392333984375e-05,2026-03-29T22:13:41.077,2026-03-29T18:13:41.077,-33819.479999999996,-47249.865,-85204.215,-50053.275,-13615.74,-18573.524999999998,6218.054999999999,-63141.299999999996,0.10259452551977981,1.1152752313110295,5.865144042424199,7.717961659367259,-0.709645774900782,-3.184716503846676,4.4635786197901455,5.713315060781295,-0.088317645,-1.02843975,0.007385235,21.135099999999998,-8.530339999999999,19.34968,71.0
1774822421.0822785,0.005018472671508789,2026-03-29T22:13:41.082,2026-03-29T18:13:41.082,-33813.54,-47237.22,-85183.73999999999,-50042.564999999995,-13603.5,-18567.45,6200.054999999999,-63145.215,-1.9576126860503382,1.38210431128414,1.407357024197446,1.5113911171538605,-1.768610066254974,-2.472913053235007,0.6770260909744977,0.9953478207808297,-0.088317645,-1.02843975,0.007385235,21.135099999999998,-8.530339999999999,19.34968,71.0
1774822421.0822964,1.7881393432617188e-05,2026-03-29T22:13:41.082,2026-03-29T18:13:41.082,-33804.494999999995,-47229.299999999996,-85183.245,-50046.884999999995,-13597.785,-18566.19,6191.505,-63147.104999999996,-3.1042441401068643,1.1370732730487616,-3.4339542910323777,-5.510325864898578,-1.953712958482401,-0.4424982283252843,-3.3624932882233862,-4.1693483834438645,-0.088317645,-1.02843975,0.007385235,21.135099999999998,-8.530339999999999,19.34968,71.0
1774822421.0850356,0.0027391910552978516,2026-03-29T22:13:41.085,2026-03-29T18:13:41.085,-33798.915,-47244.78,-85208.895,-50042.475,-13594.365,-18570.015,6177.554999999999,-63148.049999999996,-2.7963001281269833,0.5277391607553323,-6.20595022962613,-9.657687283905295,-1.110056279406966,1.9444924147312492,-5.692876172776174,-7.344395884302479,-0.08496072,-1.035947055,0.01000974,29.833299999999998,-8.07254,22.783179999999998,71.0
1774822421.0850513,1.5735626220703125e-05,2026-03-29T22:13:41.085,2026-03-29T18:13:41.085,-33798.51,-47249.415,-85208.535,-50029.11,-13589.234999999999,-18566.19,6179.49,-63148.454999999994,-1.182902565645782,-0.2011606972916812,-5.626480311303989,-8.729262151141368,0.3827586577820613,3.4910338183943237,-5.232159347256622,-7.055735598154378,-0.08496072,-1.035947055,0.01000974,29.833299999999998,-8.07254,22.783179999999998,71.0
1774822421.0891488,0.004097461700439453,2026-03-29T22:13:41.089,2026-03-29T18:13:41.089,-33829.065,-47259.81,-85213.215,-50004.585,-13576.455,-18549.989999999998,6210.179999999999,-63179.009999999995,0.9716170780705429,-0.7975163754594367,-2.168395028909366,-3.152502425074092,1.7925029725329773,3.3713623420851273,-2.2915972868220402,-3.480658163015714,-0.08496072,-1.035947055,0.01000974,29.833299999999998,-8.07254,22.783179999999998,71.0
1774822421.0891783,2.956390380859375e-05,2026-03-29T22:13:41.089,2026-03-29T18:13:41.089,-33821.325,-47264.22,-85256.09999999999,-50016.06,-13592.88,-18567.495,6199.5599999999995,-63191.7,2.6550933340515224,-1.0766747602415339,2.256639352274537,4.2237828877868555,2.399278428264452,1.5691932004624778,1.616974699725604,1.6580526060786833,-0.08496072,-1.035947055,0.01000974,29.833299999999998,-8.07254,22.783179999999998,71.0
1774822421.092984,0.0038056373596191406,2026-03-29T22:13:41.092,2026-03-29T18:13:41.092,-33813.315,-47264.67,-85274.055,-50034.6,-13603.365,-18573.344999999998,6228.63,-63184.229999999996,3.0887279873098374,-0.967473212209383,5.321323137443424,9.579439945480352,1.8589222540804102,-1.083867766663876,4.565990811885334,5.931347444862976,-0.08496072,-1.035947055,0.01000974,29.833299999999998,-8.07254,22.783179999999998,71.0
1774822421.0930076,2.3603439331054688e-05,2026-03-29T22:13:41.093,2026-03-29T18:13:41.093,-33805.755,-47271.15,-85277.11499999999,-50069.25,-13632.48,-18598.23,6231.78,-63168.93,2.090953316615738,-0.5255300749487006,5.476588747625957,10.078796623565305,0.38277858124854136,-3.301037179722561,5.1789075649310075,7.364044160532784,-0.08496072,-1.035947055,0.01000974,29.833299999999998,-8.07254,22.783179999999998,71.0
1774822421.0972495,0.004241943359375,2026-03-29T22:13:41.097,2026-03-29T18:13:41.097,-33796.395,-47279.924999999996,-85284.045,-50126.759999999995,-13645.17,-18603.719999999998,6223.95,-63151.875,0.1522971709560014,0.08625417456017184,2.71418047321015,5.338859101726537,-1.3548757250167056,-3.9745111799711137,3.287312717728812,5.356616968862901,-0.08496072,-1.035947055,0.01000974,29.833299999999998,-8.07254,22.783179999999998,71.0
1774822421.0972655,1.5974044799804688e-05,2026-03-29T22:13:41.097,2026-03-29T18:13:41.097,-33819.075,-47285.595,-85264.11,-50116.5,-13612.365,-18564.75,6239.88,-63189.765,-1.8091484142840155,0.6476711951158822,-1.4699296207000319,-2.3384886260853333,-2.5353559078574985,-2.733964585233085,-0.041742382105253835,0.9344339787497425,-0.08496072,-1.035947055,0.01000974,29.833299999999998,-8.07254,22.783179999999998,71.0
1774822421.101177,0.003911495208740234,2026-03-29T22:13:41.101,2026-03-29T18:13:41.101,-33846.75,-47260.845,-85199.805,-50044.634999999995,-13577.805,-18530.684999999998,6260.535,-63254.43,-2.8886079032749903,0.9532027682716461,-4.8705759077264945,-9.096467991578436,-2.5845843021071695,-0.14550802274126728,-3.098138568472737,-3.778338233291608,-0.08496072,-1.035947055,0.01000974,29.833299999999998,-8.07254,22.783179999999998,71.0
1774822421.101196,1.9073486328125e-05,2026-03-29T22:13:41.101,2026-03-29T18:13:41.101,-33830.505,-47247.525,-85190.715,-50067.945,-13602.779999999999,-18548.235,6244.0199999999995,-63246.015,-2.617609565801446,0.8871613329044498,-5.709836276629785,-11.455568907532086,-1.4462369693797132,2.5541853777607066,-4.415632921117415,-6.589529305922084,-0.08496072,-1.035947055,0.01000974,29.833299999999998,-8.07254,22.783179999999998,71.0
1774822421.1049967,0.003800630569458008,2026-03-29T22:13:41.104,2026-03-29T18:13:41.104,-33821.28,-47251.439999999995,-85217.08499999999,-50123.744999999995,-13612.275,-18555.975,6210.63,-63241.47,-1.1687724665643429,0.47433362065646256,-3.5382060210081154,-8.081549974025208,0.38826763682375465,4.06011604597169,-3.4900753587402575,-6.269804527598142,-0.07897929000000001,-1.0409519250000001,0.01928706,40.88154,-6.3328999999999995,26.033559999999998,71.0
1774822421.105022,2.5272369384765625e-05,2026-03-29T22:13:41.105,2026-03-29T18:13:41.105,-33817.77,-47249.955,-85212.62999999999,-50087.34,-13595.939999999999,-18553.59,6227.73,-63244.979999999996,0.7479556611384186,-0.11990851525450744,0.5464174897138107,-0.49943453273672855,2.1031404532971725,3.6390921067740303,-0.9707488846433407,-3.093832321584871,-0.07897929000000001,-1.0409519250000001,0.01928706,40.88154,-6.3328999999999995,26.033559999999998,71.0
1774822421.109841,0.004819154739379883,2026-03-29T22:13:41.109,2026-03-29T18:13:41.109,-33813.045,-47246.265,-85199.805,-50054.04,-13595.49,-18555.93,6246.045,-63248.49,2.23765376225443,-0.6494470809269148,4.461084234785593,7.615140187213839,2.9277528722168062,1.489560508999796,1.7469373717116425,1.3481059072593597,-0.07897929000000001,-1.0409519250000001,0.01928706,40.88154,-6.3328999999999995,26.033559999999998,71.0
1774822421.109856,1.4781951904296875e-05,2026-03-29T22:13:41.109,2026-03-29T18:13:41.109,-33805.619999999995,-47238.93,-85188.19499999999,-50035.905,-13593.914999999999,-18560.385,6230.7,-63249.704999999994,2.644755312448343,-0.8894648786942286,6.191096187608193,12.229127642782005,2.4818336136117134,-1.3567433618652314,3.286333455206838,4.950985605079535,-0.07897929000000001,-1.0409519250000001,0.01928706,40.88154,-6.3328999999999995,26.033559999999998,71.0
1774822421.1214533,0.011597394943237305,2026-03-29T22:13:41.121,2026-03-29T18:13:41.121,-33803.64,-47241.0,-85196.655,-50040.18,-13592.744999999999,-18561.015,6221.969999999999,-63252.045,1.8452543556556842,-0.7383450336463637,4.804950643979776,10.950174436810773,0.9426119636038606,-3.5403832814759815,2.995935965478309,6.103221278588992,-0.07897929000000001,-1.0409519250000001,0.01928706,40.88154,-6.3328999999999995,26.033559999999998,71.0
1774822421.1214724,1.9073486328125e-05,2026-03-29T22:13:41.121,2026-03-29T18:13:41.121,-33807.78,-47249.189999999995,-85210.56,-50049.045,-13598.055,-18566.46,6216.344999999999,-63263.115,0.2746841931775741,-0.2700452560509069,0.9273797186092104,4.241945060003777,-1.0352390893361152,-4.034617112831847,1.231238099876759,4.414644925420831,-0.07897929000000001,-1.0409519250000001,0.01928706,40.88154,-6.3328999999999995,26.033559999999998,71.0
1774822421.1214917,1.9311904907226562e-05,2026-03-29T22:13:41.121,2026-03-29T18:13:41.121,-33806.835,-47252.564999999995,-85219.245,-50049.54,-13596.345,-18564.165,6218.054999999999,-63272.52,-1.3075691576300104,0.29412088871387315,-3.560300033805975,-4.751625010170857,-2.605359406464539,-2.6348010571186022,-0.9128999806814291,0.8322220828062119,-0.07897929000000001,-1.0409519250000001,0.01928706,40.88154,-6.3328999999999995,26.033559999999998,71.0
1774822421.1214976,5.9604644775390625e-06,2026-03-29T22:13:41.121,2026-03-29T18:13:41.121,-33810.075,-47264.534999999996,-85254.20999999999,-50064.21,-13600.439999999999,-18563.76,6218.505,-63273.78,-2.1908641342913886,0.6875199065558372,-6.441368530404249,-11.701010455988984,-3.0928526378800933,-0.04058711128771303,-2.24638264048938,-2.8801519834600344,-0.07897929000000001,-1.0409519250000001,0.01928706,40.88154,-6.3328999999999995,26.033559999999998,71.0
1774822421.1215043,6.67572021484375e-06,2026-03-29T22:13:41.121,2026-03-29T18:13:41.121,-33829.244999999995,-47262.915,-85250.205,-50059.979999999996,-13585.859999999999,-18547.155,6224.804999999999,-63302.805,-2.0376502144225106,0.7280560047186876,-6.252247584341618,-13.185105690958695,-2.2790229135864815,2.5004220862959166,-2.1375352704820614,-5.016088606364463,-0.07897929000000001,-1.0409519250000001,0.01928706,40.88154,-6.3328999999999995,26.033559999999998,71.0
1774822421.1215098,5.4836273193359375e-06,2026-03-29T22:13:41.121,2026-03-29T18:13:41.121,-33824.07,-47249.325,-85218.3,-50052.104999999996,-13579.515,-18543.059999999998,6225.795,-63313.965,-1.009028263588827,0.4108943711732874,-3.0062551653635823,-8.367692356134159,-0.4909672320326035,3.8032036594985277,-0.8200743446062669,-4.719325287786577,-0.07897929000000001,-1.0409519250000001,0.01928706,40.88154,-6.3328999999999995,26.033559999999998,71.0
1774822421.1284356,0.006925821304321289,2026-03-29T22:13:41.128,2026-03-29T18:13:41.128,-33813.81,-47246.534999999996,-85206.23999999999,-50060.475,-13586.265,-18548.684999999998,6234.48,-63306.18,0.35329535167297327,-0.08665939157336107,1.7983257337712828,0.5622858063070877,1.5359409726279292,3.30658371009577,0.7991006648542285,-2.32268770640274,-0.07507305,-1.04345436,0.03063957,50.617419999999996,-4.07442,29.94012,71.0
1774822421.1284564,2.0742416381835938e-05,2026-03-29T22:13:41.128,2026-03-29T18:13:41.128,-33802.155,-47241.36,-85193.81999999999,-50062.409999999996,-13595.4,-18556.695,6228.36,-63302.67,1.4127963400314012,-0.4956863694002055,5.887960865092923,9.408410494727724,2.961553412998895,1.3155858530515374,1.702953595736709,0.8981549223714491,-0.07507305,-1.04345436,0.03063957,50.617419999999996,-4.07442,29.94012,71.0
1774822421.1339672,0.005510807037353516,2026-03-29T22:13:41.133,2026-03-29T18:13:41.133,-33798.24,-47244.015,-85199.715,-50059.799999999996,-13606.47,-18568.305,6219.405,-63305.189999999995,1.7406972964593022,-0.5981680619269566,7.29784728502017,13.959187851935262,3.1850496510045723,-1.1797842890758952,1.3672829445744503,3.3979328802902162,-0.07507305,-1.04345436,0.03063957,50.617419999999996,-4.07442,29.94012,71.0
1774822421.133989,2.193450927734375e-05,2026-03-29T22:13:41.133,2026-03-29T18:13:41.133,-33812.415,-47249.775,-85201.83,-50046.884999999995,-13602.195,-18567.719999999998,6209.19,-63325.619999999995,1.2890777098523571,-0.3468335716458016,5.31013437383454,12.00063467835114,2.0916234138613397,-3.003948646425268,0.058320976647158164,4.108845881887535,-0.07507305,-1.04345436,0.03063957,50.617419999999996,-4.07442,29.94012,71.0
1774822421.1340113,2.2172927856445312e-05,2026-03-29T22:13:41.134,2026-03-29T18:13:41.134,-33834.869999999995,-47251.034999999996,-85189.815,-50023.979999999996,-13574.34,-18542.565,6224.445,-63357.075,0.3648455572794764,0.10471314173417125,0.8005700402893536,4.3840862306758,0.10449289586406145,-3.35836828653302,-1.341383846495982,2.8978291246631063,-0.07507305,-1.04345436,0.03063957,50.617419999999996,-4.07442,29.94012,71.0
1774822421.1340194,8.106231689453125e-06,2026-03-29T22:13:41.134,2026-03-29T18:13:41.134,-33825.465,-47250.854999999996,-85198.275,-50034.375,-13584.465,-18550.079999999998,6243.75,-63341.595,-0.5605832121470348,0.4832348170825151,-4.16702970120976,-5.362175989534063,-1.978451438404495,-2.174248726535722,-1.8743118601303175,0.5380015662862406,-0.07507305,-1.04345436,0.03063957,50.617419999999996,-4.07442,29.94012,71.0
1774822421.1404777,0.006458282470703125,2026-03-29T22:13:41.140,2026-03-29T18:13:41.140,-33830.955,-47261.744999999995,-85217.44499999999,-50050.755,-13603.095,-18564.885,6222.195,-63353.655,-1.0936130337772785,0.549276748516511,-7.302164101432858,-12.691802787163928,-3.3007715877387014,-0.0983524804620035,-1.1010730860682283,-1.7501505610145391,-0.07507305,-1.04345436,0.03063957,50.617419999999996,-4.07442,29.94012,71.0
1774822421.140509,3.123283386230469e-05,2026-03-29T22:13:41.140,2026-03-29T18:13:41.140,-33816.51,-47269.845,-85238.86499999999,-50067.225,-13621.14,-18578.79,6204.195,-63362.384999999995,-1.0873602659232402,0.2402004213193801,-7.15006121804225,-14.179387566462404,-3.2940929376001233,1.8586644542687083,0.6029587696260674,-2.9267483259148945,-0.07507305,-1.04345436,0.03063957,50.617419999999996,-4.07442,29.94012,71.0
1774822421.1405375,2.86102294921875e-05,2026-03-29T22:13:41.140,2026-03-29T18:13:41.140,-33813.9,-47272.32,-85237.29,-50056.29,-13612.949999999999,-18572.625,6212.429999999999,-63365.354999999996,-0.663871435960731,-0.27981932288604233,-3.759806897337936,-9.125452171915976,-1.9185226667854551,2.8208145580760813,2.2305476133719595,-2.6077428750139355,-0.07507305,-1.04345436,0.03063957,50.617419999999996,-4.07442,29.94012,71.0
1774822421.14055,1.239776611328125e-05,2026-03-29T22:13:41.140,2026-03-29T18:13:41.140,-33812.865,-47260.755,-85212.94499999999,-50035.725,-13594.59,-18557.64,6226.2,-63364.905,-0.1008147169886695,-0.6988164572473755,1.345653173695029,0.12640819182170843,0.3026023439848439,2.443536445607428,2.7154823289770853,-1.1692725506374622,-0.07507305,-1.04345436,0.03063957,50.617419999999996,-4.07442,29.94012,71.0
1774822421.1467571,0.00620722770690918,2026-03-29T22:13:41.146,2026-03-29T18:13:41.146,-33814.755,-47252.61,-85197.555,-50020.2,-13579.244999999999,-18549.045,6229.755,-63374.985,0.3372187255560518,-0.7301997849061066,5.873161227003679,9.298851888802384,2.4760229520323103,1.0270337883641232,1.5774000546306752,0.5327524035899361,-0.07727031,-1.03979226,0.041564835,60.368559999999995,-2.3653,34.1061,71.0
1774822421.1467783,2.1219253540039062e-05,2026-03-29T22:13:41.146,2026-03-29T18:13:41.146,-33818.895,-47265.884999999995,-85219.965,-50020.65,-13574.564999999999,-18553.95,6217.38,-63382.365,0.5245385329063105,-0.288219531327101,7.8031593600511675,14.181871543879536,3.6922830446332235,-0.6844520714924729,-0.7342096198422455,1.6476192043626692,-0.07727031,-1.03979226,0.041564835,60.368559999999995,-2.3653,34.1061,71.0
1774822421.1498263,0.003047943115234375,2026-03-29T22:13:41.149,2026-03-29T18:13:41.149,-33816.735,-47271.195,-85236.165,-50054.759999999995,-13585.725,-18564.975,6180.3,-63382.005,0.4967257928950308,0.4357868162966615,6.292684040962135,12.57926008663396,3.403378029709688,-1.893577779801975,-3.0147744280134985,1.7527784347039885,-0.07727031,-1.03979226,0.041564835,60.368559999999995,-2.3653,34.1061,71.0
1774822421.1498604,3.409385681152344e-05,2026-03-29T22:13:41.149,2026-03-29T18:13:41.149,-33816.869999999995,-47258.595,-85239.54,-50069.79,-13580.91,-18560.925,6166.755,-63396.314999999995,0.37620994473911784,1.050728321799929,2.0331795236649137,5.2943687315167836,1.6693550256398393,-2.1257605384626586,-3.931714879736296,1.0055176882547057,-0.07727031,-1.03979226,0.041564835,60.368559999999995,-2.3653,34.1061,71.0
1774822421.1528344,0.0029740333557128906,2026-03-29T22:13:41.152,2026-03-29T18:13:41.152,-33823.619999999995,-47246.31,-85252.14,-50075.729999999996,-13576.635,-18543.285,6200.235,-63422.64,0.2636154111273578,1.1686572178018866,-3.083384965104547,-4.286162510560666,-0.837107263169855,-1.4110136355862104,-2.7774271291054813,-0.025577301134172756,-0.07727031,-1.03979226,0.041564835,60.368559999999995,-2.3653,34.1061,71.0
1774822421.1528516,1.71661376953125e-05,2026-03-29T22:13:41.152,2026-03-29T18:13:41.152,-33821.82,-47259.765,-85283.955,-50094.494999999995,-13608.99,-18565.29,6225.66,-63416.924999999996,0.17044767866144206,0.6308848019916673,-6.821675032092093,-11.790251500654394,-3.0850640350524783,-0.20501533484390805,0.06815720331621916,-0.7259108367242919,-0.07727031,-1.03979226,0.041564835,60.368559999999995,-2.3653,34.1061,71.0
1774822421.1663587,0.01350712776184082,2026-03-29T22:13:41.166,2026-03-29T18:13:41.166,-33824.295,-47266.244999999995,-85273.515,-50078.34,-13616.505,-18574.829999999998,6216.12,-63424.53,0.034136739318352725,-0.3688085935119264,-7.587721253823287,-13.875743933774128,-4.106568363139949,0.8825581321674435,3.2448450166620155,-0.7802498562728968,-0.07727031,-1.03979226,0.041564835,60.368559999999995,-2.3653,34.1061,71.0
1774822421.1664033,4.458427429199219e-05,2026-03-29T22:13:41.166,2026-03-29T18:13:41.166,-33827.13,-47266.965,-85243.905,-50089.86,-13616.82,-18571.59,6211.08,-63431.865,-0.20190624342164074,-1.3452768539177407,-5.104091487925911,-9.725331890002874,-3.414482301242653,1.396711252482548,5.070452069980716,-0.31114429738545396,-0.07727031,-1.03979226,0.041564835,60.368559999999995,-2.3653,34.1061,71.0
1774822421.1664357,3.24249267578125e-05,2026-03-29T22:13:41.166,2026-03-29T18:13:41.166,-33823.305,-47260.799999999996,-85221.58499999999,-50082.435,-13600.305,-18556.559999999998,6218.594999999999,-63432.63,-0.5055382711984209,-1.754236403771408,-0.492372003351977,-1.3496510810559108,-1.2359707906928703,1.2264562331033793,4.427715451287348,0.24824446607786646,-0.07727031,-1.03979226,0.041564835,60.368559999999995,-2.3653,34.1061,71.0
1774822421.1664617,2.5987625122070312e-05,2026-03-29T22:13:41.166,2026-03-29T18:13:41.166,-33833.115,-47263.229999999996,-85204.305,-50063.04,-13604.445,-18559.17,6237.09,-63448.74,-0.736140402023111,-1.2858758902531486,4.2491547161800005,7.403505614096677,1.5511037899827744,0.5969660957311561,1.4136119423994291,0.45365984890189953,-0.07727031,-1.03979226,0.041564835,60.368559999999995,-2.3653,34.1061,71.0
1774822421.1664767,1.5020370483398438e-05,2026-03-29T22:13:41.166,2026-03-29T18:13:41.166,-33831.36,-47265.299999999996,-85198.31999999999,-50029.604999999996,-13612.095,-18577.53,6225.57,-63460.845,-0.7129626034785019,-0.06475476351533078,7.122471580815138,12.638763934724848,3.7685329793076274,-0.10347378740933871,-2.614392579586373,0.1367915942037958,-0.08251932000000001,-1.035947055,0.05566392,65.02286,0.9919,35.31164,71.0
1774822421.1665032,2.6464462280273438e-05,2026-03-29T22:13:41.166,2026-03-29T18:13:41.166,-33817.905,-47249.955,-85181.76,-49996.979999999996,-13597.515,-18576.719999999998,6213.014999999999,-63458.954999999994,-0.336870089575394,1.3636527926032413,6.971710214375076,12.15938078330949,4.437094332889203,-0.5486515518148624,-5.658470213218864,-0.4890786292058257,-0.08251932000000001,-1.035947055,0.05566392,65.02286,0.9919,35.31164,71.0
1774822421.1693015,0.002798318862915039,2026-03-29T22:13:41.169,2026-03-29T18:13:41.169,-33814.71,-47239.56,-85169.52,-49974.57,-13573.71,-18557.55,6215.219999999999,-63463.5,0.31073846996526894,2.275283181695352,3.935999175955345,6.381576156285412,3.212625053165345,-0.6259930302817567,-6.079294060021162,-0.9635614242238408,-0.08251932000000001,-1.035947055,0.05566392,65.02286,0.9919,35.31164,71.0
1774822421.1693192,1.7642974853515625e-05,2026-03-29T22:13:41.169,2026-03-29T18:13:41.169,-33819.119999999995,-47245.545,-85187.52,-50013.765,-13585.635,-18557.37,6216.03,-63472.725,0.9638277080005153,2.131940591381601,-0.6568136750677658,-1.9592025355601477,0.5626725845387932,-0.4445351747416345,-3.470619903668063,-0.8721006574749164,-0.08251932000000001,-1.035947055,0.05566392,65.02286,0.9919,35.31164,71.0
1774822421.1731007,0.003781557083129883,2026-03-29T22:13:41.173,2026-03-29T18:13:41.173,-33813.36,-47248.2,-85219.965,-50101.244999999995,-13606.244999999999,-18556.605,6231.195,-63471.42,1.2836348960468513,0.8853305141877175,-4.882368860976638,-9.121649683424126,-2.4070377116315553,-0.21706777355247692,1.0538399656721837,-0.12374398477272414,-0.08251932000000001,-1.035947055,0.05566392,65.02286,0.9919,35.31164,71.0
1774822421.17312,1.9311904907226562e-05,2026-03-29T22:13:41.173,2026-03-29T18:13:41.173,-33802.335,-47246.805,-85232.025,-50119.604999999996,-13600.98,-18555.39,6237.63,-63467.1,1.0380433450040878,-0.9465550275027351,-7.028658783263857,-12.052933230449963,-4.414845287343178,-0.10299796857548682,5.3407231805649875,0.9530214241406172,-0.08251932000000001,-1.035947055,0.05566392,65.02286,0.9919,35.31164,71.0
1774822421.1773975,0.004277467727661133,2026-03-29T22:13:41.177,2026-03-29T18:13:41.177,-33793.92,-47245.994999999995,-85218.61499999999,-50078.25,-13593.689999999999,-18559.53,6231.375,-63459.45,0.25198004872977586,-2.4921542939128374,-6.280924544971219,-9.689179848740219,-4.560401263560727,-0.11172680833784049,7.23467010745772,1.7619365924115697,-0.08251932000000001,-1.035947055,0.05566392,65.02286,0.9919,35.31164,71.0
1774822421.177478,8.058547973632812e-05,2026-03-29T22:13:41.177,2026-03-29T18:13:41.177,-33812.82,-47255.625,-85212.045,-50063.895,-13605.57,-18571.68,6213.735,-63474.884999999995,-0.7630720425462515,-2.9424962105222683,-3.0140844745813014,-3.3089853224113446,-2.7324259067461982,-0.12073208292040667,5.667340050039584,1.7640957374501387,-0.08251932000000001,-1.035947055,0.05566392,65.02286,0.9919,35.31164,71.0
1774822421.1825664,0.005088329315185547,2026-03-29T22:13:41.182,2026-03-29T18:13:41.182,-33834.015,-47266.29,-85222.215,-50066.865,-13608.539999999999,-18573.84,6215.085,-63503.189999999995,-1.533550958885197,-1.9714295380484408,1.4017946149459422,4.156861645777275,0.31982240631842074,0.011937482442066319,1.2451587966834596,0.8010170324634648,-0.08251932000000001,-1.035947055,0.05566392,65.02286,0.9919,35.31164,71.0
1774822421.1825857,1.9311904907226562e-05,2026-03-29T22:13:41.182,2026-03-29T18:13:41.182,-33836.985,-47274.57,-85231.75499999999,-50070.42,-13606.154999999999,-18571.725,6218.37,-63518.985,-1.651822533750946,0.05735234559377432,5.179748505367798,9.487647722393481,3.2937555788602277,0.3196721003212613,-3.981952631626202,-0.7671693698490131,-0.08251932000000001,-1.035947055,0.05566392,65.02286,0.9919,35.31164,71.0
1774822421.1867375,0.004151821136474609,2026-03-29T22:13:41.186,2026-03-29T18:13:41.186,-33839.145,-47271.78,-85230.94499999999,-50066.189999999995,-13603.095,-18568.44,6223.545,-63532.53,-0.994602809105597,2.2196102514380547,6.832428221910395,10.566354178224893,4.893236053961215,0.6716333254609437,-7.484101053032308,-2.1987334074760048,-0.088317645,-1.03002666,0.069640935,64.9313,4.79164,38.867219999999996,71.0
1774822421.186758,2.0503997802734375e-05,2026-03-29T22:13:41.186,2026-03-29T18:13:41.186,-33832.53,-47268.314999999995,-85228.11,-50067.765,-13606.83,-18572.265,6218.73,-63528.615,0.1863340572707832,3.454592772836896,5.743874902611755,7.1998777294573,4.398225202491925,0.8321809021572377,-7.487899211435083,-2.7280749658462993,-0.088317645,-1.03002666,0.069640935,64.9313,4.79164,38.867219999999996,71.0
1774822421.1893344,0.0025763511657714844,2026-03-29T22:13:41.189,2026-03-29T18:13:41.189,-33824.385,-47259.99,-85220.81999999999,-50059.439999999995,-13599.404999999999,-18569.385,6210.764999999999,-63525.509999999995,1.3599837685677993,3.087978145736389,2.385100049486322,1.0601368099458612,1.9914141545894528,0.6061863879434463,-3.876077879569948,-1.9683600362685785,-0.088317645,-1.03002666,0.069640935,64.9313,4.79164,38.867219999999996,71.0
1774822421.1893616,2.7179718017578125e-05,2026-03-29T22:13:41.189,2026-03-29T18:13:41.189,-33825.33,-47261.79,-85221.135,-50051.07,-13594.904999999999,-18570.555,6203.16,-63530.505,1.962182087962466,1.1946448910662346,-1.8933422227497048,-5.153887619849985,-1.3076125278544497,-0.01545422377646522,1.7068474305608543,-0.1498732125304001,-0.088317645,-1.03002666,0.069640935,64.9313,4.79164,38.867219999999996,71.0
1774822421.1934917,0.004130125045776367,2026-03-29T22:13:41.193,2026-03-29T18:13:41.193,-33826.409999999996,-47263.275,-85219.155,-50043.15,-13597.515,-18571.41,6204.96,-63537.75,1.674240011401936,-1.3920673063108164,-5.398895253588556,-8.909844098531769,-4.077646867822536,-0.8030847637669255,6.614622298619841,1.9407707456553287,-0.088317645,-1.03002666,0.069640935,64.9313,4.79164,38.867219999999996,71.0
1774822421.1935213,2.956390380859375e-05,2026-03-29T22:13:41.193,2026-03-29T18:13:41.193,-33830.82,-47267.865,-85224.42,-50040.045,-13597.335,-18565.02,6208.5599999999995,-63544.32,0.5931204413646789,-3.4497483401486004,-6.754262150389621,-8.86016063953485,-5.112817074025105,-1.373477586818013,8.468088333599583,3.308696179341789,-0.088317645,-1.03002666,0.069640935,64.9313,4.79164,38.867219999999996,71.0
1774822421.1985416,0.0050203800201416016,2026-03-29T22:13:41.198,2026-03-29T18:13:41.198,-33828.119999999995,-47269.17,-85254.93,-50054.49,-13597.83,-18558.765,6216.885,-63541.305,-0.7983160238153497,-3.950115430720888,-5.426598130615405,-5.283435462543737,-3.9508552459541235,-1.380516168540132,6.31759338274338,3.2279060016886967,-0.088317645,-1.03002666,0.069640935,64.9313,4.79164,38.867219999999996,71.0
1774822421.19856,1.8358230590820312e-05,2026-03-29T22:13:41.198,2026-03-29T18:13:41.198,-33831.225,-47271.195,-85284.72,-50071.86,-13592.295,-18556.469999999998,6218.37,-63547.515,-1.853507785266453,-2.5752091423455465,-1.9323424034791203,0.1687792888708382,-1.0795339927450256,-0.714508468486327,1.1269527305199298,1.6170323998432492,-0.088317645,-1.03002666,0.069640935,64.9313,4.79164,38.867219999999996,71.0
1774822421.2014687,0.0029087066650390625,2026-03-29T22:13:41.201,2026-03-29T18:13:41.201,-33830.685,-47272.725,-85278.95999999999,-50092.875,-13590.09,-18554.625,6219.135,-63553.454999999994,-2.071249784803547,0.0937739885898283,2.3584794517632006,5.241380639726915,2.270839939578696,0.40104808430419775,-4.6665242192825245,-0.876984952027204,-0.088317645,-1.03002666,0.069640935,64.9313,4.79164,38.867219999999996,71.0
1774822421.2014878,1.9073486328125e-05,2026-03-29T22:13:41.201,2026-03-29T18:13:41.201,-33821.235,-47259.854999999996,-85241.43,-50109.119999999995,-13589.324999999999,-18548.55,6212.565,-63542.88,-1.3397453140242157,2.822957454651581,5.74761830559336,7.999727550815469,4.6589386388686815,1.4799973200058925,-8.310869013964599,-3.1430203518121327,-0.088317645,-1.03002666,0.069640935,64.9313,4.79164,38.867219999999996,71.0
1774822421.2059407,0.004452943801879883,2026-03-29T22:13:41.205,2026-03-29T18:13:41.205,-33827.895,-47259.09,-85214.11499999999,-50104.305,-13597.47,-18558.0,6184.215,-63548.865,0.005948801809127334,4.302799852926477,6.869251625205119,7.534897783681396,5.055897226836575,1.9910186915214703,-8.059270419492242,-4.106923238317899,-0.09863256000000001,-1.011777195,0.0781248,55.95842,3.4640199999999997,41.125699999999995,71.0
1774822421.205972,3.123283386230469e-05,2026-03-29T22:13:41.205,2026-03-29T18:13:41.205,-33814.35,-47249.595,-85194.405,-50074.515,-13605.164999999999,-18569.655,6178.635,-63546.795,1.342582974795409,3.782740224189172,5.23562716961801,4.2127698869526355,3.289261027657903,1.6217838399218905,-4.012037900145631,-3.240756378437278,-0.09863256000000001,-1.011777195,0.0781248,55.95842,3.4640199999999997,41.125699999999995,71.0
1774822421.2093277,0.003355741500854492,2026-03-29T22:13:41.209,2026-03-29T18:13:41.209,-33798.24,-47248.244999999995,-85192.92,-50046.435,-13611.644999999999,-18583.2,6216.929999999999,-63540.72,2.0557526678465012,1.4529303251852115,1.4523776440498397,-0.567022638836536,0.1156001066088497,0.4573044337517766,1.9271347489849397,-0.8389246797592429,-0.09863256000000001,-1.011777195,0.0781248,55.95842,3.4640199999999997,41.125699999999995,71.0
1774822421.2093463,1.8596649169921875e-05,2026-03-29T22:13:41.209,2026-03-29T18:13:41.209,-33825.015,-47268.494999999995,-85208.67,-50054.22,-13617.675,-18588.239999999998,6231.78,-63561.735,1.8296786412597639,-1.621762272384102,-2.9933174639451403,-4.956188126311784,-3.10737000865513,-1.0252237034229064,6.9590240001176396,2.078233645875301,-0.09863256000000001,-1.011777195,0.0781248,55.95842,3.4640199999999997,41.125699999999995,71.0
1774822421.214092,0.0047457218170166016,2026-03-29T22:13:41.214,2026-03-29T18:13:41.214,-33833.52,-47268.314999999995,-85215.59999999999,-50055.255,-13604.49,-18575.28,6225.075,-63575.729999999996,0.7894980211296339,-3.994756623824872,-6.30551329345609,-7.345229483460303,-5.00488116496028,-2.1559683966550716,8.721841251570169,4.202751873141615,-0.09863256000000001,-1.011777195,0.0781248,55.95842,3.4640199999999997,41.125699999999995,71.0
1774822421.2141144,2.2411346435546875e-05,2026-03-29T22:13:41.214,2026-03-29T18:13:41.214,-33828.84,-47271.689999999995,-85228.83,-50063.939999999995,-13607.1,-18578.07,6215.76,-63567.314999999995,-0.5692329967384472,-4.526593826593307,-7.099480057305678,-6.913988391530383,-4.772400147878409,-2.3805122142364668,6.408083516399229,4.528397115755732,-0.09863256000000001,-1.011777195,0.0781248,55.95842,3.4640199999999997,41.125699999999995,71.0
1774822421.2249756,0.01086115837097168,2026-03-29T22:13:41.224,2026-03-29T18:13:41.224,-33818.13,-47268.36,-85232.205,-50062.275,-13609.484999999999,-18583.739999999998,6202.485,-63554.22,-1.6236736674269188,-2.937740680590489,-4.983333671558929,-3.881457160971612,-2.5148869728547107,-1.532128591169317,1.1333586573783123,2.8244683035611815,-0.09863256000000001,-1.011777195,0.0781248,55.95842,3.4640199999999997,41.125699999999995,71.0
1774822421.2250073,3.170967102050781e-05,2026-03-29T22:13:41.225,2026-03-29T18:13:41.225,-33819.255,-47263.634999999995,-85224.78,-50053.814999999995,-13607.595,-18583.065,6182.594999999999,-63563.579999999994,-1.9168733107171008,0.04551513450759381,-0.755522010523863,0.6009899631152262,0.8038254981076765,0.06557774673544875,-4.610370152353662,-0.22742820981844314,-0.09863256000000001,-1.011777195,0.0781248,55.95842,3.4640199999999997,41.125699999999995,71.0
1774822421.225036,2.86102294921875e-05,2026-03-29T22:13:41.225,2026-03-29T18:13:41.225,-33826.5,-47248.83,-85197.42,-50026.32,-13584.33,-18558.809999999998,6184.035,-63588.24,-1.3592524530708787,3.027970081443883,3.883155978149215,4.8628901110472205,3.7754721746257274,1.7232675239579422,-8.144837461548468,-3.3073649849398916,-0.09863256000000001,-1.011777195,0.0781248,55.95842,3.4640199999999997,41.125699999999995,71.0
1774822421.225048,1.2159347534179688e-05,2026-03-29T22:13:41.225,2026-03-29T18:13:41.225,-33822.99,-47251.979999999996,-85206.69,-50035.994999999995,-13590.18,-18561.465,6209.28,-63577.799999999996,-0.2477927910717613,4.60668339156343,7.007077391515385,7.301039598396719,5.14582233030937,2.688543521206834,-7.864373145884075,-5.030630296900326,-0.09863256000000001,-1.011777195,0.0781248,55.95842,3.4640199999999997,41.125699999999995,71.0
1774822421.228227,0.003178834915161133,2026-03-29T22:13:41.228,2026-03-29T18:13:41.228,-33832.395,-47269.799999999996,-85235.22,-50074.02,-13606.74,-18569.7,6246.585,-63580.365,0.8949236716849308,4.039107540514461,7.266699604449867,6.955334953599796,4.342497172859279,2.4910999528457944,-3.967257238339759,-4.570532548001537,-0.105895725,-0.99072012,0.08630349,38.54676,5.02054,41.4309,71.0
1774822421.2282572,3.0279159545898438e-05,2026-03-29T22:13:41.228,2026-03-29T18:13:41.228,-33836.85,-47278.305,-85250.97,-50077.89,-13598.144999999999,-18566.64,6241.59,-63585.494999999995,1.573526321724268,1.596180157055188,4.478918006316888,3.8834131324978065,1.7110762463023292,1.1704047766054664,1.67410263429892,-2.050723047316003,-0.105895725,-0.99072012,0.08630349,38.54676,5.02054,41.4309,71.0
1774822421.228282,2.47955322265625e-05,2026-03-29T22:13:41.228,2026-03-29T18:13:41.228,-33831.36,-47274.075,-85242.23999999999,-50066.325,-13590.99,-18563.13,6226.11,-63584.055,1.5388743905556252,-1.5693565379911951,-0.25512994841994746,-0.8106073780266564,-1.6360715292417713,-0.7235526698962503,6.4228125410607975,1.4769562792211552,-0.105895725,-0.99072012,0.08630349,38.54676,5.02054,41.4309,71.0
1774822421.228294,1.1920928955078125e-05,2026-03-29T22:13:41.228,2026-03-29T18:13:41.228,-33825.915,-47274.93,-85233.23999999999,-50073.479999999996,-13602.105,-18570.465,6217.83,-63579.24,0.8742367664664257,-3.9744414683146383,-4.976734895828102,-5.336742213368448,-4.29076068686155,-2.363223184146418,8.120188430985968,4.4722038338572725,-0.105895725,-0.99072012,0.08630349,38.54676,5.02054,41.4309,71.0
1774822421.2392128,0.010918855667114258,2026-03-29T22:13:41.239,2026-03-29T18:13:41.239,-33832.034999999996,-47276.145,-85227.075,-50071.14,-13602.824999999999,-18572.309999999998,6216.525,-63576.27,-0.07792857223670117,-4.50978390266764,-7.680152247854735,-7.8747878468413095,-5.140088361231092,-3.009293405036539,6.071097670995944,5.579500943085922,-0.105895725,-0.99072012,0.08630349,38.54676,5.02054,41.4309,71.0
1774822421.2393324,0.00011968612670898438,2026-03-29T22:13:41.239,2026-03-29T18:13:41.239,-33842.07,-47264.265,-85210.37999999999,-50046.93,-13588.695,-18563.04,6219.09,-63587.115,-0.896620242082397,-2.958084792316564,-7.171602119576466,-7.300902237102431,-3.8305109504792765,-2.345658675431568,1.3206252825329443,4.240723214700673,-0.105895725,-0.99072012,0.08630349,38.54676,5.02054,41.4309,71.0
1774822421.2393918,5.936622619628906e-05,2026-03-29T22:13:41.239,2026-03-29T18:13:41.239,-33821.955,-47257.74,-85226.44499999999,-50063.445,-13606.47,-18580.005,6208.605,-63592.829999999994,-1.2734294226843759,-0.08124544551063055,-3.6052871839533296,-3.6978888682333344,-0.9129520874385707,-0.6312523136751202,-3.8828957062365617,0.9711068812118673,-0.105895725,-0.99072012,0.08630349,38.54676,5.02054,41.4309,71.0
1774822421.239421,2.9087066650390625e-05,2026-03-29T22:13:41.239,2026-03-29T18:13:41.239,-33822.45,-47278.395,-85250.79,-50078.07,-13619.519999999999,-18592.245,6198.4349999999995,-63591.39,-1.1248850604100635,2.757909327418889,1.548652689899965,1.5891220337039593,2.389405267762297,1.402848687563754,-7.160634671545217,-2.8355924042117686,-0.105895725,-0.99072012,0.08630349,38.54676,5.02054,41.4309,71.0
1774822421.242987,0.0035660266876220703,2026-03-29T22:13:41.242,2026-03-29T18:13:41.242,-33824.97,-47287.575,-85262.48999999999,-50079.375,-13617.585,-18590.489999999998,6196.86,-63586.259999999995,-0.587275508901026,4.249879115459571,6.1087919617676105,6.426404200187672,4.69266363476265,2.8688141123259867,-7.095861540269508,-5.500850892492873,-0.105895725,-0.99072012,0.08630349,38.54676,5.02054,41.4309,71.0
1774822421.2430072,2.0265579223632812e-05,2026-03-29T22:13:41.243,2026-03-29T18:13:41.243,-33840.045,-47289.96,-85272.48,-50080.5,-13602.644999999999,-18573.03,6199.469999999999,-63605.564999999995,0.08220551805298325,3.750861662918294,8.111906308640307,8.74563287089894,5.0301243980038,3.1120948181712165,-3.8424488790617923,-5.8016485369491395,-0.105895725,-0.99072012,0.08630349,38.54676,5.02054,41.4309,71.0
1774822421.2460315,0.0030243396759033203,2026-03-29T22:13:41.246,2026-03-29T18:13:41.246,-33836.265,-47280.195,-85256.235,-50076.314999999995,-13603.23,-18571.86,6200.01,-63606.42,0.6332730492504578,1.5631147008516686,6.668155439055049,7.440384405250847,3.2566057521769762,2.003735500293003,1.0093957595208392,-3.531177826492559,-0.11108370000000001,-0.96972408,0.09417700500000001,16.22138,5.508859999999999,39.172419999999995,71.0
1774822421.2460663,3.4809112548828125e-05,2026-03-29T22:13:41.246,2026-03-29T18:13:41.246,-33830.369999999995,-47266.424999999996,-85223.7,-50067.18,-13605.48,-18573.57,6202.3949999999995,-63600.93,0.9137518962062928,-1.2400046409472008,2.364356571843326,2.9100255664655315,0.11094476024780535,0.004639269320947284,5.215382911442634,0.3765857858521224,-0.11108370000000001,-0.96972408,0.09417700500000001,16.22138,5.508859999999999,39.172419999999995,71.0
1774822421.2494135,0.003347158432006836,2026-03-29T22:13:41.249,2026-03-29T18:13:41.249,-33824.07,-47264.04,-85219.425,-50083.784999999996,-13607.234999999999,-18572.265,6219.585,-63591.615,0.8921848003896372,-3.3460214382459585,-2.97147117055372,-3.0239270506583913,-3.09035824007026,-2.028630021536193,6.920148380908809,4.228460551134494,-0.11108370000000001,-0.96972408,0.09417700500000001,16.22138,5.508859999999999,39.172419999999995,71.0
1774822421.2494323,1.8835067749023438e-05,2026-03-29T22:13:41.249,2026-03-29T18:13:41.249,-33828.119999999995,-47270.205,-85225.905,-50091.39,-13608.494999999999,-18577.079999999998,6224.355,-63591.57,0.6239652373780409,-3.8265520100758716,-7.051797219736653,-7.841388298452815,-5.002398433390704,-3.2133332051185026,5.474201707296599,6.3054933905804855,-0.11108370000000001,-0.96972408,0.09417700500000001,16.22138,5.508859999999999,39.172419999999995,71.0
1774822421.2536292,0.004196882247924805,2026-03-29T22:13:41.253,2026-03-29T18:13:41.253,-33827.13,-47264.67,-85233.42,-50082.93,-13606.965,-18579.105,6215.8949999999995,-63595.755,0.2007511981167856,-2.552097596818546,-8.120771035440569,-9.405110797318883,-4.81612569937822,-3.0248808166833174,1.6665123004858557,5.631056871585003,-0.11108370000000001,-0.96972408,0.09417700500000001,16.22138,5.508859999999999,39.172419999999995,71.0
1774822421.2536588,2.956390380859375e-05,2026-03-29T22:13:41.253,2026-03-29T18:13:41.253,-33824.52,-47244.465,-85207.095,-50055.39,-13593.24,-18568.079999999998,6212.295,-63607.545,-0.27993747867432955,-0.21056491223340737,-5.720121684253228,-6.930054045387595,-2.6014633689606432,-1.5283883785779322,-2.7009716893344704,2.4302140170872715,-0.11108370000000001,-0.96972408,0.09417700500000001,16.22138,5.508859999999999,39.172419999999995,71.0
1774822421.257854,0.004195213317871094,2026-03-29T22:13:41.257,2026-03-29T18:13:41.257,-33830.595,-47250.63,-85204.75499999999,-50047.92,-13593.734999999999,-18570.285,6215.76,-63608.67,-0.7151754413316221,2.060358821978873,-0.8902534141510536,-1.390227328603858,0.7166942767696882,0.6442012957413491,-5.669166748151097,-1.9357775626516147,-0.11108370000000001,-0.96972408,0.09417700500000001,16.22138,5.508859999999999,39.172419999999995,71.0
1774822421.257884,3.0040740966796875e-05,2026-03-29T22:13:41.257,2026-03-29T18:13:41.257,-33831.54,-47254.994999999995,-85209.97499999999,-50052.015,-13592.88,-18569.655,6214.905,-63606.42,-0.987544915662842,3.2321284933642263,4.284421483919041,4.853434553842943,3.7430564773023383,2.562871152298706,-6.0002108621653125,-5.546952550881327,-0.11108370000000001,-0.96972408,0.09417700500000001,16.22138,5.508859999999999,39.172419999999995,71.0
1774822421.2621925,0.004308462142944336,2026-03-29T22:13:41.262,2026-03-29T18:13:41.262,-33825.69,-47255.895,-85213.305,-50052.42,-13589.64,-18564.93,6215.58,-63604.439999999995,-0.9779427652884963,2.858576821581725,7.585682624644928,9.069145369762502,5.198453331655628,3.398996135948861,-3.685294870545266,-6.770170390105606,-0.11108370000000001,-0.96972408,0.09417700500000001,16.22138,5.508859999999999,39.172419999999995,71.0
1774822421.2622192,2.6702880859375e-05,2026-03-29T22:13:41.262,2026-03-29T18:13:41.262,-33813.27,-47252.97,-85218.48,-50060.97,-13600.71,-18574.425,6211.035,-63601.695,-0.6149662226274321,1.2425243924872664,7.624575984332316,9.372195040738896,4.46213856255079,2.783483057751753,0.12106497341126946,-5.000006204421416,-0.11108370000000001,-0.96972408,0.09417700500000001,16.22138,5.508859999999999,39.172419999999995,71.0
1774822421.265874,0.0036547183990478516,2026-03-29T22:13:41.265,2026-03-29T18:13:41.265,-33820.244999999995,-47260.755,-85221.94499999999,-50059.619999999995,-13600.35,-18574.965,6211.575,-63601.604999999996,0.058256424326705275,-0.7646281050291726,4.432892981805989,5.590221633758246,1.8391543826828658,0.9688765629273282,3.675503623565511,-0.9578606890786382,-0.119323425,-0.9510473700000001,0.098083245,-7.53844,5.096839999999999,36.28828,71.0
