unix_time_s,dt_s,UTC,LOCAL,EMG1_Raw,EMG2_Raw,EMG3_Raw,EMG4_Raw,EMG5_Raw,EMG6_Raw,EMG7_Raw,EMG8_Raw,EMG1_Filtered,EMG2_Filtered,EMG3_Filtered,EMG4_Filtered,EMG5_Filtered,EMG6_Filtered,EMG7_Filtered,EMG8_Filtered,Accel1_Raw,Accel2_Raw,Accel3_Raw,Gyro1_Raw,Gyro2_Raw,Gyro3_Raw,Battery
1774823278.4680192,,2026-03-29T22:27:58.468,2026-03-29T18:27:58.468,-26856.45,-42258.24,-79030.215,-49619.79,-9902.565,-17224.695,6566.8949999999995,-60602.265,0.13068326260491475,0.020726874601736864,-0.1835472673304592,-0.21877455622897993,-0.25624651381069363,-0.48023012452091157,-2.0293398243567413,-0.06072177415723099,0.01574703,-0.919492275,0.394591275,-7.034859999999999,6.2566,1.17502,68.0
1774823278.468036,1.6689300537109375e-05,2026-03-29T22:27:58.468,2026-03-29T18:27:58.468,-26855.414999999997,-42247.665,-79008.705,-49597.74,-9882.855,-17207.595,6570.36,-60603.435,0.7267452370497864,0.776314559997797,1.1664466567778566,1.3571036735646667,0.9335672972989532,0.34466173262466104,-3.031498707138291,0.9158773723313864,0.01574703,-0.919492275,0.394591275,-7.034859999999999,6.2566,1.17502,68.0
1774823278.4724886,0.004452705383300781,2026-03-29T22:27:58.472,2026-03-29T18:27:58.472,-26850.239999999998,-42249.24,-79017.48,-49604.895,-9886.005,-17209.62,6548.13,-60601.365,0.9991025236642684,1.1685972017396185,1.9925078968091887,2.303959950523159,1.679592447469094,0.9953389192297012,-2.725026365580231,1.5028524581589053,0.01574703,-0.919492275,0.394591275,-7.034859999999999,6.2566,1.17502,68.0
1774823278.4725137,2.5033950805664062e-05,2026-03-29T22:27:58.472,2026-03-29T18:27:58.472,-26838.539999999997,-42238.665,-79008.3,-49594.455,-9872.64,-17194.545,6542.865,-60597.585,0.8718333354297816,1.0621503835883928,1.9630830785001057,2.2355751272986017,1.6877230009151896,1.202305760246667,-1.209846420838831,1.4527680087757662,0.01574703,-0.919492275,0.394591275,-7.034859999999999,6.2566,1.17502,68.0
1774823278.477007,0.004493236541748047,2026-03-29T22:27:58.477,2026-03-29T18:27:58.477,-26841.42,-42245.145,-79013.655,-49598.64,-9874.619999999999,-17193.78,6573.195,-60592.725,0.43483873572093595,0.5420326243607622,1.121991835664675,1.2230229344862973,0.9966065556367801,0.8995534001811266,0.8679969765385614,0.792322421157262,0.01574703,-0.919492275,0.394591275,-7.034859999999999,6.2566,1.17502,68.0
1774823278.4770377,3.075599670410156e-05,2026-03-29T22:27:58.477,2026-03-29T18:27:58.477,-26861.445,-42268.905,-79038.94499999999,-49623.884999999995,-9896.984999999999,-17211.87,6583.005,-60603.39,-0.11633841948561625,-0.1462916670240725,-0.14984318663663546,-0.25994618421887045,-0.06272675711474658,0.24072149823374775,2.596698255119772,-0.19271898251269917,0.01574703,-0.919492275,0.394591275,-7.034859999999999,6.2566,1.17502,68.0
1774823278.4803424,0.003304719924926758,2026-03-29T22:27:58.480,2026-03-29T18:27:58.480,-26862.12,-42269.13,-79041.87,-49627.979999999996,-9902.34,-17217.36,6569.955,-60604.424999999996,-0.5747783429476231,-0.7192300374497101,-1.3136063431429181,-1.5653642092764848,-1.0310029596315191,-0.4811807284750301,3.2069620270690367,-1.0839846361424847,0.01574703,-0.919492275,0.394591275,-7.034859999999999,6.2566,1.17502,68.0
1774823278.4803576,1.52587890625e-05,2026-03-29T22:27:58.480,2026-03-29T18:27:58.480,-26853.704999999998,-42260.13,-79035.3,-49622.22,-9897.705,-17213.715,6567.884999999999,-60598.079999999994,-0.8019858440377612,-0.9758267921226211,-1.9052253150721397,-2.1600921956525947,-1.5248272154131464,-0.9677251324691238,2.4211083120344354,-1.5111198175335072,0.01574703,-0.919492275,0.394591275,-7.034859999999999,6.2566,1.17502,68.0
1774823278.4838219,0.003464221954345703,2026-03-29T22:27:58.483,2026-03-29T18:27:58.483,-26854.379999999997,-42260.67,-79036.245,-49624.47,-9900.18,-17216.28,6564.554999999999,-60600.015,-0.7607529657796266,-0.8632810174053938,-1.7186165527277553,-1.8435162839033687,-1.3875203090477843,-1.0397444606231236,0.5809411622288546,-1.3071232482740718,0.01574703,-0.919492275,0.394591275,-7.034859999999999,6.2566,1.17502,68.0
1774823278.483848,2.6226043701171875e-05,2026-03-29T22:27:58.483,2026-03-29T18:27:58.483,-26852.489999999998,-42258.915,-79033.995,-49621.814999999995,-9897.705,-17212.77,6564.509999999999,-60600.284999999996,-0.49904299998447715,-0.46864867532669974,-0.8681328916562908,-0.8049965738413543,-0.7278005163873379,-0.6999843707155257,-1.5055160479566376,-0.5723979082966298,0.01574703,-0.919492275,0.394591275,-7.034859999999999,6.2566,1.17502,68.0
1774823278.4876833,0.0038352012634277344,2026-03-29T22:27:58.487,2026-03-29T18:27:58.487,-26856.18,-42262.83,-79036.65,-49624.38,-9900.27,-17215.829999999998,6560.73,-60603.93,-0.10873892017721877,0.04308848859253711,0.28245181932235197,0.48846013855848774,0.1554057737405817,-0.11381479759740147,-2.927457565483387,0.37650471446099615,0.01440426,-0.9227271300000001,0.3918447,-9.3849,4.25754,2.12114,68.0
1774823278.4877007,1.7404556274414062e-05,2026-03-29T22:27:58.487,2026-03-29T18:27:58.487,-26854.2,-42260.04,-79034.04,-49622.759999999995,-9898.244999999999,-17214.39,6561.855,-60602.895,0.3101253478380655,0.5032059305810936,1.2805999451452872,1.5084100043930395,0.9136687370394746,0.47400695585669395,-3.076983677255843,1.1467035227941615,0.01440426,-0.9227271300000001,0.3918447,-9.3849,4.25754,2.12114,68.0
1774823278.491772,0.004071235656738281,2026-03-29T22:27:58.491,2026-03-29T18:27:58.491,-26849.34,-42255.54,-79030.395,-49619.07,-9895.005,-17211.285,6565.995,-60597.72,0.6630859486689032,0.7895038815300516,1.7616855865822358,1.8819782639053986,1.2865816965351722,0.8435556457088342,-1.911980473019662,1.4339549713128568,0.01440426,-0.9227271300000001,0.3918447,-9.3849,4.25754,2.12114,68.0
1774823278.4917977,2.574920654296875e-05,2026-03-29T22:27:58.491,2026-03-29T18:27:58.491,-26853.03,-42259.68,-79033.995,-49623.479999999996,-9899.82,-17215.92,6561.045,-60600.915,0.8595775612866614,0.8406779721925488,1.5733555727342519,1.5199334162209748,1.1817206042074946,0.8795741613077559,0.0392985094176501,1.1422165199992276,0.01440426,-0.9227271300000001,0.3918447,-9.3849,4.25754,2.12114,68.0
1774823278.4955692,0.003771543502807617,2026-03-29T22:27:58.495,2026-03-29T18:27:58.495,-26850.735,-42256.845,-79030.62,-49620.195,-9896.715,-17213.355,6562.62,-60600.645,0.8175794189749784,0.6480206282576636,0.8106515090173367,0.6169003007571958,0.6785540592461689,0.5993749924199756,1.92606849157798,0.410992369773621,0.01440426,-0.9227271300000001,0.3918447,-9.3849,4.25754,2.12114,68.0
1774823278.4955847,1.5497207641601562e-05,2026-03-29T22:27:58.495,2026-03-29T18:27:58.495,-26840.16,-42243.525,-79015.31999999999,-49606.064999999995,-9882.63,-17200.125,6563.16,-60597.99,0.49154521594242334,0.24726917480396188,-0.2363139000715092,-0.45589452736146174,-0.026355886075404795,0.12770682904353256,2.954965723957454,-0.45428380497532705,0.01440426,-0.9227271300000001,0.3918447,-9.3849,4.25754,2.12114,68.0
1774823278.499925,0.004340171813964844,2026-03-29T22:27:58.499,2026-03-29T18:27:58.499,-26833.004999999997,-42234.659999999996,-79006.185,-49596.705,-9873.315,-17190.315,6570.855,-60596.82,-0.08184529463907568,-0.27742636809291993,-1.1917654010179524,-1.3054424332683252,-0.6973121563354319,-0.3611474915778045,2.7276600121055004,-1.1129519528193468,0.01440426,-0.9227271300000001,0.3918447,-9.3849,4.25754,2.12114,68.0
1774823278.4999428,1.7881393432617188e-05,2026-03-29T22:27:58.499,2026-03-29T18:27:58.499,-26840.16,-42243.165,-79015.68,-49606.335,-9883.89,-17199.989999999998,6553.17,-60602.939999999995,-0.7503151427425834,-0.7869045605296261,-1.7198704810560124,-1.6535763696024248,-1.1289547651361476,-0.7061545877221964,1.3900768269482853,-1.3233047112693053,0.01440426,-0.9227271300000001,0.3918447,-9.3849,4.25754,2.12114,68.0
1774823278.5039089,0.003966093063354492,2026-03-29T22:27:58.503,2026-03-29T18:27:58.503,-26856.315,-42261.705,-79034.175,-49623.255,-9899.82,-17216.37,6547.995,-60610.545,-1.262874570657659,-1.101598647469821,-1.6302728600725016,-1.4123387245530044,-1.1927708349370858,-0.8055147781579851,-0.4598600279760493,-1.027164204241947,0.01440426,-0.9227271300000001,0.3918447,-9.3849,4.25754,2.12114,68.0
1774823278.5040236,0.00011467933654785156,2026-03-29T22:27:58.504,2026-03-29T18:27:58.504,-26857.71,-42267.645,-79039.395,-49628.924999999996,-9905.31,-17220.87,6560.82,-60606.09,-1.3548816182026877,-1.054862911104271,-0.9385869776582527,-0.6884802851838313,-0.8619657533546123,-0.6372863639164467,-2.048845024722548,-0.3575407335021633,0.01440426,-0.9227271300000001,0.3918447,-9.3849,4.25754,2.12114,68.0
1774823278.5129187,0.008895158767700195,2026-03-29T22:27:58.512,2026-03-29T18:27:58.512,-26850.87,-42262.2,-79036.605,-49628.205,-9906.57,-17223.03,6550.245,-60601.229999999996,-0.8784367391799154,-0.5761040937905569,0.1319115299418462,0.26683526749628445,-0.22022511953724389,-0.2573805735495301,-2.7564946638099412,0.42466193516024375,0.01647945,-0.93066168,0.393004365,-9.44594,3.5098,4.24228,68.0
1774823278.5129397,2.09808349609375e-05,2026-03-29T22:27:58.512,2026-03-29T18:27:58.512,-26846.37,-42258.015,-79031.83499999999,-49623.884999999995,-9903.69,-17219.97,6552.9,-60595.784999999996,0.08369478266530589,0.23585545583302267,1.2109952100492356,1.1380141463258453,0.5469584424474178,0.2180751582245784,-2.353015060439285,1.0331147196604655,0.01647945,-0.93066168,0.393004365,-9.44594,3.5098,4.24228,68.0
1774823278.5129564,1.6689300537109375e-05,2026-03-29T22:27:58.512,2026-03-29T18:27:58.512,-26855.684999999998,-42261.479999999996,-79031.7,-49621.814999999995,-9899.505,-17214.075,6562.17,-60607.665,1.1931721478122144,1.1013683580840232,1.895626621354194,1.633675543610305,1.1876903737827076,0.6409718047575425,-1.057623169266156,1.2567734875852743,0.01647945,-0.93066168,0.393004365,-9.44594,3.5098,4.24228,68.0
1774823278.5129628,6.4373016357421875e-06,2026-03-29T22:27:58.512,2026-03-29T18:27:58.512,-26859.015,-42265.575,-79036.37999999999,-49627.35,-9902.97,-17218.215,6550.695,-60613.244999999995,1.9611705768888197,1.642844667520465,1.89137522633607,1.569521740245347,1.4527218649635365,0.8680792237897461,0.5854698142893402,1.0256006447341317,0.01647945,-0.93066168,0.393004365,-9.44594,3.5098,4.24228,68.0
1774823278.5161803,0.003217458724975586,2026-03-29T22:27:58.516,2026-03-29T18:27:58.516,-26852.67,-42263.28,-79036.37999999999,-49627.259999999995,-9903.555,-17220.239999999998,6527.5199999999995,-60610.32,1.9600113088911268,1.5464213005072533,1.137169954277645,0.9316932061304729,1.1884674665198645,0.8036016027713998,1.9418384416930305,0.42553723914113817,0.01647945,-0.93066168,0.393004365,-9.44594,3.5098,4.24228,68.0
1774823278.516202,2.1696090698242188e-05,2026-03-29T22:27:58.516,2026-03-29T18:27:58.516,-26851.454999999998,-42263.955,-79038.36,-49631.13,-9908.55,-17223.614999999998,6538.32,-60606.674999999996,1.0517945381096607,0.7348721485280622,-0.1384421336000844,-0.09794472681378995,0.4215808753111253,0.43851243336051976,2.527624894228904,-0.33506934619438894,0.01647945,-0.93066168,0.393004365,-9.44594,3.5098,4.24228,68.0
1774823278.5222964,0.006094455718994141,2026-03-29T22:27:58.522,2026-03-29T18:27:58.522,-26855.055,-42258.915,-79030.215,-49621.725,-9896.76,-17211.87,6565.995,-60613.74,-0.4848934397881133,-0.5405554162508063,-1.4682935795455359,-1.1746875958859921,-0.6101652454016101,-0.12901356398818467,2.1671008698279204,-0.9932355059230202,0.01647945,-0.93066168,0.393004365,-9.44594,3.5098,4.24228,68.0
1774823278.5223312,3.4809112548828125e-05,2026-03-29T22:27:58.522,2026-03-29T18:27:58.522,-26852.129999999997,-42253.83,-79026.075,-49614.795,-9888.345,-17202.69,6587.325,-60610.77,-2.0178570847686617,-1.7581719607953787,-2.306668576060439,-1.89053751752375,-1.5149581134553995,-0.7084629911060562,1.0252621197214895,-1.313735049956886,0.01647945,-0.93066168,0.393004365,-9.44594,3.5098,4.24228,68.0
1774823278.5223594,2.8133392333984375e-05,2026-03-29T22:27:58.522,2026-03-29T18:27:58.522,-26842.68,-42256.17,-79034.175,-49623.345,-9897.435,-17210.61,6578.1449999999995,-60595.064999999995,-2.8159790522012953,-2.334634235979735,-2.250423973229736,-1.9221417286376927,-1.8899423204416437,-1.0736117748110132,-0.4744083022603341,-1.1655724673971497,0.01647945,-0.93066168,0.393004365,-9.44594,3.5098,4.24228,68.0
1774823278.5223727,1.33514404296875e-05,2026-03-29T22:27:58.522,2026-03-29T18:27:58.522,-26834.579999999998,-42254.415,-79032.69,-49626.0,-9905.13,-17217.585,6565.1849999999995,-60584.31,-2.3963778434687217,-1.9036262231759176,-1.233186936563726,-1.177422224160574,-1.501305121435766,-1.048572442452567,-1.8028841602593608,-0.5725688994569026,0.01647945,-0.93066168,0.393004365,-9.44594,3.5098,4.24228,68.0
1774823278.527716,0.005343198776245117,2026-03-29T22:27:58.527,2026-03-29T18:27:58.527,-26843.715,-42256.619999999995,-79029.27,-49621.365,-9901.71,-17213.895,6562.665,-60597.494999999995,-0.7998814064304008,-0.5315246343845662,0.40122997612812394,0.1259716555012551,-0.4204826152596743,-0.5916967785997826,-2.4960723764764983,0.2795692157883323,0.02087397,-0.940122105,0.393248505,-9.980039999999999,2.1669199999999997,7.98098,68.0
1774823278.5277393,2.3365020751953125e-05,2026-03-29T22:27:58.527,2026-03-29T18:27:58.527,-26857.8,-42253.47,-79022.295,-49610.205,-9886.185,-17199.405,6572.88,-60621.93,1.356856667285279,1.251562134241738,2.000355555412834,1.5036871530765539,0.959919113759469,0.16246375879921796,-2.298051236730227,1.0901457736181364,0.02087397,-0.940122105,0.393248505,-9.980039999999999,2.1669199999999997,7.98098,68.0
1774823278.5316832,0.003943920135498047,2026-03-29T22:27:58.531,2026-03-29T18:27:58.531,-26850.195,-42253.02,-79025.805,-49615.47,-9890.91,-17204.715,6570.179999999999,-60610.994999999995,3.110186191532143,2.6489134310935283,2.859157994125673,2.375973485386581,2.060406790200694,0.9323218048464392,-1.2454697164167483,1.5400180500104819,0.02087397,-0.940122105,0.393248505,-9.980039999999999,2.1669199999999997,7.98098,68.0
1774823278.5316994,1.621246337890625e-05,2026-03-29T22:27:58.531,2026-03-29T18:27:58.531,-26850.914999999997,-42253.424999999996,-79026.03,-49614.705,-9890.595,-17205.21,6569.19,-60611.85,3.5800426241077914,2.953761542471981,2.5326939893756104,2.3118132009712955,2.358078202042139,1.3903489524519557,0.3278618748084434,1.4128812905968686,0.02087397,-0.940122105,0.393248505,-9.980039999999999,2.1669199999999997,7.98098,68.0
1774823278.5359364,0.004236936569213867,2026-03-29T22:27:58.535,2026-03-29T18:27:58.535,-26855.73,-42255.9,-79026.56999999999,-49614.435,-9889.875,-17204.175,6571.3949999999995,-60618.149999999994,2.4100965263508582,1.9054615564464257,1.0657086942107057,1.2429326975969763,1.636797989867538,1.3019660429300912,1.8765501258262185,0.6979782623704115,0.02087397,-0.940122105,0.393248505,-9.980039999999999,2.1669199999999997,7.98098,68.0
1774823278.5359547,1.8358230590820312e-05,2026-03-29T22:27:58.535,2026-03-29T18:27:58.535,-26854.065,-42254.729999999996,-79027.29,-49616.775,-9894.15,-17209.755,6559.0199999999995,-60617.655,-0.002139700238363046,-0.13392671589190788,-0.9791503366829241,-0.45921923347968185,0.12339487477967713,0.6434980865259422,2.8113316779351805,-0.37382192868252134,0.02087397,-0.940122105,0.393248505,-9.980039999999999,2.1669199999999997,7.98098,68.0
1774823278.542258,0.006303310394287109,2026-03-29T22:27:58.542,2026-03-29T18:27:58.542,-26858.879999999997,-42260.22,-79033.275,-49623.75,-9901.17,-17217.0,6534.045,-60622.064999999995,-2.6228679955658145,-2.291041430850763,-2.7305273473398333,-2.100606051516182,-1.570211404074961,-0.35933409151361606,2.7114781931498433,-1.391289899416083,0.02087397,-0.940122105,0.393248505,-9.980039999999999,2.1669199999999997,7.98098,68.0
1774823278.5422769,1.8835067749023438e-05,2026-03-29T22:27:58.542,2026-03-29T18:27:58.542,-26861.445,-42262.92,-79034.4,-49623.615,-9899.775,-17215.92,6523.785,-60623.145,-4.224067729455166,-3.555094157569668,-3.380989590606494,-2.9463283683149006,-2.6931663124764746,-1.3019462092475382,1.5128832075554957,-1.914242311201413,0.02087397,-0.940122105,0.393248505,-9.980039999999999,2.1669199999999997,7.98098,68.0
1774823278.5477924,0.005515575408935547,2026-03-29T22:27:58.547,2026-03-29T18:27:58.547,-26859.78,-42262.515,-79034.48999999999,-49623.075,-9898.56,-17214.255,6533.505,-60622.74,-3.961863819010851,-3.254319823931353,-2.563021639515722,-2.5531790460904356,-2.6916459659099936,-1.7623534156725118,-0.41140295131585086,-1.6633200726700943,0.02087397,-0.940122105,0.393248505,-9.980039999999999,2.1669199999999997,7.98098,68.0
1774823278.547811,1.8596649169921875e-05,2026-03-29T22:27:58.547,2026-03-29T18:27:58.547,-26855.954999999998,-42259.68,-79032.51,-49622.67,-9897.705,-17210.925,6564.105,-60619.32,-1.8174930843901442,-1.4089872297176451,-0.5513676928394611,-1.0006955152065402,-1.4826480099616086,-1.4899807003491667,-2.3393878372573518,-0.6669522241836325,0.02087397,-0.940122105,0.393248505,-9.980039999999999,2.1669199999999997,7.98098,68.0
1774823278.5478404,2.9325485229492188e-05,2026-03-29T22:27:58.547,2026-03-29T18:27:58.547,-26838.629999999997,-42247.125,-79018.83,-49611.104999999996,-9887.265,-17200.35,6590.16,-60600.6,1.3282278992928924,1.223214959547226,1.817905621545212,1.0994488107178466,0.4702378655096715,-0.5373875753472668,-3.4564969244504122,0.7108370644416605,0.02453607,-0.94677492,0.3955068,-8.5456,0.03052,11.26188,68.0
1774823278.54785,9.5367431640625e-06,2026-03-29T22:27:58.547,2026-03-29T18:27:58.547,-26833.14,-42247.755,-79021.89,-49615.56,-9893.744999999999,-17206.785,6574.634999999999,-60598.215,4.052849397190832,3.4560811183538416,3.4950519030964675,2.8412294630299835,2.3310645950137596,0.7326330602794198,-3.198349281275087,1.8940434613146429,0.02453607,-0.94677492,0.3955068,-8.5456,0.03052,11.26188,68.0
1774823278.5517035,0.0038535594940185547,2026-03-29T22:27:58.551,2026-03-29T18:27:58.551,-26826.12,-42246.045,-79020.62999999999,-49618.305,-9899.82,-17212.32,6563.565,-60588.494999999995,5.039582093195065,4.2133946128582656,3.6862937208588753,3.4184344841413736,3.2520478668646535,1.781254018771113,-1.5369040992382896,2.3336768530498646,0.02453607,-0.94677492,0.3955068,-8.5456,0.03052,11.26188,68.0
1774823278.5517354,3.1948089599609375e-05,2026-03-29T22:27:58.551,2026-03-29T18:27:58.551,-26842.815,-42255.36,-79026.56999999999,-49619.564999999995,-9899.055,-17212.68,6563.745,-60605.28,3.7176069916030396,3.050621667945996,2.2329955444441634,2.5019254466615926,2.7633629602546823,2.1215359474965587,0.9355824973113483,1.7642795498532762,0.02453607,-0.94677492,0.3955068,-8.5456,0.03052,11.26188,68.0
1774823278.5571492,0.00541377067565918,2026-03-29T22:27:58.557,2026-03-29T18:27:58.557,-26847.585,-42256.619999999995,-79030.70999999999,-49621.14,-9897.615,-17212.05,6568.875,-60614.954999999994,0.5822416308115012,0.40537301063203063,-0.28254078122769716,0.4213918758500495,1.0111609018521377,1.5440256076653502,3.1986200592734724,0.35750159459695746,0.02453607,-0.94677492,0.3955068,-8.5456,0.03052,11.26188,68.0
1774823278.5571687,1.9550323486328125e-05,2026-03-29T22:27:58.557,2026-03-29T18:27:58.557,-26849.969999999998,-42253.695,-79024.95,-49615.515,-9891.404999999999,-17206.605,6569.505,-60620.579999999994,-2.9810331429772408,-2.5609315077616324,-2.7688473063216246,-1.9467280391874782,-1.2762526843758117,0.23580159552324348,4.22191406459161,-1.313588872843852,0.02453607,-0.94677492,0.3955068,-8.5456,0.03052,11.26188,68.0
1774823278.5600011,0.0028324127197265625,2026-03-29T22:27:58.560,2026-03-29T18:27:58.560,-26857.98,-42257.61,-79026.345,-49615.38,-9890.595,-17204.985,6568.065,-60630.255,-5.312080145753653,-4.476585396639665,-4.103099274270403,-3.5507226863488763,-3.0927136675764877,-1.2714483592018697,3.4407121765228417,-2.504108010981721,0.02453607,-0.94677492,0.3955068,-8.5456,0.03052,11.26188,68.0
1774823278.5600512,5.0067901611328125e-05,2026-03-29T22:27:58.560,2026-03-29T18:27:58.560,-26853.84,-42255.27,-79023.15,-49613.13,-9890.64,-17205.48,6566.085,-60624.63,-5.256328734896718,-4.399459668691574,-3.643527965064782,-3.6356783303847804,-3.6007879611075664,-2.3152338966267374,1.0659597804852141,-2.631312208539086,0.02453607,-0.94677492,0.3955068,-8.5456,0.03052,11.26188,68.0
1774823278.563911,0.0038597583770751953,2026-03-29T22:27:58.563,2026-03-29T18:27:58.563,-26857.71,-42262.38,-79033.905,-49623.93,-9901.215,-17219.16,6558.48,-60626.655,-2.7399586794183164,-2.2820077774851013,-1.5398654431067502,-2.1016605039766203,-2.5203054290090017,-2.393155016889949,-1.9405017233436375,-1.562557962407461,0.02453607,-0.94677492,0.3955068,-8.5456,0.03052,11.26188,68.0
1774823278.5639362,2.5272369384765625e-05,2026-03-29T22:27:58.563,2026-03-29T18:27:58.563,-26860.364999999998,-42265.439999999995,-79037.45999999999,-49627.665,-9903.195,-17224.065,6557.535,-60631.244999999995,1.1480186034393776,0.9690257373003569,1.309277550830325,0.4233717639371326,-0.2773351371534546,-1.4033938067545344,-4.250423912847286,0.28602346758705005,0.02453607,-0.94677492,0.3955068,-8.5456,0.03052,11.26188,68.0
1774823278.567892,0.003955841064453125,2026-03-29T22:27:58.567,2026-03-29T18:27:58.567,-26855.46,-42259.455,-79032.015,-49622.67,-9899.01,-17224.38,6554.34,-60630.795,4.628184573007527,3.8831677209841167,3.6436950942520903,2.8414709279334005,2.1636338745067114,0.27966023991795297,-4.7631436171750385,2.1047137259896065,0.030334395,-0.95239014,0.398009235,-6.91278,-2.1364,15.382079999999998,68.0
1774823278.5679188,2.6702880859375e-05,2026-03-29T22:27:58.567,2026-03-29T18:27:58.567,-26835.795,-42239.205,-79011.315,-49600.89,-9877.815,-17204.355,6567.3,-60614.82,6.052359118095512,5.09764388992331,4.404697762664102,4.066800040059306,3.7179649203308944,1.9419384769319272,-3.140316942035321,3.0456151309354462,0.030334395,-0.95239014,0.398009235,-6.91278,-2.1364,15.382079999999998,68.0
1774823278.5726788,0.004760026931762695,2026-03-29T22:27:58.572,2026-03-29T18:27:58.572,-26831.745,-42237.63,-79009.92,-49597.65,-9873.675,-17195.265,6567.12,-60610.59,4.691764579188881,3.9999784926545474,3.219455479173027,3.517708000106377,3.666217135797354,2.8313447099206304,-0.017004195634960723,2.622245432291952,0.030334395,-0.95239014,0.398009235,-6.91278,-2.1364,15.382079999999998,68.0
1774823278.5727112,3.24249267578125e-05,2026-03-29T22:27:58.572,2026-03-29T18:27:58.572,-26843.129999999997,-42251.895,-79026.705,-49614.165,-9889.56,-17206.649999999998,6553.98,-60616.665,1.1113510317616369,1.0361666495718798,0.5828662131904566,1.393519069789058,1.9876472150068247,2.497842069708897,3.2381652984385054,0.9632568860959738,0.030334395,-0.95239014,0.398009235,-6.91278,-2.1364,15.382079999999998,68.0
1774823278.5760248,0.0033135414123535156,2026-03-29T22:27:58.576,2026-03-29T18:27:58.576,-26850.105,-42255.9,-79029.81,-49616.325,-9889.965,-17203.5,6565.094999999999,-60624.0,-3.0626006622060786,-2.470487263260548,-2.351464598135327,-1.3959958558574936,-0.612932340996493,1.0184265727743425,5.128883404829329,-1.2127205198230517,0.030334395,-0.95239014,0.398009235,-6.91278,-2.1364,15.382079999999998,68.0
1774823278.5760455,2.0742416381835938e-05,2026-03-29T22:27:58.576,2026-03-29T18:27:58.576,-26861.355,-42259.95,-79026.12,-49617.494999999995,-9895.095,-17205.075,6569.955,-60629.67,-5.887337973313233,-4.9162062932413555,-4.2813845519826375,-3.6241298289177064,-3.003682383282386,-1.0042682585741245,4.7323424418772575,-2.9071495989276643,0.030334395,-0.95239014,0.398009235,-6.91278,-2.1364,15.382079999999998,68.0
1774823278.5802894,0.0042438507080078125,2026-03-29T22:27:58.580,2026-03-29T18:27:58.580,-26849.655,-42248.835,-79008.885,-49606.56,-9890.46,-17201.43,6567.344999999999,-60615.405,-6.016976258997013,-5.1570690553633565,-4.338987834971464,-4.291300658718958,-4.1215747996904994,-2.6842234675556433,2.1610700603386843,-3.303706853619263,0.030334395,-0.95239014,0.398009235,-6.91278,-2.1364,15.382079999999998,68.0
1774823278.580309,1.9550323486328125e-05,2026-03-29T22:27:58.580,2026-03-29T18:27:58.580,-26849.789999999997,-42253.965,-79023.95999999999,-49615.38,-9890.1,-17206.829999999998,6561.36,-60622.875,-3.3507612776058315,-3.0477465991125974,-2.482668679056006,-3.075952263776147,-3.4465841259756798,-3.239490336820083,-1.4506597227438545,-2.166989369237911,0.030334395,-0.95239014,0.398009235,-6.91278,-2.1364,15.382079999999998,68.0
1774823278.5836616,0.003352642059326172,2026-03-29T22:27:58.583,2026-03-29T18:27:58.583,-26844.885,-42250.77,-79023.375,-49614.119999999995,-9888.705,-17207.145,6556.679999999999,-60622.11,0.8991591307464526,0.4768527787726617,0.47947433896259695,-0.4877477583667369,-1.2420358489012275,-2.3558961426917704,-4.450604873564557,0.019166009788038528,0.030334395,-0.95239014,0.398009235,-6.91278,-2.1364,15.382079999999998,68.0
1774823278.583678,1.6450881958007812e-05,2026-03-29T22:27:58.583,2026-03-29T18:27:58.583,-26836.739999999998,-42242.715,-79016.265,-49607.505,-9883.215,-17201.475,6552.134999999999,-60619.634999999995,4.762826639149435,3.820915101370737,3.246211392479247,2.3489902729383116,1.5490633380334904,-0.35811232098364315,-5.43757149052934,2.2540189782415405,0.030334395,-0.95239014,0.398009235,-6.91278,-2.1364,15.382079999999998,68.0
1774823278.5877252,0.0040471553802490234,2026-03-29T22:27:58.587,2026-03-29T18:27:58.587,-26846.594999999998,-42245.729999999996,-79014.59999999999,-49604.22,-9880.56,-17202.015,6527.61,-60638.715,6.434397063997436,5.457414612102672,4.5997477474624375,4.187752123808261,3.7098869547707936,1.9025200899810863,-3.9318446329951198,3.4804680081119264,0.035034090000000004,-0.9509253,0.40222065,-5.84458,-4.10494,19.563319999999997,68.0
1774823278.5877457,2.0503997802734375e-05,2026-03-29T22:27:58.587,2026-03-29T18:27:58.587,-26859.375,-42259.994999999995,-79030.575,-49620.915,-9899.145,-17220.915,6518.34,-60644.79,5.125390316927779,4.630992216112324,3.9442039146905916,4.210276979320918,4.281692704542894,3.408755402901693,-0.6191092023021861,3.0909037050844894,0.035034090000000004,-0.9509253,0.40222065,-5.84458,-4.10494,19.563319999999997,68.0
1774823278.5918803,0.004134654998779297,2026-03-29T22:27:58.591,2026-03-29T18:27:58.591,-26853.39,-42258.689999999995,-79029.94499999999,-49619.34,-9894.914999999999,-17211.555,6577.695,-60626.835,1.441871277975279,1.707811253927277,1.566729314501536,2.390583229977264,2.9886152553049286,3.4350892954886842,2.9606195075105117,1.233786111997161,0.035034090000000004,-0.9509253,0.40222065,-5.84458,-4.10494,19.563319999999997,68.0
1774823278.5919087,2.8371810913085938e-05,2026-03-29T22:27:58.591,2026-03-29T18:27:58.591,-26854.695,-42261.705,-79034.805,-49624.604999999996,-9897.615,-17211.69,6599.969999999999,-60624.134999999995,-2.897266056907491,-1.990164393327836,-1.492329180986405,-0.48905713563389697,0.3677031564892083,1.8966578367366207,5.13871422949112,-1.236005083022027,0.035034090000000004,-0.9509253,0.40222065,-5.84458,-4.10494,19.563319999999997,68.0
1774823278.5984488,0.006540060043334961,2026-03-29T22:27:58.598,2026-03-29T18:27:58.598,-26859.42,-42266.115,-79040.25,-49629.645,-9903.555,-17218.485,6577.83,-60631.604999999996,-5.869469386341399,-4.789627683985114,-3.899218299945426,-3.177616377627394,-2.4554618098525203,-0.57799155218605,4.911999855366706,-3.1511148639186053,0.035034090000000004,-0.9509253,0.40222065,-5.84458,-4.10494,19.563319999999997,68.0
1774823278.5984647,1.5974044799804688e-05,2026-03-29T22:27:58.598,2026-03-29T18:27:58.598,-26858.835,-42266.475,-79040.11499999999,-49630.049999999996,-9904.545,-17222.22,6566.804999999999,-60632.82,-6.100983697517475,-5.429456767557729,-4.610841284941462,-4.501022502063869,-4.250784818441784,-2.8993510181470303,2.420096493201164,-3.588370894222422,0.035034090000000004,-0.9509253,0.40222065,-5.84458,-4.10494,19.563319999999997,68.0
1774823278.5984883,2.3603439331054688e-05,2026-03-29T22:27:58.598,2026-03-29T18:27:58.598,-26854.02,-42260.985,-79035.03,-49625.369999999995,-9901.664999999999,-17223.614999999998,6535.9349999999995,-60633.945,-3.5095720463170874,-3.631841308369957,-3.3260597051453202,-3.874898174661531,-4.218854680409241,-3.9956363477892634,-1.1278810895080422,-2.3205383350966478,0.035034090000000004,-0.9509253,0.40222065,-5.84458,-4.10494,19.563319999999997,68.0
1774823278.5984974,9.059906005859375e-06,2026-03-29T22:27:58.598,2026-03-29T18:27:58.598,-26847.09,-42249.15,-79019.595,-49612.365,-9892.619999999999,-17214.345,6509.835,-60630.75,0.6668369019312297,-0.22100449725175403,-0.6096154571510076,-1.5606547531388961,-2.3451414796576793,-3.308104364894097,-4.042502846668313,0.06088767495727387,0.035034090000000004,-0.9509253,0.40222065,-5.84458,-4.10494,19.563319999999997,68.0
1774823278.6044743,0.00597691535949707,2026-03-29T22:27:58.604,2026-03-29T18:27:58.604,-26845.11,-42246.314999999995,-79015.185,-49607.415,-9888.795,-17208.809999999998,6528.599999999999,-60626.295,4.465438154978233,3.2600370089747535,2.3600532275696406,1.445892655752591,0.5824522519055852,-1.0741096577690243,-4.970730932847055,2.4199216719268843,0.035034090000000004,-0.9509253,0.40222065,-5.84458,-4.10494,19.563319999999997,68.0
1774823278.6044984,2.4080276489257812e-05,2026-03-29T22:27:58.604,2026-03-29T18:27:58.604,-26847.315,-42251.445,-79024.00499999999,-49613.354999999996,-9889.47,-17207.145,6574.59,-60624.405,6.129721351300249,5.253833080195007,4.304254967109478,3.844343154696474,3.3042668044238606,1.7446295761991906,-3.540033616236842,3.6211445008542387,0.035034090000000004,-0.9509253,0.40222065,-5.84458,-4.10494,19.563319999999997,68.0
1774823278.61184,0.007341623306274414,2026-03-29T22:27:58.611,2026-03-29T18:27:58.611,-26848.485,-42257.924999999996,-79031.79,-49620.915,-9896.94,-17212.995,6578.28,-60621.03,4.930745626917921,4.8893748857349095,4.393863268338936,4.591646168856467,4.629220992478986,3.873386662994015,-0.5163909914043195,3.0826184832235626,0.03588858,-0.93884037,0.40502826000000003,-6.516019999999999,-5.6767199999999995,23.25624,68.0
1774823278.6118605,2.0503997802734375e-05,2026-03-29T22:27:58.611,2026-03-29T18:27:58.611,-26844.434999999998,-42257.655,-79032.375,-49621.634999999995,-9898.154999999999,-17215.649999999998,6562.71,-60618.645,1.4902609371092113,2.3622063857025735,2.5997227019414724,3.3538172333895457,3.954125599994778,4.301004234453668,2.595202101590535,1.0644393640892233,0.03588858,-0.93884037,0.40502826000000003,-6.516019999999999,-5.6767199999999995,23.25624,68.0
1774823278.6246827,0.012822151184082031,2026-03-29T22:27:58.624,2026-03-29T18:27:58.624,-26840.25,-42253.47,-79027.65,-49616.415,-9893.34,-17210.565,6573.105,-60615.494999999995,-2.539529278755185,-1.1716858574946705,-0.30236140772487163,0.6532304636411137,1.536981560424607,2.7611149722965695,4.302724822408847,-1.4531925793721396,0.03588858,-0.93884037,0.40502826000000003,-6.516019999999999,-5.6767199999999995,23.25624,68.0
1774823278.6247027,2.002716064453125e-05,2026-03-29T22:27:58.624,2026-03-29T18:27:58.624,-26854.92,-42262.74,-79033.77,-49621.14,-9898.605,-17215.829999999998,6575.49,-60631.155,-5.275464329184192,-4.130148736843481,-3.0687570632832757,-2.352048468665633,-1.5985205696352194,-0.1112202294576061,3.8544311135997567,-3.2470486501769185,0.03588858,-0.93884037,0.40502826000000003,-6.516019999999999,-5.6767199999999995,23.25624,68.0
1774823278.6247182,1.5497207641601562e-05,2026-03-29T22:27:58.624,2026-03-29T18:27:58.624,-26856.765,-42262.965,-79033.905,-49622.58,-9901.845,-17220.285,6563.61,-60635.115,-5.492531009205213,-5.2176774418039304,-4.5197583567595085,-4.363309467895301,-4.093434273990161,-3.0361440302549423,1.5820833204856082,-3.450425052383568,0.03588858,-0.93884037,0.40502826000000003,-6.516019999999999,-5.6767199999999995,23.25624,68.0
1774823278.6247227,4.5299530029296875e-06,2026-03-29T22:27:58.624,2026-03-29T18:27:58.624,-26854.739999999998,-42262.335,-79036.02,-49624.424999999996,-9902.16,-17220.329999999998,6560.1449999999995,-60636.015,-3.178528814398297,-3.993512863900897,-4.039368036175147,-4.499939508690048,-4.839716135245079,-4.6581757857150174,-1.3018873083164897,-1.9788246582370657,0.03588858,-0.93884037,0.40502826000000003,-6.516019999999999,-5.6767199999999995,23.25624,68.0
1774823278.6247284,5.7220458984375e-06,2026-03-29T22:27:58.624,2026-03-29T18:27:58.624,-26850.87,-42258.42,-79030.485,-49619.744999999995,-9896.984999999999,-17213.94,6572.384999999999,-60633.45,0.4999256017578383,-1.0457214868529623,-1.8335096244871636,-2.6831867648616874,-3.4711641907533033,-4.175605874932565,-3.339310030718362,0.4306348462318758,0.03588858,-0.93884037,0.40502826000000003,-6.516019999999999,-5.6767199999999995,23.25624,68.0
1774823278.6247325,4.0531158447265625e-06,2026-03-29T22:27:58.624,2026-03-29T18:27:58.624,-26844.93,-42250.365,-79020.81,-49611.555,-9888.435,-17207.595,6572.384999999999,-60629.805,3.7864133354005904,2.2947018222287823,1.1593722186771591,0.3208645557371034,-0.542693807497832,-1.7375339596285229,-3.5646299832513093,2.5870021131048744,0.03588858,-0.93884037,0.40502826000000003,-6.516019999999999,-5.6767199999999995,23.25624,68.0
1774823278.6247375,5.0067901611328125e-06,2026-03-29T22:27:58.624,2026-03-29T18:27:58.624,-26837.504999999997,-42243.21,-79013.565,-49603.634999999995,-9881.955,-17200.755,6577.245,-60624.045,5.1809389687959895,4.559074597004621,3.6656725433240918,3.221409674755578,2.689349346778141,1.5882407983450866,-1.9723492005690566,3.4375974810546697,0.03588858,-0.93884037,0.40502826000000003,-6.516019999999999,-5.6767199999999995,23.25624,68.0
1774823278.6247416,4.0531158447265625e-06,2026-03-29T22:27:58.624,2026-03-29T18:27:58.624,-26841.825,-42250.455,-79022.52,-49613.22,-9891.404999999999,-17208.405,6569.235,-60625.89,4.132153719881004,4.788339275676889,4.614742403075189,4.753917699145839,4.801821995552353,4.279950472790585,0.5164152353551436,2.5884018354933622,0.03588858,-0.93884037,0.40502826000000003,-6.516019999999999,-5.6767199999999995,23.25624,68.0
1774823278.6304295,0.0056879520416259766,2026-03-29T22:27:58.630,2026-03-29T18:27:58.630,-26845.92,-42255.314999999995,-79027.83,-49619.295,-9897.255,-17214.075,6549.615,-60628.049999999996,1.2523864405880907,2.936540822457636,3.592778993118844,4.229055458112696,4.829474545497925,5.058641255186995,2.5594084184408477,0.492297487638237,0.033264075,-0.924985425,0.404845155,-5.9208799999999995,-5.997179999999999,25.34686,68.0
1774823278.630451,2.1457672119140625e-05,2026-03-29T22:27:58.630,2026-03-29T18:27:58.630,-26836.559999999998,-42245.055,-79016.44499999999,-49607.549999999996,-9883.98,-17201.295,6560.37,-60621.255,-2.026978040249808,-0.13757700074606752,1.0223550553276155,1.8429814232518467,2.7069760332379387,3.497985904169454,3.1016376874206424,-1.7878177510904456,0.033264075,-0.924985425,0.404845155,-5.9208799999999995,-5.997179999999999,25.34686,68.0
1774823278.6304724,2.1457672119140625e-05,2026-03-29T22:27:58.630,2026-03-29T18:27:58.630,-26839.664999999997,-42250.185,-79023.465,-49612.545,-9888.074999999999,-17206.695,6564.285,-60626.52,-4.170540941217997,-3.072085029001729,-2.009499188212989,-1.390359069693016,-0.6742270426411627,0.255586774477988,1.9180850941881993,-3.1191117061219136,0.033264075,-0.924985425,0.404845155,-5.9208799999999995,-5.997179999999999,25.34686,68.0
1774823278.63048,7.62939453125e-06,2026-03-29T22:27:58.630,2026-03-29T18:27:58.630,-26841.465,-42251.805,-79022.16,-49612.14,-9891.359999999999,-17210.07,6559.605,-60628.409999999996,-4.265528466251085,-4.607155168125648,-4.206184495997328,-4.064866997408676,-3.8338673063648634,-3.198637420145229,-0.28731891697758993,-2.8671302549780537,0.033264075,-0.924985425,0.404845155,-5.9208799999999995,-5.997179999999999,25.34686,68.0
1774823278.636269,0.005789041519165039,2026-03-29T22:27:58.636,2026-03-29T18:27:58.636,-26837.19,-42249.825,-79020.98999999999,-49611.015,-9891.99,-17210.97,6558.21,-60624.405,-2.4124036932129616,-4.1242739207077195,-4.611843034884551,-4.9901777620371135,-5.3474505297209864,-5.247872564544881,-2.272054053978794,-1.204571779094912,0.033264075,-0.924985425,0.404845155,-5.9208799999999995,-5.997179999999999,25.34686,68.0
1774823278.6362908,2.1696090698242188e-05,2026-03-29T22:27:58.636,2026-03-29T18:27:58.636,-26838.09,-42254.505,-79031.52,-49619.205,-9897.48,-17216.055,6552.36,-60628.365,0.38890005402820227,-1.8896863187174313,-3.0261532087609617,-3.7212975403919333,-4.48899020155582,-4.887068792864783,-2.9262510771533905,0.9930859061882896,0.033264075,-0.924985425,0.404845155,-5.9208799999999995,-5.997179999999999,25.34686,68.0
1774823278.6407187,0.004427909851074219,2026-03-29T22:27:58.640,2026-03-29T18:27:58.640,-26846.055,-42258.869999999995,-79034.84999999999,-49622.67,-9900.404999999999,-17219.34,6534.764999999999,-60638.625,2.7729352460400993,1.0903120777056545,-0.10458620927535485,-0.7748658019122663,-1.5820400306637974,-2.218150032690882,-1.8713396509985853,2.606481845446896,0.033264075,-0.924985425,0.404845155,-5.9208799999999995,-5.997179999999999,25.34686,68.0
1774823278.6407337,1.5020370483398438e-05,2026-03-29T22:27:58.640,2026-03-29T18:27:58.640,-26853.93,-42260.58,-79034.535,-49621.409999999996,-9896.805,-17215.47,6543.9,-60648.119999999995,3.679989807258158,3.5243187048215754,2.9064105791002772,2.5737933291103303,2.1117309012624252,1.5630861964179272,0.329194300045576,2.846220541833206,0.033264075,-0.924985425,0.404845155,-5.9208799999999995,-5.997179999999999,25.34686,68.0
1774823278.6446257,0.0038919448852539062,2026-03-29T22:27:58.644,2026-03-29T18:27:58.644,-26841.329999999998,-42250.95,-79027.245,-49615.38,-9889.65,-17207.055,6566.085,-60635.97,2.8320028595168867,4.394473034410571,4.695809632523032,4.837371544680891,4.934664963676289,4.70001203623755,2.4607094418712805,1.6457772141511458,0.033264075,-0.924985425,0.404845155,-5.9208799999999995,-5.997179999999999,25.34686,68.0
1774823278.6446564,3.075599670410156e-05,2026-03-29T22:27:58.644,2026-03-29T18:27:58.644,-26818.92,-42228.314999999995,-79002.72,-49591.619999999995,-9866.97,-17184.555,6586.92,-60617.384999999995,0.7968274973752388,3.3778246980669353,4.456854994236535,4.975762093480574,5.576147400486248,5.692028632599672,3.302354996292839,-0.3254197266928414,0.033264075,-0.924985425,0.404845155,-5.9208799999999995,-5.997179999999999,25.34686,68.0
1774823278.6505136,0.005857229232788086,2026-03-29T22:27:58.650,2026-03-29T18:27:58.650,-26823.645,-42230.52,-79001.86499999999,-49589.46,-9864.18,-17182.215,6581.61,-60622.515,-1.3594959621438567,0.9584990062033197,2.252953852981806,2.8766823327696587,3.6842802944759048,4.0151331806798405,2.2915012570935613,-2.0283352816180926,0.03015129,-0.913754985,0.403746525,-3.6318799999999998,-6.165039999999999,26.76604,68.0
1774823278.6505435,2.9802322387695312e-05,2026-03-29T22:27:58.650,2026-03-29T18:27:58.650,-26843.67,-42251.715,-79024.995,-49612.5,-9887.67,-17206.38,6553.259999999999,-60639.479999999996,-2.6301231836022976,-1.8035154610123165,-0.986130838950369,-0.5653420045245015,0.05948172969816931,0.39904450790552703,-0.14272364331071832,-2.6025765873807036,0.03015129,-0.913754985,0.403746525,-3.6318799999999998,-6.165039999999999,26.76604,68.0
1774823278.654667,0.0041234493255615234,2026-03-29T22:27:58.654,2026-03-29T18:27:58.654,-26850.375,-42262.02,-79036.37999999999,-49624.604999999996,-9898.56,-17217.135,6562.71,-60640.244999999995,-2.5433964392437134,-3.7361287125200264,-3.8495858513863475,-3.8228512089020867,-3.6762848882707497,-3.4855704781432335,-2.762002512903096,-1.807117074611704,0.03015129,-0.913754985,0.403746525,-3.6318799999999998,-6.165039999999999,26.76604,68.0
1774823278.6546907,2.384185791015625e-05,2026-03-29T22:27:58.654,2026-03-29T18:27:58.654,-26849.969999999998,-42264.494999999995,-79040.925,-49630.32,-9904.14,-17221.815,6569.775,-60638.805,-1.3295158288340065,-4.048973516487154,-5.05662923525199,-5.410032614794556,-5.802413721301835,-5.798266685516997,-4.138895448713232,-0.12498546320830678,0.03015129,-0.913754985,0.403746525,-3.6318799999999998,-6.165039999999999,26.76604,68.0
1774823278.6547153,2.4557113647460938e-05,2026-03-29T22:27:58.654,2026-03-29T18:27:58.654,-26838.045,-42259.59,-79041.015,-49630.229999999996,-9906.39,-17224.739999999998,6562.304999999999,-60628.994999999995,0.2763537671031949,-2.651304994663072,-4.030765358369764,-4.562034157118122,-5.294187556486157,-5.402799035236773,-3.406673952783565,1.5159594224273052,0.03015129,-0.913754985,0.403746525,-3.6318799999999998,-6.165039999999999,26.76604,68.0
1774823278.6547275,1.2159347534179688e-05,2026-03-29T22:27:58.654,2026-03-29T18:27:58.654,-26822.835,-42250.59,-79033.14,-49624.02,-9904.77,-17223.524999999998,6561.9,-60613.649999999994,1.4601374383601653,-0.1692248665885816,-1.179344291957709,-1.6079347169720697,-2.3212809861207866,-2.427987473838414,-0.7541841536787499,2.2500634121241605,0.03015129,-0.913754985,0.403746525,-3.6318799999999998,-6.165039999999999,26.76604,68.0
1774823278.659948,0.005220651626586914,2026-03-29T22:27:58.659,2026-03-29T18:27:58.659,-26823.555,-42246.585,-79025.355,-49616.189999999995,-9898.74,-17218.305,6558.12,-60613.604999999996,1.744099409027079,2.33415480432225,2.2588415436438543,2.146238334912644,1.794175344901036,1.7624511465642276,2.601654738666062,1.7338191213274727,0.03015129,-0.913754985,0.403746525,-3.6318799999999998,-6.165039999999999,26.76604,68.0
1774823278.6599617,1.3589859008789062e-05,2026-03-29T22:27:58.659,2026-03-29T18:27:58.659,-26854.02,-42248.52,-79015.41,-49599.9,-9878.31,-17200.44,6555.285,-60654.6,1.1782955029845978,3.8108257417809437,4.746515317761527,4.989520155766273,5.160521121556219,5.192865654329735,4.976326641015128,0.31310104364260455,0.03015129,-0.913754985,0.403746525,-3.6318799999999998,-6.165039999999999,26.76604,68.0
1774823278.665064,0.005102396011352539,2026-03-29T22:27:58.665,2026-03-29T18:27:58.665,-26858.879999999997,-42256.35,-79028.055,-49613.4,-9891.99,-17216.415,6535.08,-60660.045,0.23201529564558276,3.661837852540905,5.13509030797413,5.585456217452668,6.186191505760328,6.207916815721977,5.05137702225338,-1.1870043599119833,0.03015129,-0.913754985,0.403746525,-3.6318799999999998,-6.165039999999999,26.76604,68.0
1774823278.6650763,1.2159347534179688e-05,2026-03-29T22:27:58.665,2026-03-29T18:27:58.665,-26856.629999999997,-42261.705,-79036.29,-49621.095,-9898.83,-17223.345,6526.349999999999,-60658.649999999994,-0.5240324838571466,1.976186383754347,3.1992439642648907,3.6042747360894682,4.336347084510644,4.273817134593113,2.5725533646596355,-1.9291069589655967,0.03015129,-0.913754985,0.403746525,-3.6318799999999998,-6.165039999999999,26.76604,68.0
1774823278.6681275,0.003051280975341797,2026-03-29T22:27:58.668,2026-03-29T18:27:58.668,-26857.035,-42265.08,-79041.06,-49625.729999999996,-9900.99,-17224.02,6536.384999999999,-60662.295,-0.7484478867527338,-0.5182403447442899,-0.23171278935287257,-0.09290882581258807,0.41500548178621,0.2596291019231989,-1.4460403808031324,-1.527876852614203,0.024963315,-0.9064918200000001,0.402159615,-2.47212,-7.477399999999999,27.34592,68.0
1774823278.668144,1.6450881958007812e-05,2026-03-29T22:27:58.668,2026-03-29T18:27:58.668,-26848.62,-42255.585,-79031.745,-49617.854999999996,-9893.115,-17215.649999999998,6557.3099999999995,-60656.67,-0.48604925539571026,-2.7658250484587747,-3.621825579017796,-3.820815160682918,-3.7771365378525443,-3.9496636331700605,-5.139895399484528,-0.25595108299820524,0.024963315,-0.9064918200000001,0.402159615,-2.47212,-7.477399999999999,27.34592,68.0
1774823278.7023687,0.034224748611450195,2026-03-29T22:27:58.702,2026-03-29T18:27:58.702,-26842.995,-42254.865,-79032.42,-49617.63,-9892.529999999999,-17212.364999999998,6587.37,-60644.295,-0.07742588490638787,-3.8252046087686606,-5.413867499023958,-5.83556498621957,-6.267512432856792,-6.337847747699672,-6.659870698057116,1.1208810030568253,0.024963315,-0.9064918200000001,0.402159615,-2.47212,-7.477399999999999,27.34592,68.0
1774823278.7023854,1.6689300537109375e-05,2026-03-29T22:27:58.702,2026-03-29T18:27:58.702,-26842.545,-42253.695,-79029.72,-49614.93,-9890.145,-17211.915,6570.134999999999,-60645.284999999996,0.10400891876817352,-3.2597661062887213,-4.747605680995941,-5.152735429695641,-5.842402786995467,-5.724880954030398,-5.083065506706672,1.7858150038692318,0.024963315,-0.9064918200000001,0.402159615,-2.47212,-7.477399999999999,27.34592,68.0
1774823278.7024088,2.3365020751953125e-05,2026-03-29T22:27:58.702,2026-03-29T18:27:58.702,-26841.239999999998,-42250.275,-79023.78,-49610.384999999995,-9887.085,-17210.97,6554.969999999999,-60645.78,-0.08537861157141233,-1.3169405924086643,-1.8784599506570847,-2.0332151698193974,-2.643278254458424,-2.352014834214744,-0.9254403526635547,1.3422087418198179,0.024963315,-0.9064918200000001,0.402159615,-2.47212,-7.477399999999999,27.34592,68.0
1774823278.7024136,4.76837158203125e-06,2026-03-29T22:27:58.702,2026-03-29T18:27:58.702,-26844.975,-42255.135,-79029.765,-49615.29,-9889.38,-17212.005,6573.554999999999,-60644.295,-0.4629156073585661,1.1768645676108596,1.9095707944076847,2.104901011994951,1.866288497533099,2.2063911644554697,4.0140131312168,0.04739606983371477,0.024963315,-0.9064918200000001,0.402159615,-2.47212,-7.477399999999999,27.34592,68.0
1774823278.7024195,5.9604644775390625e-06,2026-03-29T22:27:58.702,2026-03-29T18:27:58.702,-26845.289999999997,-42255.27,-79029.22499999999,-49614.75,-9890.19,-17211.555,6591.509999999999,-60643.89,-0.6490984756294009,3.1627724658046543,4.8740240343765695,5.3261267864045765,5.566122903879942,5.776298382009788,7.437126999699889,-1.326947709139694,0.024963315,-0.9064918200000001,0.402159615,-2.47212,-7.477399999999999,27.34592,68.0
1774823278.702424,4.5299530029296875e-06,2026-03-29T22:27:58.702,2026-03-29T18:27:58.702,-26837.145,-42247.845,-79021.75499999999,-49606.38,-9882.63,-17205.434999999998,6594.884999999999,-60642.765,-0.3416363842225478,3.7949848152566137,5.616424799236724,6.08290695374684,6.676791467572534,6.62164954115793,7.614321047886809,-1.9353677842836117,0.024963315,-0.9064918200000001,0.402159615,-2.47212,-7.477399999999999,27.34592,68.0
1774823278.7024293,5.245208740234375e-06,2026-03-29T22:27:58.702,2026-03-29T18:27:58.702,-26838.0,-42247.26,-79022.06999999999,-49607.189999999995,-9883.619999999999,-17207.55,6564.33,-60649.92,0.44063670108458963,2.800341948727547,3.747262680864728,3.96302182097824,4.619361790070872,4.290535892744686,4.240763399189505,-1.3554498873686533,0.024963315,-0.9064918200000001,0.402159615,-2.47212,-7.477399999999999,27.34592,68.0
1774823278.702433,3.814697265625e-06,2026-03-29T22:27:58.702,2026-03-29T18:27:58.702,-26849.385,-42254.729999999996,-79029.36,-49615.695,-9893.25,-17220.42,6496.965,-60668.415,1.3075325541914191,0.5996066339306537,0.09503279936976514,-0.0836043106760149,0.3203599009574568,-0.14351530314394512,-1.3363181082135935,0.14255414218735304,0.024963315,-0.9064918200000001,0.402159615,-2.47212,-7.477399999999999,27.34592,68.0
1774823278.702438,5.0067901611328125e-06,2026-03-29T22:27:58.702,2026-03-29T18:27:58.702,-26838.719999999998,-42245.055,-79019.055,-49605.479999999996,-9883.529999999999,-17210.565,6521.085,-60657.299999999996,1.6926849529128356,-1.86499441098076,-3.6543052985389926,-4.163896874924608,-4.199801095978888,-4.573766441142704,-6.657393448466472,1.7170173221719014,0.01879878,-0.9043555950000001,0.40087788,-3.95234,-9.20178,28.108919999999998,68.0
1774823278.702442,3.814697265625e-06,2026-03-29T22:27:58.702,2026-03-29T18:27:58.702,-26840.52,-42253.29,-79030.70999999999,-49616.64,-9893.609999999999,-17219.79,6556.05,-60647.445,1.1961464840746163,-3.5285015670804754,-5.734144363629887,-6.325109444729657,-6.775056899498416,-6.861437353685505,-9.24030042676669,2.414891965236474,0.01879878,-0.9043555950000001,0.40087788,-3.95234,-9.20178,28.108919999999998,68.0
1774823278.7024467,4.76837158203125e-06,2026-03-29T22:27:58.702,2026-03-29T18:27:58.702,-26831.16,-42250.95,-79035.345,-49620.33,-9895.904999999999,-17221.005,6591.15,-60630.615,-0.12391139515208352,-3.662287773269535,-5.133257428075568,-5.491514365159801,-6.134143851259911,-5.86990027598341,-7.735147640955335,1.7234629044636687,0.01879878,-0.9043555950000001,0.40087788,-3.95234,-9.20178,28.108919999999998,68.0
1774823278.70245,3.337860107421875e-06,2026-03-29T22:27:58.702,2026-03-29T18:27:58.702,-26828.504999999997,-42246.18,-79030.17,-49617.63,-9893.52,-17219.655,6580.665,-60632.865,-1.6973761709390904,-2.1964384145756126,-2.0938325450996946,-2.0039963568611316,-2.5322621622256816,-2.030937096685222,-2.6084925419519585,-0.09667375878491088,0.01879878,-0.9043555950000001,0.40087788,-3.95234,-9.20178,28.108919999999998,68.0
1774823278.7024546,4.5299530029296875e-06,2026-03-29T22:27:58.702,2026-03-29T18:27:58.702,-26827.829999999998,-42233.76,-79010.325,-49594.905,-9868.005,-17190.675,6579.0,-60642.899999999994,-2.6896661592484556,0.2387098742440026,1.9764655343796182,2.5098687526403243,2.3417740993510625,2.8398491865914757,3.9824685843798497,-2.1000972457894904,0.01879878,-0.9043555950000001,0.40087788,-3.95234,-9.20178,28.108919999999998,68.0
1774823278.7024581,3.5762786865234375e-06,2026-03-29T22:27:58.702,2026-03-29T18:27:58.702,-26839.26,-42244.47,-79020.495,-49604.49,-9878.265,-17199.855,6561.764999999999,-60653.61,-2.442362153931925,2.5780183968454407,5.152586479832674,5.8915274558242325,6.15470835267878,6.401580126878757,9.102852666320624,-3.1426581448832893,0.01879878,-0.9043555950000001,0.40087788,-3.95234,-9.20178,28.108919999999998,68.0
1774823278.702463,4.76837158203125e-06,2026-03-29T22:27:58.702,2026-03-29T18:27:58.702,-26849.204999999998,-42258.195,-79035.345,-49619.97,-9893.88,-17217.675,6556.1849999999995,-60657.165,-0.8749387994491218,3.785510205813799,5.9039470249040615,6.48396290241843,7.046854677456692,6.914743883253866,10.351886185111887,-2.516783761165751,0.01879878,-0.9043555950000001,0.40087788,-3.95234,-9.20178,28.108919999999998,68.0
1774823278.7024665,3.5762786865234375e-06,2026-03-29T22:27:58.702,2026-03-29T18:27:58.702,-26848.35,-42260.49,-79037.86499999999,-49622.354999999996,-9895.815,-17219.52,6566.58,-60654.329999999994,1.3863134671169013,3.3160907929954284,3.8375726604869143,3.9469407526184126,4.542643363819972,4.092860996793389,6.985549015370024,-0.38956360640363163,0.01879878,-0.9043555950000001,0.40087788,-3.95234,-9.20178,28.108919999999998,68.0
1774823278.7057793,0.003312826156616211,2026-03-29T22:27:58.705,2026-03-29T18:27:58.705,-26838.045,-42255.0,-79034.985,-49621.229999999996,-9896.13,-17218.755,6566.58,-60642.765,3.2556069883056935,1.3679720374158646,-0.09072585860121576,-0.5476656905117436,-0.19387383101821362,-0.7389403995238449,0.32635211336318387,2.214170689267916,0.01879878,-0.9043555950000001,0.40087788,-3.95234,-9.20178,28.108919999999998,68.0
1774823278.705798,1.8596649169921875e-05,2026-03-29T22:27:58.705,2026-03-29T18:27:58.705,-26828.414999999997,-42257.295,-79042.95,-49630.77,-9906.57,-17227.665,6566.8949999999995,-60626.744999999995,3.7150632472675076,-1.1941793418607007,-4.012571275378621,-4.85212935350341,-4.8965551321998415,-5.2657542595965126,-6.755472678832128,3.9058956806674554,0.01879878,-0.9043555950000001,0.40087788,-3.95234,-9.20178,28.108919999999998,68.0
1774823278.7083664,0.002568483352661133,2026-03-29T22:27:58.708,2026-03-29T18:27:58.708,-26835.21,-42262.65,-79044.39,-49633.11,-9910.305,-17230.995,6558.165,-60632.729999999996,2.363042034004922,-3.219818142339731,-6.034578169368144,-6.867938280067166,-7.281399438981408,-7.293744214080633,-11.086738893945704,3.665833642341506,0.015319785,-0.909970815,0.401060985,-5.646199999999999,-10.86512,29.360239999999997,68.0
1774823278.708388,2.1696090698242188e-05,2026-03-29T22:27:58.708,2026-03-29T18:27:58.708,-26843.715,-42258.24,-79031.06999999999,-49617.99,-9895.32,-17216.73,6546.6449999999995,-60651.945,-0.30999205668882823,-3.7913098687520908,-5.1562127550207,-5.5709837454602935,-6.158677733845804,-5.816160398615998,-10.619417020533701,1.4299799766400594,0.015319785,-0.909970815,0.401060985,-5.646199999999999,-10.86512,29.360239999999997,68.0
1774823278.712366,0.00397801399230957,2026-03-29T22:27:58.712,2026-03-29T18:27:58.712,-26854.739999999998,-42250.994999999995,-79018.605,-49603.185,-9880.56,-17202.825,6547.545,-60676.47,-3.0893430504762116,-2.6462125824135865,-1.7713218015349443,-1.5349400787649392,-2.0299629506291414,-1.5150961456284309,-5.39688544467111,-1.7967637178417264,0.015319785,-0.909970815,0.401060985,-5.646199999999999,-10.86512,29.360239999999997,68.0
1774823278.712397,3.0994415283203125e-05,2026-03-29T22:27:58.712,2026-03-29T18:27:58.712,-26854.739999999998,-42258.06,-79031.745,-49617.585,-9892.664999999999,-17216.145,6547.86,-60672.78,-4.596107585762964,-0.3055702301057647,2.500839621278375,3.31605683997872,3.131292396790763,3.5522309143697854,2.397081919542588,-4.394040919777137,0.015319785,-0.909970815,0.401060985,-5.646199999999999,-10.86512,29.360239999999997,68.0
1774823278.71662,0.004222869873046875,2026-03-29T22:27:58.716,2026-03-29T18:27:58.716,-26849.745,-42261.299999999996,-79041.69,-49630.77,-9902.789999999999,-17225.64,6557.759999999999,-60663.735,-3.9770986367110797,2.1582036027701026,5.586824345448865,6.622523926240487,6.822386344088258,6.939293428333402,9.357563288525379,-4.940352098767931,0.015319785,-0.909970815,0.401060985,-5.646199999999999,-10.86512,29.360239999999997,68.0
1774823278.7166479,2.7894973754882812e-05,2026-03-29T22:27:58.716,2026-03-29T18:27:58.716,-26843.175,-42256.305,-79036.515,-49626.18,-9896.85,-17218.89,6579.9,-60654.915,-1.3765727963615804,3.61325384991665,5.966811122255934,6.738431715475998,7.227342316448045,6.995101389051367,12.356890052508934,-2.978073413316957,0.015319785,-0.909970815,0.401060985,-5.646199999999999,-10.86512,29.360239999999997,68.0
1774823278.727785,0.011137247085571289,2026-03-29T22:27:58.727,2026-03-29T18:27:58.727,-26846.37,-42258.24,-79035.885,-49623.119999999995,-9895.14,-17218.53,6571.485,-60660.09,2.0671335056097146,3.394364195295954,3.4284940265225727,3.553714473886411,4.114192718871983,3.672544923185563,9.958305855461264,0.6781228334711369,0.015319785,-0.909970815,0.401060985,-5.646199999999999,-10.86512,29.360239999999997,68.0
1774823278.727822,3.695487976074219e-05,2026-03-29T22:27:58.727,2026-03-29T18:27:58.727,-26841.015,-42249.825,-79023.95999999999,-49609.395,-9882.72,-17206.38,6565.905,-60660.314999999995,4.727207748639057,1.6158386872913575,-0.809344250053253,-1.422088913653726,-1.0317867676644188,-1.437430632693459,3.1021053682663395,4.278517420262189,0.015319785,-0.909970815,0.401060985,-5.646199999999999,-10.86512,29.360239999999997,68.0
1774823278.7278676,4.553794860839844e-05,2026-03-29T22:27:58.727,2026-03-29T18:27:58.727,-26830.8,-42240.42,-79012.935,-49598.325,-9871.92,-17195.625,6582.33,-60648.704999999994,5.267825307931533,-0.8802710449318986,-4.676831271663398,-5.772520967631475,-5.71551937855949,-5.869022058191352,-5.263354244006487,5.982044100806738,0.015319785,-0.909970815,0.401060985,-5.646199999999999,-10.86512,29.360239999999997,68.0
1774823278.7278798,1.2159347534179688e-05,2026-03-29T22:27:58.727,2026-03-29T18:27:58.727,-26840.385,-42252.795,-79027.65,-49614.479999999996,-9890.1,-17214.48,6552.045,-60656.534999999996,3.318672070549568,-2.9208231944362413,-6.2631101768889,-7.348323075234391,-7.644086367649908,-7.475707981249496,-11.461391728375103,4.796266875399101,0.015319785,-0.909970815,0.401060985,-5.646199999999999,-10.86512,29.360239999999997,68.0
1774823278.727894,1.430511474609375e-05,2026-03-29T22:27:58.727,2026-03-29T18:27:58.727,-26858.475,-42269.67,-79047.22499999999,-49634.189999999995,-9908.91,-17235.72,6472.62,-60681.329999999994,-0.29805075222402444,-3.5574305043107675,-4.764001156148456,-5.332210235600627,-5.853481333735572,-5.475174586011498,-12.717005887584067,1.1336498146898475,0.016906695,-0.924253005,0.40087788,-3.8455199999999996,-11.47552,31.14566,68.0
1774823278.7279048,1.0728836059570312e-05,2026-03-29T22:27:58.727,2026-03-29T18:27:58.727,-26851.545,-42258.645,-79033.59,-49619.295,-9893.789999999999,-17221.14,6481.485,-60680.564999999995,-3.9194811988049003,-2.516134867412202,-0.8955677877900335,-0.6652368901166557,-1.1942816637961722,-0.8337911312332781,-8.408069337381061,-3.320249494367178,0.016906695,-0.924253005,0.40087788,-3.8455199999999996,-11.47552,31.14566,68.0
1774823278.7322352,0.00433039665222168,2026-03-29T22:27:58.732,2026-03-29T18:27:58.732,-26829.315,-42237.405,-79010.37,-49595.4,-9869.94,-17196.345,6549.57,-60657.704999999994,-5.8194684231776685,-0.32344797091237576,3.4416464464362764,4.388934739188476,4.070469280146378,4.200315541239768,-0.36910691951337193,-6.391472590694396,0.016906695,-0.924253005,0.40087788,-3.8455199999999996,-11.47552,31.14566,68.0
1774823278.732268,3.2901763916015625e-05,2026-03-29T22:27:58.732,2026-03-29T18:27:58.732,-26822.07,-42238.89,-79016.04,-49601.7,-9874.44,-17197.245,6619.59,-60637.409999999996,-5.041754192144165,1.9536603996410706,6.093436573214889,7.342209956246709,7.366353729609928,7.190349595320394,7.899751721077718,-6.485416648921884,0.016906695,-0.924253005,0.40087788,-3.8455199999999996,-11.47552,31.14566,68.0
1774823278.7360423,0.0037741661071777344,2026-03-29T22:27:58.736,2026-03-29T18:27:58.736,-26825.805,-42248.295,-79031.87999999999,-49618.17,-9890.19,-17212.905,6607.08,-60639.119999999995,-1.8817568885933607,3.228153007672042,5.723225357491348,6.709919643291504,7.0711555678537135,6.69694732120055,12.773254967581083,-3.4097488453386533,0.016906695,-0.924253005,0.40087788,-3.8455199999999996,-11.47552,31.14566,68.0
1774823278.7360697,2.7418136596679688e-05,2026-03-29T22:27:58.736,2026-03-29T18:27:58.736,-26815.14,-42233.22,-79014.87,-49601.564999999995,-9873.359999999999,-17197.829999999998,6595.38,-60639.165,2.2263140520837497,2.919386542159775,2.4903280141746937,2.7608909732523195,3.318430305067045,2.976912425528921,12.105324131957957,1.470738328475426,0.016906695,-0.924253005,0.40087788,-3.8455199999999996,-11.47552,31.14566,68.0
1774823278.7401388,0.004069089889526367,2026-03-29T22:27:58.740,2026-03-29T18:27:58.740,-26807.67,-42223.14,-79004.06999999999,-49590.81,-9860.895,-17185.32,6597.8099999999995,-60638.22,5.3731370222077555,1.2271793957563237,-2.0111461098956323,-2.591146386917114,-2.059644477679063,-2.147621293661292,6.179972107062892,5.848549715635875,0.016906695,-0.924253005,0.40087788,-3.8455199999999996,-11.47552,31.14566,68.0
1774823278.740162,2.3126602172851562e-05,2026-03-29T22:27:58.740,2026-03-29T18:27:58.740,-26814.375,-42244.11,-79040.11499999999,-49628.61,-9897.3,-17218.305,6550.29,-60643.799999999996,6.075365483166974,-0.980640707505449,-5.5340919463705225,-6.714714111898689,-6.42789867779912,-6.18451579166862,-2.4157331535698914,7.576109872396576,0.016906695,-0.924253005,0.40087788,-3.8455199999999996,-11.47552,31.14566,68.0
1774823278.74491,0.004748106002807617,2026-03-29T22:27:58.744,2026-03-29T18:27:58.744,-26817.03,-42258.555,-79062.56999999999,-49651.38,-9919.125,-17236.98,6552.495,-60637.14,3.982233318071336,-2.6090950935455006,-6.299406339196135,-7.557439883723886,-7.6441899175179335,-7.190569859333976,-9.937257206944365,5.724036121314249,0.016906695,-0.924253005,0.40087788,-3.8455199999999996,-11.47552,31.14566,68.0
1774823278.744933,2.288818359375e-05,2026-03-29T22:27:58.744,2026-03-29T18:27:58.744,-26833.725,-42262.92,-79048.08,-49634.235,-9903.33,-17225.01,6583.995,-60644.79,0.047459872689783085,-2.883047684471091,-3.8971099890051426,-4.672047829572443,-5.116178784952436,-4.714784042644091,-13.132051910604735,1.0709918225334008,0.016906695,-0.924253005,0.40087788,-3.8455199999999996,-11.47552,31.14566,68.0
1774823278.7508807,0.00594782829284668,2026-03-29T22:27:58.750,2026-03-29T18:27:58.750,-26845.245,-42262.56,-79036.83,-49622.715,-9895.635,-17219.97,6569.955,-60658.11,-3.91652076394917,-1.7252759684099728,0.4902163079257803,0.5436940250401816,-0.09439691843534248,-0.004252101789355453,-10.657534525667295,-4.2295947437252766,0.02124018,-0.9395117550000001,0.40161030000000003,5.20366,-11.79598,32.717439999999996,68.0
1774823278.750912,3.123283386230469e-05,2026-03-29T22:27:58.750,2026-03-29T18:27:58.750,-26851.364999999998,-42269.31,-79044.39,-49631.265,-9905.4,-17230.77,6540.389999999999,-60667.244999999995,-6.08820159114174,0.22307752139182968,4.664921712469355,5.523025369819213,4.94585166402602,4.623592393716177,-3.6436563642148405,-7.660050360655191,0.02124018,-0.9395117550000001,0.40161030000000003,5.20366,-11.79598,32.717439999999996,68.0
1774823278.75206,0.0011479854583740234,2026-03-29T22:27:58.752,2026-03-29T18:27:58.752,-26858.204999999998,-42259.229999999996,-79026.705,-49610.564999999995,-9882.99,-17209.98,6531.795,-60688.439999999995,-5.485049715418445,1.9458626116033078,6.512865747763834,7.796027114811017,7.528751648211468,6.926888124980047,4.835006216803891,-7.545311051851969,0.02124018,-0.9395117550000001,0.40161030000000003,5.20366,-11.79598,32.717439999999996,68.0
1774823278.7520688,8.821487426757812e-06,2026-03-29T22:27:58.752,2026-03-29T18:27:58.752,-26853.795,-42252.345,-79019.50499999999,-49603.049999999996,-9875.835,-17204.175,6554.565,-60687.27,-2.4097470547542668,2.5794914763571493,5.074726955282487,6.219768671226415,6.401085826006388,5.834362800504405,11.125841824177968,-3.8722594730990996,0.02124018,-0.9395117550000001,0.40161030000000003,5.20366,-11.79598,32.717439999999996,68.0
1774823278.7575436,0.00547480583190918,2026-03-29T22:27:58.757,2026-03-29T18:27:58.757,-26841.645,-42250.59,-79021.75499999999,-49607.28,-9879.795,-17208.495,6594.795,-60667.56,1.7088580563074716,1.8516381362484808,1.0465942759711315,1.557656548922714,2.146637586993284,1.9504492436031204,12.58709155857102,1.6802197738373754,0.02124018,-0.9395117550000001,0.40161030000000003,5.20366,-11.79598,32.717439999999996,68.0
1774823278.7575653,2.1696090698242188e-05,2026-03-29T22:27:58.757,2026-03-29T18:27:58.757,-26834.985,-42249.33,-79024.95,-49612.32,-9884.385,-17213.22,6590.5199999999995,-60664.32,4.993668390987756,0.20559102172696034,-3.5526205359261898,-3.8879963669637037,-3.112533238802677,-2.771208348575063,8.70032646641625,6.522530746515874,0.02124018,-0.9395117550000001,0.40161030000000003,5.20366,-11.79598,32.717439999999996,68.0
1774823278.7605689,0.0030035972595214844,2026-03-29T22:27:58.760,2026-03-29T18:27:58.760,-26836.695,-42258.689999999995,-79040.11499999999,-49630.095,-9900.539999999999,-17226.675,6544.259999999999,-60668.954999999994,5.987778358563412,-1.4505535752130594,-6.390219100972558,-7.414681771252546,-6.776795257125486,-6.01280264998264,1.236461596591204,8.376713319404827,0.02124018,-0.9395117550000001,0.40161030000000003,5.20366,-11.79598,32.717439999999996,68.0
1774823278.760588,1.9073486328125e-05,2026-03-29T22:27:58.760,2026-03-29T18:27:58.760,-26827.605,-42257.655,-79039.53,-49632.795,-9906.75,-17232.524999999998,6521.58,-60653.52,4.305336971502054,-2.234274793558692,-6.001997036537326,-7.265760836858053,-7.060552652889544,-6.238456058290745,-6.566653034138783,6.355884797925702,0.02124018,-0.9395117550000001,0.40161030000000003,5.20366,-11.79598,32.717439999999996,68.0
1774823278.7645917,0.004003763198852539,2026-03-29T22:27:58.764,2026-03-29T18:27:58.764,-26822.565,-42252.345,-79032.825,-49624.155,-9897.21,-17224.47,6549.66,-60643.395,0.7718093497659783,-1.7576368837395036,-2.548617144647736,-3.5111211852924558,-3.8700146222721137,-3.430976744701792,-11.426098011904559,1.3854479565647493,0.02124018,-0.9395117550000001,0.40161030000000003,5.20366,-11.79598,32.717439999999996,68.0
1774823278.7646167,2.5033950805664062e-05,2026-03-29T22:27:58.764,2026-03-29T18:27:58.764,-26836.155,-42245.64,-79019.09999999999,-49607.46,-9879.57,-17208.405,6558.255,-60665.805,-2.991296144098135,-0.3260463779760365,2.245262237340565,1.98180736735148,1.1680304881969044,0.9384633537786616,-11.402437533230852,-4.23274492216143,0.02124018,-0.9395117550000001,0.40161030000000003,5.20366,-11.79598,32.717439999999996,68.0
1774823278.770589,0.005972385406494141,2026-03-29T22:27:58.770,2026-03-29T18:27:58.770,-26842.545,-42242.534999999996,-79010.775,-49597.155,-9869.4,-17197.425,6565.05,-60679.665,-5.323791732768191,1.2380656089777486,5.949765815791039,6.476974259433217,5.534524205346275,4.677061515133791,-6.6640368726811925,-7.902251567787462,0.02294916,-0.965756805,0.392882295,29.2992,-12.10118,36.18146,68.0
1774823278.770605,1.5974044799804688e-05,2026-03-29T22:27:58.770,2026-03-29T18:27:58.770,-26841.015,-42244.47,-79013.655,-49599.54,-9872.055,-17199.27,6572.7,-60677.369999999995,-5.266083013902053,2.050868110067198,6.659903277498703,7.736491825852966,7.0823625265230845,5.97577476693466,0.6686650161350186,-7.943894937045649,0.02294916,-0.965756805,0.392882295,29.2992,-12.10118,36.18146,68.0
1774823278.7706225,1.7404556274414062e-05,2026-03-29T22:27:58.770,2026-03-29T18:27:58.770,-26837.19,-42251.04,-79026.795,-49612.275,-9884.07,-17210.97,6546.105,-60672.6,-2.9478032211470633,1.6556054459056935,3.97464245885744,5.140678702683794,5.10000104813446,4.294080118010226,7.488178942570358,-4.366288473262573,0.02294916,-0.965756805,0.392882295,29.2992,-12.10118,36.18146,68.0
1774823278.7706296,7.152557373046875e-06,2026-03-29T22:27:58.770,2026-03-29T18:27:58.770,-26843.129999999997,-42262.11,-79038.45,-49624.155,-9897.705,-17224.065,6525.719999999999,-60667.784999999996,0.5278659905353115,0.2779207011070774,-0.778313876734331,-0.0019773190483969682,0.6439833898004109,0.5871632511683438,11.027593991582838,1.1595065225849643,0.02294916,-0.965756805,0.392882295,29.2992,-12.10118,36.18146,68.0
1774823278.778568,0.007938385009765625,2026-03-29T22:27:58.778,2026-03-29T18:27:58.778,-26832.285,-42258.375,-79041.78,-49630.545,-9904.41,-17229.78,6546.554999999999,-60650.82,3.620478593998463,-1.2941179937462972,-5.197357961425068,-5.112362695325134,-4.017768982813584,-3.221357190716562,9.978398643278913,6.095368712612469,0.02294916,-0.965756805,0.392882295,29.2992,-12.10118,36.18146,68.0
1774823278.7786007,3.266334533691406e-05,2026-03-29T22:27:58.778,2026-03-29T18:27:58.778,-26829.405,-42254.82,-79037.145,-49623.795,-9893.475,-17219.565,6589.755,-60647.445,5.043228260960303,-2.1446977087747743,-7.019188227571945,-7.636250261161272,-6.561168358784572,-5.23584117906584,4.949671347359718,8.215978036639825,0.02294916,-0.965756805,0.392882295,29.2992,-12.10118,36.18146,68.0
1774823278.7830365,0.00443577766418457,2026-03-29T22:27:58.783,2026-03-29T18:27:58.783,-26829.989999999998,-42254.595,-79035.97499999999,-49622.715,-9891.99,-17218.26,6593.759999999999,-60649.155,4.294547774923428,-1.7456182386732138,-5.276868670195964,-6.326054000112098,-5.770822770100087,-4.538832713344524,-1.877983801834334,6.617976259876487,0.02294916,-0.965756805,0.392882295,29.2992,-12.10118,36.18146,68.0
1774823278.7830665,3.0040740966796875e-05,2026-03-29T22:27:58.783,2026-03-29T18:27:58.783,-26854.425,-42260.22,-79030.44,-49617.63,-9889.065,-17212.14,6579.09,-60679.845,1.8131764589616555,-0.26875732578185507,-0.8113779989944504,-1.8632715982243906,-2.127971555256666,-1.6159410989041763,-7.710419343172173,2.0980796493297382,0.02294916,-0.965756805,0.392882295,29.2992,-12.10118,36.18146,68.0
1774823278.7857738,0.002707242965698242,2026-03-29T22:27:58.785,2026-03-29T18:27:58.785,-26856.989999999998,-42258.375,-79026.93,-49612.814999999995,-9885.69,-17208.675,6567.255,-60683.04,-1.2765198824540098,1.4837783437921657,4.133465315293194,3.491530764127576,2.4661953152774303,1.9446874757313148,-10.28313497310279,-3.2541325712447096,0.02294916,-0.965756805,0.392882295,29.2992,-12.10118,36.18146,68.0
1774823278.785797,2.3365020751953125e-05,2026-03-29T22:27:58.785,2026-03-29T18:27:58.785,-26847.045,-42256.17,-79032.51,-49617.54,-9888.255,-17213.805,6565.545,-60675.57,-3.682409626317802,2.506047492728655,7.038083262022073,7.0432124852001605,5.678362878302894,4.303584309051623,-8.722379281456243,-7.036418110006578,0.02294916,-0.965756805,0.392882295,29.2992,-12.10118,36.18146,68.0
1774823278.7881613,0.0023641586303710938,2026-03-29T22:27:58.788,2026-03-29T18:27:58.788,-26837.01,-42248.52,-79025.355,-49609.755,-9881.865,-17207.28,6578.73,-60664.229999999996,-4.482995546823595,2.148013191391638,6.390104600371469,7.021710408386828,5.930539265007409,4.320147568335343,-3.8069191028247684,-7.620544740560344,0.026916435,-1.00439196,0.39990132,69.92132,-11.96384,34.0298,68.0
1774823278.7881792,1.7881393432617188e-05,2026-03-29T22:27:58.788,2026-03-29T18:27:58.788,-26836.11,-42247.979999999996,-79022.565,-49608.54,-9882.81,-17207.774999999998,6574.32,-60659.865,-3.4633323321472416,0.5035096765069778,2.47003260273423,3.4694604080186817,3.1817849925246837,2.1110882747042057,2.425710305458782,-4.8499362884984425,0.026916435,-1.00439196,0.39990132,69.92132,-11.96384,34.0298,68.0
1774823278.792364,0.004184722900390625,2026-03-29T22:27:58.792,2026-03-29T18:27:58.792,-26841.149999999998,-42254.865,-79032.015,-49618.35,-9890.685,-17215.29,6570.0,-60662.07,-1.136609293213401,-1.5966003686526795,-2.7679915910898663,-1.7906346180968418,-1.0858537870546152,-1.0591899559400821,7.527581128621952,-0.05157352066876589,0.026916435,-1.00439196,0.39990132,69.92132,-11.96384,34.0298,68.0
1774823278.7923875,2.3603439331054688e-05,2026-03-29T22:27:58.792,2026-03-29T18:27:58.792,-26844.39,-42259.229999999996,-79038.09,-49622.31,-9892.574999999999,-17218.125,6565.5,-60666.84,1.5189455582366689,-3.0018478703663813,-6.671019877764729,-6.0873366901532195,-4.656152932221318,-3.480255056700482,9.588493666645993,4.610995602893625,0.026916435,-1.00439196,0.39990132,69.92132,-11.96384,34.0298,68.0
1774823278.796078,0.003690481185913086,2026-03-29T22:27:58.796,2026-03-29T18:27:58.796,-26837.414999999997,-42253.965,-79033.185,-49618.89,-9890.775,-17215.47,6567.12,-60660.045,3.4708651949609375,-2.861431275326167,-7.2310347526401,-7.25787105975736,-5.726306634793081,-3.9078812402192824,7.924098211018607,7.1228990085921655,0.026916435,-1.00439196,0.39990132,69.92132,-11.96384,34.0298,68.0
1774823278.7960956,1.7642974853515625e-05,2026-03-29T22:27:58.796,2026-03-29T18:27:58.796,-26839.62,-42250.365,-79025.895,-49611.509999999995,-9884.07,-17209.89,6563.25,-60663.24,4.01885551591699,-1.1160817787247317,-4.11673610693132,-4.739970949437167,-3.8203487164717704,-2.2044419489859455,3.2716493105009103,6.488247405202205,0.026916435,-1.00439196,0.39990132,69.92132,-11.96384,34.0298,68.0
1774823278.8003156,0.004220008850097656,2026-03-29T22:27:58.800,2026-03-29T18:27:58.800,-26843.895,-42251.445,-79026.075,-49610.744999999995,-9883.484999999999,-17210.88,6561.134999999999,-60667.74,3.0213964068485004,1.4137309988292552,1.1364436180045763,0.15371403170529224,-0.004354900283257778,0.6223507104256025,-2.542382876852516,3.1103234815949947,0.026916435,-1.00439196,0.39990132,69.92132,-11.96384,34.0298,68.0
1774823278.8003504,3.4809112548828125e-05,2026-03-29T22:27:58.800,2026-03-29T18:27:58.800,-26834.219999999998,-42243.615,-79018.965,-49603.68,-9876.779999999999,-17203.815,6560.594999999999,-60660.63,0.905407690019095,3.4142814879807233,5.884861476783438,4.914608631671212,3.695426594975433,2.9896752016440824,-7.310560849770518,-1.454435832088657,0.026916435,-1.00439196,0.39990132,69.92132,-11.96384,34.0298,68.0
1774823278.8055425,0.0051920413970947266,2026-03-29T22:27:58.805,2026-03-29T18:27:58.805,-26826.704999999998,-42230.25,-79002.9,-49586.49,-9859.23,-17187.255,6574.32,-60656.265,-1.5172288774156606,3.7574631619211027,7.708296060953947,7.121308981948591,5.359099008351425,3.6048954692775834,-9.258982926109823,-5.222736150994507,0.026916435,-1.00439196,0.39990132,69.92132,-11.96384,34.0298,68.0
1774823278.805572,2.956390380859375e-05,2026-03-29T22:27:58.805,2026-03-29T18:27:58.805,-26831.969999999998,-42234.525,-79009.155,-49594.365,-9868.59,-17197.649999999998,6570.764999999999,-60657.03,-3.3471078193360553,2.1224815062304847,5.643233263961482,5.671456760276394,4.166484554809728,2.160535366790235,-7.680831569569819,-6.647890055781656,0.026916435,-1.00439196,0.39990132,69.92132,-11.96384,34.0298,68.0
1774823278.8082669,0.002694845199584961,2026-03-29T22:27:58.808,2026-03-29T18:27:58.808,-26851.815,-42261.84,-79044.435,-49629.645,-9902.925,-17232.03,6546.509999999999,-60664.005,-3.9084314772600033,-0.7769155909705343,0.6892941783102127,1.33545946748776,0.8045572871386878,-0.5104466239499825,-3.177682536349128,-5.244154816741249,0.04748523,-1.01501205,0.41638077,111.90158,-5.8751,33.23628,68.0
1774823278.8082943,2.7418136596679688e-05,2026-03-29T22:27:58.808,2026-03-29T18:27:58.808,-26848.44,-42267.465,-79054.65,-49641.975,-9914.22,-17242.155,6564.285,-60648.975,-2.9806641987167226,-3.503664044547501,-4.676334048458135,-3.647260033074421,-2.914570895498558,-2.897800222714219,2.56518647212236,-1.7263775734629463,0.04748523,-1.01501205,0.41638077,111.90158,-5.8751,33.23628,68.0
1774823278.812382,0.004087686538696289,2026-03-29T22:27:58.812,2026-03-29T18:27:58.812,-26838.315,-42258.96,-79046.73,-49635.945,-9909.63,-17237.34,6563.16,-60641.954999999994,-0.8827040490264273,-4.611745913967508,-7.739815856088889,-6.7198315903799015,-5.017311598556702,-3.6437155985104583,7.388405930568136,2.357293732568077,0.04748523,-1.01501205,0.41638077,111.90158,-5.8751,33.23628,68.0
1774823278.812403,2.09808349609375e-05,2026-03-29T22:27:58.812,2026-03-29T18:27:58.812,-26838.18,-42250.049999999996,-79030.8,-49617.854999999996,-9890.865,-17216.64,6563.925,-60648.93,1.621099380817165,-3.4075939313641253,-6.9242043691125374,-6.316919215171644,-4.4062397515599265,-2.291794993621057,9.444610145397403,5.30967386011599,0.04748523,-1.01501205,0.41638077,111.90158,-5.8751,33.23628,68.0
1774823278.817963,0.0055599212646484375,2026-03-29T22:27:58.817,2026-03-29T18:27:58.817,-26842.815,-42249.555,-79025.895,-49610.43,-9882.539999999999,-17208.315,6572.205,-60652.799999999996,3.5761140069486395,-0.3596535960488891,-2.599859117842726,-2.6620890339664007,-1.4298783129681303,0.44944676142973916,7.889347836641867,5.982339175012059,0.04748523,-1.01501205,0.41638077,111.90158,-5.8751,33.23628,68.0
1774823278.8179884,2.5510787963867188e-05,2026-03-29T22:27:58.817,2026-03-29T18:27:58.817,-26833.59,-42253.515,-79038.45,-49625.595,-9897.119999999999,-17222.489999999998,6561.36,-60638.715,4.183652934756421,3.077345347673521,3.0842601451726703,2.352503991231709,2.3098540344232394,3.075048719832385,3.2273936405229917,4.204875557443602,0.04748523,-1.01501205,0.41638077,111.90158,-5.8751,33.23628,68.0
1774823278.8291032,0.011114835739135742,2026-03-29T22:27:58.829,2026-03-29T18:27:58.829,-26846.28,-42249.33,-79026.20999999999,-49612.005,-9884.34,-17211.915,6535.755,-60661.755,3.123644654139853,5.161391837088193,7.271311718534387,6.140486797116217,4.808070095345034,4.093001917480099,-2.827614053147166,0.7958497962518286,0.04748523,-1.01501205,0.41638077,111.90158,-5.8751,33.23628,68.0
1774823278.8291297,2.6464462280273438e-05,2026-03-29T22:27:58.829,2026-03-29T18:27:58.829,-26870.175,-42258.555,-79026.3,-49612.59,-9885.734999999999,-17211.96,6522.795,-60687.405,0.7254946464904188,4.747454068281889,7.834456097832557,6.749714943578832,4.717908391883998,2.8450625749039906,-7.956475486017018,-2.8164573990646122,0.04748523,-1.01501205,0.41638077,111.90158,-5.8751,33.23628,68.0
1774823278.829154,2.4318695068359375e-05,2026-03-29T22:27:58.829,2026-03-29T18:27:58.829,-26863.425,-42262.604999999996,-79034.08499999999,-49621.229999999996,-9892.529999999999,-17216.505,6543.675,-60670.35,-2.1050014637431915,1.9074193047053696,4.4571615197925105,3.864454601026949,2.065754585495229,-0.10307147951221494,-10.10351547594535,-5.187077829791317,0.04748523,-1.01501205,0.41638077,111.90158,-5.8751,33.23628,68.0
1774823278.8291612,7.152557373046875e-06,2026-03-29T22:27:58.829,2026-03-29T18:27:58.829,-26857.079999999998,-42268.77,-79052.31,-49637.07,-9903.914999999999,-17227.485,6568.469999999999,-60656.354999999996,-4.208653763696052,-2.046464191077245,-1.1928794306973562,-1.031665614693973,-1.7548752310967084,-3.222169239857311,-8.296200526576884,-5.418535280553353,0.04748523,-1.01501205,0.41638077,111.90158,-5.8751,33.23628,68.0
1774823278.8291695,8.344650268554688e-06,2026-03-29T22:27:58.829,2026-03-29T18:27:58.829,-26841.645,-42253.335,-79036.33499999999,-49621.905,-9891.539999999999,-17217.809999999998,6560.1449999999995,-60644.655,-4.642532367057985,-5.17274513896742,-6.290208218268061,-5.415563628801258,-4.710038129040044,-4.808268058330659,-3.0905290663500313,-3.484340674981613,0.062560875,-0.996030165,0.43096813500000003,140.75824,-0.35097999999999996,33.78564,68.0
1774823278.829176,6.4373016357421875e-06,2026-03-29T22:27:58.829,2026-03-29T18:27:58.829,-26859.555,-42258.42,-79031.565,-49614.57,-9884.52,-17209.62,6578.82,-60661.125,-3.1089609471182844,-5.8596406861186,-8.267434502305386,-7.019125986961066,-5.195454059598863,-3.8941596395768405,3.564338418532007,-0.20502508435030525,0.062560875,-0.996030165,0.43096813500000003,140.75824,-0.35097999999999996,33.78564,68.0
1774823278.850633,0.02145695686340332,2026-03-29T22:27:58.850,2026-03-29T18:27:58.850,-26876.25,-42271.83,-79044.165,-49627.575,-9899.505,-17223.12,6556.995,-60678.405,-0.1454324783516324,-3.6554561215027284,-6.109542732369069,-4.996077050593412,-2.8915935110781437,-0.8028050404730678,9.033448968618252,3.0959966234683347,0.062560875,-0.996030165,0.43096813500000003,140.75824,-0.35097999999999996,33.78564,68.0
1774823278.8506615,2.86102294921875e-05,2026-03-29T22:27:58.850,2026-03-29T18:27:58.850,-26861.219999999998,-42262.155,-79037.415,-49624.92,-9900.225,-17227.395,6540.255,-60662.79,3.0406597973194653,0.4572337069364902,-0.8735221432150991,-0.3634691133147655,1.0461061163591705,2.961971594239122,11.031223047484605,5.1151969494643135,0.062560875,-0.996030165,0.43096813500000003,140.75824,-0.35097999999999996,33.78564,68.0
1774823278.8506913,2.9802322387695312e-05,2026-03-29T22:27:58.850,2026-03-29T18:27:58.850,-26848.305,-42257.07,-79040.87999999999,-49629.735,-9903.105,-17232.795,6546.33,-60646.454999999994,5.057212573736322,4.502616209364491,4.832126535399207,4.5104426587388184,4.568802810901541,5.452573071382432,8.581908044500624,5.070887644384327,0.062560875,-0.996030165,0.43096813500000003,140.75824,-0.35097999999999996,33.78564,68.0
1774823278.8507032,1.1920928955078125e-05,2026-03-29T22:27:58.850,2026-03-29T18:27:58.850,-26834.715,-42242.445,-79017.705,-49608.09,-9884.205,-17214.48,6565.59,-60627.329999999994,4.941488902768204,6.468494739909002,8.150374697919515,7.113455523663798,5.793670684959139,5.278342597855274,2.498871802240687,2.998635517797441,0.062560875,-0.996030165,0.43096813500000003,140.75824,-0.35097999999999996,33.78564,68.0
1774823278.850718,1.4781951904296875e-05,2026-03-29T22:27:58.850,2026-03-29T18:27:58.850,-26833.5,-42243.615,-79015.095,-49605.255,-9882.225,-17208.225,6591.24,-60621.03,2.629157739762114,5.312019105652339,7.408578418203822,6.077435899265979,3.9956268293640207,2.3578941393078043,-4.854146666386439,-0.2677114513414654,0.062560875,-0.996030165,0.43096813500000003,140.75824,-0.35097999999999996,33.78564,68.0
1774823278.8507285,1.049041748046875e-05,2026-03-29T22:27:58.850,2026-03-29T18:27:58.850,-26836.92,-42243.255,-79018.92,-49607.82,-9881.955,-17210.52,6567.344999999999,-60635.79,-0.9547443522625159,1.5093088428347479,2.961471336434468,1.8892165603836468,0.014368089734391855,-1.9754731515064996,-10.469351201586916,-3.4220333626788384,0.062560875,-0.996030165,0.43096813500000003,140.75824,-0.35097999999999996,33.78564,68.0
1774823278.850742,1.3589859008789062e-05,2026-03-29T22:27:58.850,2026-03-29T18:27:58.850,-26851.004999999997,-42242.13,-79011.495,-49598.145,-9871.244999999999,-17204.175,6561.719999999999,-60654.6,-4.257167341476422,-3.1394049578520224,-2.9806651492253797,-3.341886041922848,-4.144209108510469,-5.5922889727893415,-11.927755693996863,-5.197667616376629,0.062560875,-0.996030165,0.43096813500000003,140.75824,-0.35097999999999996,33.78564,68.0
1774823278.8507524,1.0251998901367188e-05,2026-03-29T22:27:58.850,2026-03-29T18:27:58.850,-26857.754999999997,-42254.595,-79033.455,-49618.89,-9889.695,-17223.614999999998,6569.28,-60652.53,-5.774737973945111,-6.370031246766055,-7.454368415474522,-6.947084986086824,-6.319891594747289,-6.617542823527156,-8.451879726012159,-4.87070363562947,0.062560875,-0.996030165,0.43096813500000003,140.75824,-0.35097999999999996,33.78564,68.0
1774823278.8507652,1.2874603271484375e-05,2026-03-29T22:27:58.850,2026-03-29T18:27:58.850,-26850.375,-42251.895,-79033.05,-49617.99,-9889.47,-17223.84,6578.594999999999,-60643.259999999995,-4.749606575626771,-6.565426706367885,-8.224254441870464,-7.055363241778603,-5.312056997821587,-4.39287203787099,-1.3148679599457918,-2.557650328895039,0.061462245,-0.967465785,0.44323617,161.37449999999998,2.09062,23.86664,68.0
1774823278.8507755,1.0251998901367188e-05,2026-03-29T22:27:58.850,2026-03-29T18:27:58.850,-26840.204999999998,-42243.03,-79022.745,-49605.615,-9873.539999999999,-17202.015,6597.675,-60630.479999999996,-1.5555547056316357,-3.567966755161449,-4.901097599601947,-3.556124817527431,-1.5241774320685022,0.13994908075972076,6.607452678809428,0.8169469206727932,0.061462245,-0.967465785,0.44323617,161.37449999999998,2.09062,23.86664,68.0
1774823278.8577764,0.007000923156738281,2026-03-29T22:27:58.857,2026-03-29T18:27:58.857,-26843.399999999998,-42246.314999999995,-79026.75,-49608.72,-9875.205,-17201.114999999998,6587.1449999999995,-60632.28,2.425831335523679,1.215958698260024,0.8631782951878488,1.8249330236247554,3.200580853560065,4.84562691373624,11.994354027235632,3.8811614209382257,0.061462245,-0.967465785,0.44323617,161.37449999999998,2.09062,23.86664,68.0
1774823278.8578525,7.605552673339844e-05,2026-03-29T22:27:58.857,2026-03-29T18:27:58.857,-26850.149999999998,-42254.1,-79035.795,-49619.835,-9888.975,-17215.245,6557.355,-60641.505,5.406066057474404,5.482927495397881,6.200569383627374,6.381795552388202,6.48380231974757,7.412155776503995,12.482198983238112,5.369443426956404,0.061462245,-0.967465785,0.44323617,161.37449999999998,2.09062,23.86664,68.0
1774823278.8579345,8.20159912109375e-05,2026-03-29T22:27:58.857,2026-03-29T18:27:58.857,-26837.01,-42245.595,-79029.27,-49617.045,-9893.025,-17225.864999999998,6542.28,-60631.11,6.00467636906702,7.151280471641648,8.458212186431867,7.789108646044804,6.609078083192778,6.488521909321776,7.713669739180305,4.648110526962522,0.061462245,-0.967465785,0.44323617,161.37449999999998,2.09062,23.86664,68.0
1774823278.8579836,4.9114227294921875e-05,2026-03-29T22:27:58.857,2026-03-29T18:27:58.857,-26815.23,-42228.854999999996,-79016.12999999999,-49607.46,-9890.01,-17234.64,6552.675,-60610.14,3.900890626930854,5.383758295162762,6.519444707491178,5.28328591432778,3.409154870657959,2.382461959754856,-0.437358068346974,1.9923452475139543,0.061462245,-0.967465785,0.44323617,161.37449999999998,2.09062,23.86664,68.0
1774823278.8600967,0.0021131038665771484,2026-03-29T22:27:58.860,2026-03-29T18:27:58.860,-26816.715,-42227.955,-79014.59999999999,-49602.33,-9883.619999999999,-17229.69,6539.49,-60612.075,0.008347457118632747,1.0082177174905762,1.3555145268267192,0.06576829354563689,-1.6118076487320379,-3.0371192523156987,-8.596766154130782,-1.5107256728270289,0.061462245,-0.967465785,0.44323617,161.37449999999998,2.09062,23.86664,68.0
1774823278.8601122,1.5497207641601562e-05,2026-03-29T22:27:58.860,2026-03-29T18:27:58.860,-26850.914999999997,-42254.505,-79033.815,-49615.11,-9886.275,-17223.57,6512.535,-60640.02,-3.923413859388004,-3.8753857601362,-4.464516174769545,-5.280567563279789,-5.995796396395229,-7.203926915374505,-13.294664767392963,-4.404231128446143,0.061462245,-0.967465785,0.44323617,161.37449999999998,2.09062,23.86664,68.0
1774823278.8646014,0.00448918342590332,2026-03-29T22:27:58.864,2026-03-29T18:27:58.864,-26876.565,-42281.549999999996,-79060.23,-49638.015,-9901.08,-17224.47,6529.905,-60657.75,-6.105996612387249,-6.912712571063865,-8.056824509245367,-8.075027007387597,-7.541280886721873,-8.078850447025852,-12.454884189664735,-5.470778029253788,0.061462245,-0.967465785,0.44323617,161.37449999999998,2.09062,23.86664,68.0
1774823278.8646235,2.2172927856445312e-05,2026-03-29T22:27:58.864,2026-03-29T18:27:58.864,-26851.364999999998,-42260.31,-79042.635,-49622.805,-9888.39,-17211.825,6562.125,-60636.42,-5.53912183614889,-6.639613474086496,-7.655710818194165,-6.88252589376465,-5.4072731960162725,-5.146842297255041,-6.323352737130927,-4.251769911506513,0.061462245,-0.967465785,0.44323617,161.37449999999998,2.09062,23.86664,68.0
1774823278.8684826,0.0038590431213378906,2026-03-29T22:27:58.868,2026-03-29T18:27:58.868,-26827.92,-42244.784999999996,-79029.54,-49609.89,-9876.24,-17200.485,6616.9349999999995,-60604.829999999994,-2.4782663879263,-3.192594085475188,-3.482366584897714,-2.2435848405246306,-0.5578943608430732,0.30083194565525995,2.58484729022137,-1.2509445120832228,0.051940785,-0.9321265200000001,0.458555955,170.51524,-0.8392999999999999,14.69538,68.0
1774823278.868502,1.9311904907226562e-05,2026-03-29T22:27:58.868,2026-03-29T18:27:58.868,-26830.53,-42246.135,-79027.605,-49605.57,-9871.785,-17197.245,6603.525,-60602.49,1.6803068778943522,1.7618598477233183,2.378517135329214,3.5778865539086633,4.682873205155579,5.746710633411829,10.521488194571893,2.2719004322637555,0.051940785,-0.9321265200000001,0.458555955,170.51524,-0.8392999999999999,14.69538,68.0
1774823278.873306,0.004804134368896484,2026-03-29T22:27:58.873,2026-03-29T18:27:58.873,-26845.605,-42266.564999999995,-79051.545,-49629.015,-9896.31,-17220.239999999998,6572.745,-60611.625,5.045515216345076,5.841565822464832,7.025193522422131,7.707969018672343,7.756109099322219,8.623395011346934,14.095314602035948,4.833725968972714,0.051940785,-0.9321265200000001,0.458555955,170.51524,-0.8392999999999999,14.69538,68.0
1774823278.8733375,3.147125244140625e-05,2026-03-29T22:27:58.873,2026-03-29T18:27:58.873,-26850.285,-42269.22,-79053.885,-49633.38,-9904.5,-17234.055,6545.925,-60619.005,6.105017441316845,7.104706309275665,8.180775832585727,8.086011883366682,7.123211686291227,7.530658198003125,11.73536965518706,5.359934160119086,0.051940785,-0.9321265200000001,0.458555955,170.51524,-0.8392999999999999,14.69538,68.0
1774823278.8809896,0.0076520442962646484,2026-03-29T22:27:58.880,2026-03-29T18:27:58.880,-26859.059999999998,-42264.0,-79042.68,-49623.435,-9895.725,-17229.825,6555.599999999999,-60630.299999999996,4.415956576481745,4.981638004273357,5.311600365368572,4.490884035603149,3.033280962341464,2.9137051152320987,4.389325441096882,3.6414835870489517,0.051940785,-0.9321265200000001,0.458555955,170.51524,-0.8392999999999999,14.69538,68.0
1774823278.8810108,2.1219253540039062e-05,2026-03-29T22:27:58.881,2026-03-29T18:27:58.881,-26856.629999999997,-42264.27,-79046.09999999999,-49630.095,-9902.43,-17235.72,6576.165,-60624.09,0.7917047668470366,0.5316898416529103,-0.12867937119667713,-1.3403240028994736,-2.5789510924201675,-3.1243541774113,-4.857151078772008,0.4191460033719773,0.051940785,-0.9321265200000001,0.458555955,170.51524,-0.8392999999999999,14.69538,68.0
1774823278.8810344,2.3603439331054688e-05,2026-03-29T22:27:58.881,2026-03-29T18:27:58.881,-26856.225,-42273.63,-79060.5,-49644.494999999995,-9915.84,-17248.095,6548.13,-60620.399999999994,-3.0951341459373003,-4.0907634177852765,-5.439769511849969,-6.561457015302996,-7.020338757778328,-7.793237408544932,-12.086986047863705,-2.940009217383467,0.051940785,-0.9321265200000001,0.458555955,170.51524,-0.8392999999999999,14.69538,68.0
1774823278.8810408,6.4373016357421875e-06,2026-03-29T22:27:58.881,2026-03-29T18:27:58.881,-26847.989999999998,-42271.695,-79055.45999999999,-49640.58,-9916.02,-17249.625,6526.844999999999,-60609.42,-5.497151630389161,-6.689514413208407,-8.021026235915306,-8.615008676848497,-8.142138711819786,-8.915691292790804,-14.22589165358189,-5.030342026680119,0.051940785,-0.9321265200000001,0.458555955,170.51524,-0.8392999999999999,14.69538,68.0
1774823278.8848102,0.003769397735595703,2026-03-29T22:27:58.884,2026-03-29T18:27:58.884,-26841.059999999998,-42271.875,-79054.47,-49639.095,-9914.039999999999,-17241.57,6547.32,-60593.22,-5.389913890224718,-6.079436344756446,-6.6493784902178765,-6.488309345377032,-5.38381838384992,-5.946884489733692,-10.36155913472144,-5.0024867197468925,0.051940785,-0.9321265200000001,0.458555955,170.51524,-0.8392999999999999,14.69538,68.0
1774823278.8848324,2.2172927856445312e-05,2026-03-29T22:27:58.884,2026-03-29T18:27:58.884,-26846.684999999998,-42271.74,-79055.09999999999,-49636.439999999995,-9906.48,-17236.845,6556.545,-60598.53,-2.912661874335486,-2.6298492532567206,-2.05876269169605,-1.2096259311787618,-0.04913209050559766,-0.23440729920465256,-2.1362152158214895,-2.9096194957023447,0.051940785,-0.9321265200000001,0.458555955,170.51524,-0.8392999999999999,14.69538,68.0
1774823278.890856,0.0060236454010009766,2026-03-29T22:27:58.890,2026-03-29T18:27:58.890,-26847.315,-42247.08,-79018.965,-49601.97,-9874.08,-17211.239999999998,6562.71,-60611.354999999996,0.7397543979860424,1.9521759786511876,3.453443027425517,4.657580605782802,5.319802954531429,5.603011515755544,6.957843971046639,0.3369535074804847,0.042297255,-0.894223785,0.46435428,155.31628,-3.9676,9.96478,68.0
1774823278.89089,3.3855438232421875e-05,2026-03-29T22:27:58.890,2026-03-29T18:27:58.890,-26819.864999999998,-42224.625,-78996.465,-49581.314999999995,-9854.865,-17190.809999999998,6592.545,-60581.43,3.9021409443421877,5.474201977070156,7.1818216537436275,8.269900893926808,8.16572244139036,8.887276305258172,13.074305306006636,3.3724350121992206,0.042297255,-0.894223785,0.46435428,155.31628,-3.9676,9.96478,68.0
1774823278.8909187,2.8848648071289062e-05,2026-03-29T22:27:58.890,2026-03-29T18:27:58.890,-26803.079999999998,-42215.354999999996,-78990.3,-49573.259999999995,-9841.68,-17167.005,6653.925,-60552.494999999995,5.210538787865371,6.317481917118577,7.346569480673125,7.889685037295299,7.143197108301639,8.117804572049318,13.6532484080926,4.959535267405675,0.042297255,-0.894223785,0.46435428,155.31628,-3.9676,9.96478,68.0
1774823278.8909314,1.2636184692382812e-05,2026-03-29T22:27:58.890,2026-03-29T18:27:58.890,-26831.295,-42248.07,-79022.745,-49608.45,-9880.199999999999,-17202.825,6617.969999999999,-60568.155,4.196446410478235,4.186481040826979,3.945274720987871,3.7226172175210217,2.757088010204691,3.659241090633194,8.499921794044043,4.494305012417479,0.042297255,-0.894223785,0.46435428,155.31628,-3.9676,9.96478,68.0
1774823278.897065,0.006133556365966797,2026-03-29T22:27:58.897,2026-03-29T18:27:58.897,-26856.989999999998,-42274.08,-79051.545,-49639.905,-9915.795,-17241.3,6532.245,-60595.47,1.4416449397904008,0.19921350651836864,-1.2858385335745701,-2.197278969599753,-2.8912536253707892,-2.4355050838256607,-0.1560410723232112,2.2288629043589703,0.042297255,-0.894223785,0.46435428,155.31628,-3.9676,9.96478,68.0
1774823278.897087,2.2172927856445312e-05,2026-03-29T22:27:58.897,2026-03-29T18:27:58.897,-26843.219999999998,-42266.159999999996,-79050.915,-49638.915,-9915.705,-17247.915,6539.13,-60582.555,-1.7495795425309069,-3.7003675130126004,-5.7618584770483965,-7.009909502841605,-7.120536021636165,-7.379073598988398,-8.634953053026667,-0.8670863712347036,0.042297255,-0.894223785,0.46435428,155.31628,-3.9676,9.96478,68.0
1774823278.914962,0.017874956130981445,2026-03-29T22:27:58.914,2026-03-29T18:27:58.914,-26822.295,-42249.689999999995,-79033.905,-49621.095,-9896.895,-17232.03,6538.32,-60560.729999999996,-3.9784580163887595,-5.698696958851155,-7.332642535650155,-8.42087599103498,-7.952984817629907,-8.933651473325877,-13.384531257679788,-3.5292110371375838,0.042297255,-0.894223785,0.46435428,155.31628,-3.9676,9.96478,68.0
1774823278.9149847,2.2649765014648438e-05,2026-03-29T22:27:58.914,2026-03-29T18:27:58.914,-26805.329999999998,-42233.22,-79015.59,-49601.744999999995,-9876.24,-17214.795,6508.9349999999995,-60546.195,-4.37264422323134,-4.963313252266737,-5.31977716024342,-5.801321873876941,-5.046089508177332,-6.430256392203727,-12.478034596008067,-4.717174316697818,0.042297255,-0.894223785,0.46435428,155.31628,-3.9676,9.96478,68.0
1774823278.9150207,3.600120544433594e-05,2026-03-29T22:27:58.915,2026-03-29T18:27:58.915,-26841.149999999998,-42255.99,-79030.89,-49609.89,-9875.295,-17203.23,6545.79,-60572.88,-2.920379991837198,-1.9855404279063242,-0.8050949061370853,-0.4661611270818186,0.16890085066805605,-1.056983965405329,-6.396771897594143,-4.0146268904444975,0.042297255,-0.894223785,0.46435428,155.31628,-3.9676,9.96478,68.0
1774823278.9150295,8.821487426757812e-06,2026-03-29T22:27:58.915,2026-03-29T18:27:58.915,-26855.414999999997,-42270.479999999996,-79045.515,-49624.155,-9889.199999999999,-17212.995,6565.7699999999995,-60579.674999999996,-0.3939848069591942,1.7234702785362073,3.9493369487593926,4.99118252205135,5.196038528380122,4.7076596893056895,2.220894887174627,-1.7603298864994912,0.042297255,-0.894223785,0.46435428,155.31628,-3.9676,9.96478,68.0
1774823278.91504,1.049041748046875e-05,2026-03-29T22:27:58.915,2026-03-29T18:27:58.915,-26842.815,-42263.189999999995,-79041.645,-49622.805,-9886.815,-17210.07,6572.835,-60561.63,2.061961407314464,4.403547915934907,6.639553328644918,7.968934582525356,7.67823170271496,8.244971797772232,9.734513660476473,1.1213173287807263,0.0390624,-0.85094997,0.47558472,140.8498,-5.21892,8.5456,68.0
1774823278.9150476,7.62939453125e-06,2026-03-29T22:27:58.915,2026-03-29T18:27:58.915,-26844.795,-42267.33,-79046.55,-49628.384999999995,-9892.98,-17216.28,6566.4,-60559.38,3.457729134049336,4.888297682415172,6.041388399497136,7.106075992070861,6.511407561260209,7.993584232519774,13.050016509157064,3.502777901572338,0.0390624,-0.85094997,0.47558472,140.8498,-5.21892,8.5456,68.0
1774823278.9150572,9.5367431640625e-06,2026-03-29T22:27:58.915,2026-03-29T18:27:58.915,-26838.27,-42263.955,-79044.705,-49627.53,-9893.744999999999,-17219.745,6563.205,-60550.875,3.3538951984853305,3.1129616754475715,2.567134995185159,2.9071291593435933,2.3391989466004492,4.1439729256130935,10.898234200514366,4.488494987985594,0.0390624,-0.85094997,0.47558472,140.8498,-5.21892,8.5456,68.0
1774823278.9150648,7.62939453125e-06,2026-03-29T22:27:58.915,2026-03-29T18:27:58.915,-26837.594999999998,-42264.314999999995,-79047.22499999999,-49630.5,-9898.154999999999,-17226.09,6558.57,-60546.825,1.9689780644806687,0.06635186988259913,-1.995545863866887,-2.545172602075528,-2.7946866409772695,-1.4808214279853877,4.3134273338222835,3.737915376550496,0.0390624,-0.85094997,0.47558472,140.8498,-5.21892,8.5456,68.0
1774823278.9163985,0.0013337135314941406,2026-03-29T22:27:58.916,2026-03-29T18:27:58.916,-26841.914999999997,-42267.51,-79050.51,-49634.909999999996,-9902.654999999999,-17232.345,6554.61,-60547.049999999996,-0.00547196819893129,-2.7522398027113306,-5.40508917741664,-6.628782246637251,-6.451333554011896,-6.289883637957906,-3.864386502603469,1.56803868445501,0.0390624,-0.85094997,0.47558472,140.8498,-5.21892,8.5456,68.0
1774823278.9164157,1.71661376953125e-05,2026-03-29T22:27:58.916,2026-03-29T18:27:58.916,-26844.84,-42265.845,-79046.685,-49628.79,-9896.94,-17227.44,6551.46,-60549.39,-1.7550078345741884,-4.075917794128465,-6.072274887051039,-7.452349202427046,-6.963280301921385,-8.124277379377457,-10.223286504083035,-1.1852149222050166,0.0390624,-0.85094997,0.47558472,140.8498,-5.21892,8.5456,68.0
1774823278.9317129,0.015297174453735352,2026-03-29T22:27:58.931,2026-03-29T18:27:58.931,-26836.92,-42262.02,-79044.165,-49623.435,-9892.08,-17219.79,6554.5199999999995,-60540.345,-2.678262922136093,-3.442545658531923,-3.80314998051435,-4.73754916401362,-4.2019078009866035,-6.234377406068845,-12.209346602339348,-3.483524574580648,0.0390624,-0.85094997,0.47558472,140.8498,-5.21892,8.5456,68.0
1774823278.931732,1.9073486328125e-05,2026-03-29T22:27:58.931,2026-03-29T18:27:58.931,-26832.285,-42259.14,-79038.9,-49621.32,-9893.07,-17222.445,6546.735,-60532.74,-2.5701389373657126,-1.3367850666688803,0.16951252093394167,0.10046709575079832,0.41027644139402764,-1.5892304070234184,-9.15062085928971,-4.46358405489579,0.0390624,-0.85094997,0.47558472,140.8498,-5.21892,8.5456,68.0
1774823278.9317489,1.6927719116210938e-05,2026-03-29T22:27:58.931,2026-03-29T18:27:58.931,-26833.725,-42262.515,-79042.36499999999,-49627.979999999996,-9905.445,-17242.245,6533.1449999999995,-60528.465,-1.6115623828131194,1.1290711001751903,3.850939841959877,4.688653839678254,4.627119248908999,3.6112383953984972,-2.4659504184935033,-3.746458623664668,0.0390624,-0.85094997,0.47558472,140.8498,-5.21892,8.5456,68.0
1774823278.9317553,6.4373016357421875e-06,2026-03-29T22:27:58.931,2026-03-29T18:27:58.931,-26832.914999999997,-42265.619999999995,-79049.06999999999,-49638.284999999996,-9920.07,-17264.25,6533.91,-60521.445,-0.2211564188397013,2.800293470870321,5.489019555483285,6.866399985184879,6.476221057608374,6.979400117510099,4.995279713590228,-1.5770615481388073,0.0390624,-0.85094997,0.47558472,140.8498,-5.21892,8.5456,68.0
1774823278.931763,7.62939453125e-06,2026-03-29T22:27:58.931,2026-03-29T18:27:58.931,-26825.85,-42258.51,-79045.515,-49633.064999999995,-9913.994999999999,-17258.13,6542.865,-60514.92,1.1301852386706963,3.0239859465404137,4.411641038619406,5.710991234724825,5.188987146593277,7.043911075651038,10.174134459902664,1.2531498629767468,0.0390624,-0.826108725,0.48974484,113.90064,-3.18934,3.37246,68.0
1774823278.9317696,6.67572021484375e-06,2026-03-29T22:27:58.931,2026-03-29T18:27:58.931,-26813.565,-42240.42,-79021.845,-49598.909999999996,-9874.035,-17212.59,6564.465,-60504.93,2.058331788288738,1.894338035544709,1.2950897393481404,1.9282007646386228,1.5219393934440426,3.9012066018398874,11.057856138024237,3.6793922364372587,0.0390624,-0.826108725,0.48974484,113.90064,-3.18934,3.37246,68.0
1774823278.931777,7.3909759521484375e-06,2026-03-29T22:27:58.931,2026-03-29T18:27:58.931,-26818.02,-42243.75,-79023.375,-49593.645,-9858.6,-17181.09,6560.55,-60502.68,2.3308604201821,0.11270028547497069,-2.239265553777676,-2.556919277812612,-2.6657468273744747,-0.8779653837500547,7.4543814539125375,4.747569269371181,0.0390624,-0.826108725,0.48974484,113.90064,-3.18934,3.37246,68.0
1774823278.9317825,5.4836273193359375e-06,2026-03-29T22:27:58.931,2026-03-29T18:27:58.931,-26839.26,-42270.345,-79050.06,-49623.705,-9890.369999999999,-17211.87,6562.71,-60507.0,1.8815428506866119,-1.425219723796334,-4.4672408099735295,-5.579573004676146,-5.350163969168504,-5.025508818851945,0.9917996287875961,3.980469060320897,0.0390624,-0.826108725,0.48974484,113.90064,-3.18934,3.37246,68.0
1774823278.9366927,0.00491023063659668,2026-03-29T22:27:58.936,2026-03-29T18:27:58.936,-26848.71,-42275.564999999995,-79051.14,-49628.25,-9900.63,-17229.645,6571.71,-60512.85,0.812430622018539,-2.0799743120550174,-4.4061075370711675,-5.786948103119488,-5.324991391342997,-6.655814454345842,-5.619784624936398,1.5909794093482683,0.0390624,-0.826108725,0.48974484,113.90064,-3.18934,3.37246,68.0
1774823278.936719,2.6226043701171875e-05,2026-03-29T22:27:58.936,2026-03-29T18:27:58.936,-26845.155,-42272.505,-79054.29,-49630.814999999995,-9901.125,-17236.845,6565.7699999999995,-60513.615,-0.6034872340065035,-1.7299042573484626,-2.246107259477847,-3.2484057980209293,-2.7499848854357167,-5.1333266835899165,-9.728150546239151,-1.5527965460606765,0.0390624,-0.826108725,0.48974484,113.90064,-3.18934,3.37246,68.0
1774823278.940546,0.0038270950317382812,2026-03-29T22:27:58.940,2026-03-29T18:27:58.940,-26842.274999999998,-42273.225,-79060.455,-49636.845,-9907.965,-17251.335,6533.009999999999,-60515.415,-1.9441243613838672,-0.7392150204145373,0.8190305779819606,0.6531758271059782,0.9865112662662648,-1.3241075804424691,-9.799701604543802,-4.223314771140961,0.0390624,-0.826108725,0.48974484,113.90064,-3.18934,3.37246,68.0
1774823278.9405646,1.8596649169921875e-05,2026-03-29T22:27:58.940,2026-03-29T18:27:58.940,-26838.765,-42267.555,-79052.4,-49629.96,-9908.595,-17258.94,6484.95,-60520.634999999995,-2.7246174093478257,0.30913162851835935,3.2429260405762204,3.962857560595692,4.0000160064604104,2.8710527813862785,-5.978528241101753,-5.3014373733555455,0.0390624,-0.826108725,0.48974484,113.90064,-3.18934,3.37246,68.0
1774823278.9458575,0.0052928924560546875,2026-03-29T22:27:58.945,2026-03-29T18:27:58.945,-26835.344999999998,-42260.85,-79042.23,-49615.604999999996,-9896.4,-17245.125,6496.0199999999995,-60517.395,-2.5601318339960217,0.943458772808676,3.907536576994393,5.135130570807659,4.857079897890006,5.459462608680753,0.052931955527817674,-4.244832402712021,0.0390624,-0.826108725,0.48974484,113.90064,-3.18934,3.37246,68.0
1774823278.945886,2.8371810913085938e-05,2026-03-29T22:27:58.945,2026-03-29T18:27:58.945,-26836.11,-42261.84,-79042.23,-49610.61,-9887.94,-17227.53,6554.655,-60507.27,-1.358416837456518,1.0140814262189828,2.639518769002792,3.7620259487614516,3.2626028935298823,5.310168485477892,5.817118631633304,-1.3614893465849722,0.0390624,-0.826108725,0.48974484,113.90064,-3.18934,3.37246,68.0
1774823278.9493728,0.0034868717193603516,2026-03-29T22:27:58.949,2026-03-29T18:27:58.949,-26829.989999999998,-42261.03,-79045.83,-49614.84,-9883.17,-17207.19,6614.73,-60487.965,0.5553387682132216,0.6913745069808781,0.22330579452692342,0.7020020459723559,0.15545776735559744,2.6589117913286766,9.058905087277692,2.2499257130368977,0.0390624,-0.804136125,0.51574575,95.35974,-3.5098,3.0672599999999997,68.0
1774823278.9493933,2.0503997802734375e-05,2026-03-29T22:27:58.949,2026-03-29T18:27:58.949,-26835.57,-42269.22,-79056.18,-49630.049999999996,-9901.89,-17229.285,6574.7699999999995,-60491.475,2.4797898486242222,0.28772679571148824,-2.061312506352529,-2.423155517447654,-2.8155489771450015,-1.0667250489293727,8.619592075074468,5.103932090970026,0.0390624,-0.804136125,0.51574575,95.35974,-3.5098,3.0672599999999997,68.0
1774823278.9528863,0.003493070602416992,2026-03-29T22:27:58.952,2026-03-29T18:27:58.952,-26834.579999999998,-42268.095,-79054.92,-49629.15,-9898.605,-17238.465,6514.38,-60496.695,3.57838098250454,0.034841204212018834,-3.112893566570073,-4.08007874525946,-4.15284440956507,-3.9960271736175814,4.8327454309644855,5.936676412496844,0.0390624,-0.804136125,0.51574575,95.35974,-3.5098,3.0672599999999997,68.0
1774823278.9529111,2.47955322265625e-05,2026-03-29T22:27:58.952,2026-03-29T18:27:58.952,-26824.05,-42259.5,-79049.47499999999,-49632.119999999995,-9902.295,-17258.04,6523.469999999999,-60486.524999999994,3.247248667928305,-0.042581982461298344,-2.540419413732034,-3.5801021779754287,-3.2639751491256113,-4.75260430725822,-0.6833531241544006,4.271462671595954,0.0390624,-0.804136125,0.51574575,95.35974,-3.5098,3.0672599999999997,68.0
1774823278.9590397,0.006128549575805664,2026-03-29T22:27:58.959,2026-03-29T18:27:58.959,-26824.725,-42261.705,-79052.535,-49645.979999999996,-9915.074999999999,-17269.425,6547.365,-60482.384999999995,1.446381908963522,-0.09012365800003949,-0.7962721051768737,-1.365411835298332,-0.7290826202807904,-3.1113884307756012,-5.718544674570307,0.6855952913316263,0.0390624,-0.804136125,0.51574575,95.35974,-3.5098,3.0672599999999997,68.0
1774823278.9590695,2.9802322387695312e-05,2026-03-29T22:27:58.959,2026-03-29T18:27:58.959,-26836.695,-42269.22,-79051.23,-49642.875,-9910.529999999999,-17247.375,6549.4349999999995,-60491.88,-1.1869847279022894,-0.2660176132097636,1.1271570501035828,1.29387191241327,2.0413818802425494,-0.0565358848126304,-8.35141803555486,-3.368594210680846,0.0390624,-0.804136125,0.51574575,95.35974,-3.5098,3.0672599999999997,68.0
1774823278.9590993,2.9802322387695312e-05,2026-03-29T22:27:58.959,2026-03-29T18:27:58.959,-26822.655,-42251.354999999996,-79024.905,-49606.604999999996,-9876.465,-17205.975,6549.21,-60481.439999999995,-3.5425069042894366,-0.5809012747066169,2.2494025267190856,3.0053621576016507,3.568070782743885,2.770858786751061,-7.6690943451027165,-6.146752496918745,0.0390624,-0.804136125,0.51574575,95.35974,-3.5098,3.0672599999999997,68.0
1774823278.9591117,1.239776611328125e-05,2026-03-29T22:27:58.959,2026-03-29T18:27:58.959,-26819.55,-42252.57,-79026.3,-49606.515,-9875.97,-17199.315,6561.8099999999995,-60469.064999999995,-4.50686160640441,-0.8516860806226221,2.1004366460954476,2.979257284949781,3.0808875623062684,3.9380206752225666,-4.063434452570486,-6.36869476810004,0.0390624,-0.804136125,0.51574575,95.35974,-3.5098,3.0672599999999997,68.0
1774823278.9644637,0.005352020263671875,2026-03-29T22:27:58.964,2026-03-29T18:27:58.964,-26817.524999999998,-42254.055,-79031.25,-49617.27,-9889.109999999999,-17218.079999999998,6557.759999999999,-60462.134999999995,-3.50015324720244,-0.8096390132461188,0.9128454114472668,1.3967544440304602,0.9090308524626145,2.9484955699393742,0.9808568769823546,-3.817343550099936,0.0390624,-0.804136125,0.51574575,95.35974,-3.5098,3.0672599999999997,68.0
1774823278.9644887,2.5033950805664062e-05,2026-03-29T22:27:58.964,2026-03-29T18:27:58.964,-26824.364999999998,-42262.335,-79045.02,-49630.005,-9899.505,-17231.04,6562.8,-60467.67,-0.8157079918332316,-0.29890700261194236,-0.5681179304136346,-0.7517184329380311,-1.7154661377867388,0.46169420628435986,5.495462921530921,0.5040189024014825,0.0390624,-0.804136125,0.51574575,95.35974,-3.5098,3.0672599999999997,68.0
1774823278.9684358,0.003947019577026367,2026-03-29T22:27:58.968,2026-03-29T18:27:58.968,-26834.895,-42270.345,-79052.715,-49636.485,-9905.22,-17235.135,6562.08,-60479.415,2.4320677122062,0.5648109066338092,-1.5270684980236537,-2.247475749315903,-3.3313144730087125,-2.098154915782584,7.785716644258615,4.757593609123114,0.032775795,-0.78515424,0.5334459,58.09482,-5.14262,0.9003399999999999,68.0
1774823278.968454,1.811981201171875e-05,2026-03-29T22:27:58.968,2026-03-29T18:27:58.968,-26819.954999999998,-42250.77,-79031.06999999999,-49614.93,-9886.23,-17220.239999999998,6546.33,-60473.384999999995,4.768885893481745,1.3920204728907613,-1.5198752854987632,-2.3162433619506957,-3.0396592787732946,-3.326401071481322,7.049897106093763,7.0568252507532305,0.032775795,-0.78515424,0.5334459,58.09482,-5.14262,0.9003399999999999,68.0
1774823278.9725838,0.004129886627197266,2026-03-29T22:27:58.972,2026-03-29T18:27:58.972,-26811.0,-42245.729999999996,-79027.69499999999,-49606.74,-9877.68,-17213.04,6558.165,-60459.93,5.0411548156354336,1.700833571734309,-0.6780143971785997,-1.028263111354337,-0.9930595293243757,-2.5947123052721404,3.6432148728121683,6.3142658106487515,0.032775795,-0.78515424,0.5334459,58.09482,-5.14262,0.9003399999999999,68.0
1774823278.9726043,2.0503997802734375e-05,2026-03-29T22:27:58.972,2026-03-29T18:27:58.972,-26803.844999999998,-42245.369999999995,-79028.91,-49608.765,-9879.57,-17214.57,6578.1449999999995,-60446.88,2.9966362046025394,1.1948225435409117,0.4173240154196482,0.7806535524647267,1.6802743756163225,-0.3773291521461564,-1.0908247349629236,2.7651329976197645,0.032775795,-0.78515424,0.5334459,58.09482,-5.14262,0.9003399999999999,68.0
1774823278.9768903,0.004286050796508789,2026-03-29T22:27:58.976,2026-03-29T18:27:58.976,-26795.879999999997,-42239.25,-79023.33,-49602.24,-9869.355,-17203.05,6600.33,-60437.024999999994,-0.5316467653228185,-0.021131133262121415,1.099892041445446,2.0093736062913283,3.4812756379543286,2.025065129405953,-5.342190753639308,-2.0897811861066877,0.032775795,-0.78515424,0.5334459,58.09482,-5.14262,0.9003399999999999,68.0
1774823278.9769142,2.384185791015625e-05,2026-03-29T22:27:58.976,2026-03-29T18:27:58.976,-26816.445,-42250.14,-79030.98,-49606.38,-9870.255,-17203.005,6585.389999999999,-60459.165,-3.95906283499123,-1.427280618781193,1.005034230995793,1.9274651266019098,3.3562366664132806,3.2130371737792562,-7.510391671077756,-6.120665821638684,0.032775795,-0.78515424,0.5334459,58.09482,-5.14262,0.9003399999999999,68.0
1774823278.9803436,0.003429412841796875,2026-03-29T22:27:58.980,2026-03-29T18:27:58.980,-26838.539999999997,-42267.24,-79048.53,-49624.064999999995,-9887.58,-17218.079999999998,6534.585,-60483.015,-5.670515064301136,-2.3141495184496432,0.26080326955832356,0.5917106314843762,1.2891011952326452,2.472893592831695,-6.790599376366896,-7.513987167126154,0.032775795,-0.78515424,0.5334459,58.09482,-5.14262,0.9003399999999999,68.0
1774823278.9803548,1.1205673217773438e-05,2026-03-29T22:27:58.980,2026-03-29T18:27:58.980,-26830.754999999997,-42266.79,-79052.715,-49630.095,-9894.15,-17224.739999999998,6540.929999999999,-60471.99,-4.796638521604556,-2.1472815402401357,-0.6150051787752379,-1.1879548534196231,-1.654525527633678,0.1888738681318846,-3.464033794884322,-5.601644631020984,0.032775795,-0.78515424,0.5334459,58.09482,-5.14262,0.9003399999999999,68.0
1774823278.9870377,0.006682872772216797,2026-03-29T22:27:58.987,2026-03-29T18:27:58.987,-26824.68,-42271.11,-79063.245,-49643.46,-9906.93,-17238.69,6553.98,-60461.46,-1.6654248156023372,-0.8814758008474246,-1.0413801817004886,-2.314187998498611,-3.8705537645004697,-2.3495040043024127,1.207378671496512,-1.1884873535859406,0.032775795,-0.78515424,0.5334459,58.09482,-5.14262,0.9003399999999999,68.0
1774823278.9870608,2.3126602172851562e-05,2026-03-29T22:27:58.987,2026-03-29T18:27:58.987,-26803.89,-42258.689999999995,-79055.955,-49639.994999999995,-9907.109999999999,-17241.03,6565.275,-60443.415,2.3090375194984474,0.9565845076667644,-0.7292910522861097,-2.040777542860916,-4.072656982114583,-3.6516502160664484,5.444589158523088,3.785619138886288,0.032775795,-0.78515424,0.5334459,58.09482,-5.14262,0.9003399999999999,68.0
1774823278.9885826,0.0015218257904052734,2026-03-29T22:27:58.988,2026-03-29T18:27:58.988,-26785.53,-42246.314999999995,-79045.37999999999,-49632.21,-9906.029999999999,-17246.79,6568.965,-60425.774999999994,5.270667757765594,2.4866746635008945,0.1413403073189071,-0.42570168616773807,-2.0115388106529504,-2.8660241723711364,7.6107187449639335,7.107905477462542,0.02624505,-0.763120605,0.54125838,10.117379999999999,1.32762,3.2198599999999997,68.0
1774823278.9886045,2.193450927734375e-05,2026-03-29T22:27:58.988,2026-03-29T18:27:58.988,-26795.879999999997,-42244.784999999996,-79031.925,-49611.645,-9888.84,-17240.985,6524.28,-60440.49,5.802532046286171,2.9041662533388397,1.0250244974279432,1.662840661078334,1.3350139241778434,-0.2951108405796633,6.8313204223451764,7.291266075415122,0.02624505,-0.763120605,0.54125838,10.117379999999999,1.32762,3.2198599999999997,68.0
1774823278.99533,0.0067255496978759766,2026-03-29T22:27:58.995,2026-03-29T18:27:58.995,-26815.05,-42259.455,-79042.77,-49615.695,-9884.16,-17226.72,6535.755,-60450.84,3.620393600443668,1.907377738350914,1.335151393253865,3.0060741728723084,4.225565232387179,2.7127581960605895,3.3470780568963225,4.251707040616602,0.02624505,-0.763120605,0.54125838,10.117379999999999,1.32762,3.2198599999999997,68.0
1774823278.995348,1.7881393432617188e-05,2026-03-29T22:27:58.995,2026-03-29T18:27:58.995,-26838.405,-42268.14,-79043.535,-49613.04,-9874.17,-17201.114999999998,6570.8099999999995,-60471.63,-0.2673548124433078,-0.10505523571437761,0.8027435893902287,2.7194035570143433,5.052871456149995,4.461889236737984,-1.542706764510205,-0.6496943826573186,0.02624505,-0.763120605,0.54125838,10.117379999999999,1.32762,3.2198599999999997,68.0
1774823278.996492,0.0011439323425292969,2026-03-29T22:27:58.996,2026-03-29T18:27:58.996,-26837.864999999998,-42272.055,-79049.87999999999,-49622.13,-9884.789999999999,-17214.75,6566.58,-60470.369999999995,-4.025492770786326,-2.1884503244083526,-0.3395301925612342,0.7873159980500026,3.216840641691677,3.8399777408191085,-5.944200422184117,-5.222813090781575,0.02624505,-0.763120605,0.54125838,10.117379999999999,1.32762,3.2198599999999997,68.0
1774823278.9965026,1.0728836059570312e-05,2026-03-29T22:27:58.996,2026-03-29T18:27:58.996,-26832.285,-42267.015,-79045.965,-49621.814999999995,-9889.199999999999,-17225.595,6537.96,-60473.384999999995,-5.868381575648198,-3.301050326272515,-1.4613881970254736,-1.85933139414468,-0.49350534669968493,0.9797653301245675,-8.08578703590956,-7.440464498293405,0.02624505,-0.763120605,0.54125838,10.117379999999999,1.32762,3.2198599999999997,68.0
1774823279.005489,0.008986473083496094,2026-03-29T22:27:59.005,2026-03-29T18:27:59.005,-26820.18,-42259.95,-79042.995,-49619.43,-9888.66,-17229.105,6511.275,-60469.11,-4.9240022244983495,-2.831659571257072,-1.878888733115123,-3.7927414381089384,-4.236297229909973,-2.7266752455984666,-7.024993452894108,-6.350505731300178,0.02624505,-0.763120605,0.54125838,10.117379999999999,1.32762,3.2198599999999997,68.0
1774823279.0055146,2.5510787963867188e-05,2026-03-29T22:27:59.005,2026-03-29T18:27:59.005,-26816.355,-42257.7,-79044.48,-49623.75,-9895.545,-17240.355,6521.58,-60463.305,-1.660924496286727,-0.9360604528308432,-1.252006262749192,-3.846871242042981,-6.0298793963523,-5.305422280409834,-3.066971516501368,-2.4910353747266005,0.02624505,-0.763120605,0.54125838,10.117379999999999,1.32762,3.2198599999999997,68.0
1774823279.0055408,2.6226043701171875e-05,2026-03-29T22:27:59.005,2026-03-29T18:27:59.005,-26801.954999999998,-42239.88,-79023.555,-49604.265,-9876.869999999999,-17223.48,6575.759999999999,-60444.854999999996,2.3367004892670677,1.502441746671661,0.188232655688841,-1.786834548217945,-4.79087203268974,-5.24072434713356,2.292297542288934,2.3755876357379706,0.02624505,-0.763120605,0.54125838,10.117379999999999,1.32762,3.2198599999999997,68.0
1774823279.0055523,1.1444091796875e-05,2026-03-29T22:27:59.005,2026-03-29T18:27:59.005,-26800.829999999998,-42240.915,-79022.11499999999,-49600.485,-9870.119999999999,-17214.93,6619.724999999999,-60435.674999999996,5.140836696849402,3.2869355284069197,1.7212815445578364,1.4831169614979582,-0.9581621958443179,-2.334300246558946,6.909530464089854,6.078053680368897,0.02624505,-0.763120605,0.54125838,10.117379999999999,1.32762,3.2198599999999997,68.0
1774823279.0086145,0.0030622482299804688,2026-03-29T22:27:59.008,2026-03-29T18:27:59.008,-26826.93,-42269.13,-79050.825,-49623.57,-9885.33,-17217.225,6603.03,-60456.915,5.420677890824708,3.4999531518273144,2.5000107682641244,4.316450368173119,3.6455723571855687,2.091545541022808,8.838570994480273,7.018392126805451,0.026306085,-0.7418804250000001,0.55468608,-45.367979999999996,5.43256,4.4711799999999995,68.0
1774823279.008633,1.8358230590820312e-05,2026-03-29T22:27:59.008,2026-03-29T18:27:59.008,-26833.635,-42275.61,-79058.34,-49629.825,-9890.414999999999,-17220.825,6556.1849999999995,-60466.59,3.089087365990396,1.979376846409716,2.010859709018455,5.151887075572798,6.68217379185507,5.79602688757043,7.14972013111399,4.870219204049975,0.026306085,-0.7418804250000001,0.55468608,-45.367979999999996,5.43256,4.4711799999999995,68.0
1774823279.0124664,0.0038335323333740234,2026-03-29T22:27:59.012,2026-03-29T18:27:59.012,-26824.5,-42266.88,-79048.75499999999,-49622.04,-9884.97,-17220.51,6553.349999999999,-60457.634999999995,-0.6657102120865386,-0.5709346307615417,0.3843081258812121,3.3563235697407254,6.482110211885524,6.753317516773857,2.380114513909505,0.6835749509294349,0.026306085,-0.7418804250000001,0.55468608,-45.367979999999996,5.43256,4.4711799999999995,68.0
1774823279.0124965,3.0040740966796875e-05,2026-03-29T22:27:59.012,2026-03-29T18:27:59.012,-26820.899999999998,-42264.314999999995,-79044.885,-49620.915,-9885.015,-17221.59,6559.11,-60454.755,-3.978374132150252,-2.9060894118997314,-1.622650505698094,-0.3651173551331866,2.946397491063607,4.244742248553021,-3.60304523958199,-3.632187369866172,0.026306085,-0.7418804250000001,0.55468608,-45.367979999999996,5.43256,4.4711799999999995,68.0
1774823279.0196457,0.007149219512939453,2026-03-29T22:27:59.019,2026-03-29T18:27:59.019,-26818.739999999998,-42263.64,-79049.16,-49628.52,-9893.654999999999,-17229.825,6556.05,-60454.53,-5.235800321402896,-3.850650027208815,-2.9827646777182064,-4.237478555559855,-2.3144079671557165,-0.6727147076480999,-8.31364863121321,-6.1907782536071405,0.026306085,-0.7418804250000001,0.55468608,-45.367979999999996,5.43256,4.4711799999999995,68.0
1774823279.019672,2.6226043701171875e-05,2026-03-29T22:27:59.019,2026-03-29T18:27:59.019,-26817.075,-42260.354999999996,-79048.70999999999,-49630.185,-9896.31,-17233.739999999998,6553.9349999999995,-60455.88,-3.873292249833106,-2.8938014017143003,-2.9235866791186256,-6.265347193059174,-6.714077945402244,-5.605888044453683,-9.671841412268739,-5.9631664126803505,0.026306085,-0.7418804250000001,0.55468608,-45.367979999999996,5.43256,4.4711799999999995,68.0
1774823279.0219104,0.0022385120391845703,2026-03-29T22:27:59.021,2026-03-29T18:27:59.021,-26818.695,-42261.525,-79049.205,-49631.13,-9897.119999999999,-17235.765,6550.245,-60456.645,-0.6403689157708264,-0.4665440292567866,-1.3530547657201886,-5.255443497244124,-7.963227279134589,-7.993763595959819,-6.9248737780518,-3.1898523390815807,0.026306085,-0.7418804250000001,0.55468608,-45.367979999999996,5.43256,4.4711799999999995,68.0
1774823279.0219312,2.0742416381835938e-05,2026-03-29T22:27:59.021,2026-03-29T18:27:59.021,-26816.985,-42259.32,-79043.895,-49627.215,-9897.615,-17235.045,6533.325,-60456.015,2.7940877183976234,2.249155145868073,1.043916407842685,-1.4907090181991007,-5.254082527458952,-6.43292835242714,-1.0555881699793574,0.7929924461399775,0.026306085,-0.7418804250000001,0.55468608,-45.367979999999996,5.43256,4.4711799999999995,68.0
1774823279.0247438,0.002812623977661133,2026-03-29T22:27:59.024,2026-03-29T18:27:59.024,-26808.614999999998,-42249.915,-79030.53,-49613.13,-9884.295,-17222.445,6532.425,-60450.075,4.694878945100989,3.895932400053352,3.1067524475798214,3.314555598262042,0.2527008709404168,-1.4760931904683179,5.538656035357554,4.203370908320497,0.026306085,-0.7418804250000001,0.55468608,-45.367979999999996,5.43256,4.4711799999999995,68.0
1774823279.0247679,2.4080276489257812e-05,2026-03-29T22:27:59.024,2026-03-29T18:27:59.024,-26797.274999999998,-42241.545,-79022.52,-49602.735,-9871.154999999999,-17210.024999999998,6564.15,-60437.88,4.1385258134154945,3.620584317273865,3.7641232989320033,6.798081068507061,5.920204503466153,4.540517753093449,10.009687275222106,5.620180043759182,0.026306085,-0.7418804250000001,0.55468608,-45.367979999999996,5.43256,4.4711799999999995,68.0
1774823279.0337691,0.00900125503540039,2026-03-29T22:27:59.033,2026-03-29T18:27:59.033,-26796.69,-42248.07,-79035.93,-49616.82,-9883.89,-17220.195,6585.705,-60430.994999999995,1.47144388287607,1.516796515694548,2.5858533396969117,7.112212360125864,8.900609617097105,8.602181960777703,10.285773762657143,4.576945941983817,0.02526849,-0.72607236,0.55627299,-100.76178,10.04108,2.7468,68.0
1774823279.0337968,2.765655517578125e-05,2026-03-29T22:27:59.033,2026-03-29T18:27:59.033,-26804.565,-42254.909999999996,-79043.04,-49624.784999999996,-9891.63,-17227.845,6560.054999999999,-60439.32,-1.8826320929036955,-1.3986209010404875,0.039253301541317565,3.8929060446937633,7.565506545186764,8.52881582938033,6.035765516762533,1.6938161155877274,0.02526849,-0.72607236,0.55627299,-100.76178,10.04108,2.7468,68.0
1774823279.0338233,2.6464462280273438e-05,2026-03-29T22:27:59.033,2026-03-29T18:27:59.033,-26812.664999999997,-42256.26,-79042.95,-49620.06,-9885.555,-17224.92,6541.83,-60451.515,-4.165279296390123,-3.675547457602101,-2.6947231780382173,-1.4685996934864396,2.3832061969248897,4.135809079937947,-1.079546439859947,-1.6753162486132123,0.02526849,-0.72607236,0.55627299,-100.76178,10.04108,2.7468,68.0
1774823279.033836,1.2636184692382812e-05,2026-03-29T22:27:59.033,2026-03-29T18:27:59.033,-26823.015,-42261.255,-79043.12999999999,-49617.225,-9881.595,-17221.905,6546.285,-60461.235,-4.19450685158821,-4.150653085471923,-4.273467935674811,-6.426099006126156,-4.224450471574917,-2.5714904708175332,-8.031822142926488,-4.0848942972063815,0.02526849,-0.72607236,0.55627299,-100.76178,10.04108,2.7468,68.0
1774823279.0371099,0.0032739639282226562,2026-03-29T22:27:59.037,2026-03-29T18:27:59.037,-26835.48,-42266.52,-79045.47,-49621.455,-9890.19,-17230.5,6556.455,-60474.329999999994,-1.976043832264046,-2.540329757419399,-3.85254177485981,-8.492152910821098,-9.015871113056908,-8.31424893194618,-11.704278962936717,-4.6213043724565726,0.02526849,-0.72607236,0.55627299,-100.76178,10.04108,2.7468,68.0
1774823279.0371337,2.384185791015625e-05,2026-03-29T22:27:59.037,2026-03-29T18:27:59.037,-26829.045,-42262.515,-79042.185,-49623.255,-9894.914999999999,-17235.72,6565.455,-60467.49,1.300877300702952,0.3951611803892152,-1.528695516662279,-6.484578582425615,-9.52250434217261,-10.14836343141203,-10.290741998899263,-3.2373186736456563,0.02526849,-0.72607236,0.55627299,-100.76178,10.04108,2.7468,68.0
