unix_time_s,dt_s,UTC,LOCAL,EMG1_Raw,EMG2_Raw,EMG3_Raw,EMG4_Raw,EMG5_Raw,EMG6_Raw,EMG7_Raw,EMG8_Raw,EMG1_Filtered,EMG2_Filtered,EMG3_Filtered,EMG4_Filtered,EMG5_Filtered,EMG6_Filtered,EMG7_Filtered,EMG8_Filtered,Accel1_Raw,Accel2_Raw,Accel3_Raw,Gyro1_Raw,Gyro2_Raw,Gyro3_Raw,Battery
1774823165.4861915,,2026-03-29T22:26:05.486,2026-03-29T18:26:05.486,-32275.844999999998,-43256.159999999996,-82333.17,-49967.595,-11228.4,-17292.42,6099.795,-65829.555,-0.11349346489254941,-0.18796297261734646,-0.04822149229684788,-0.395480283904153,-0.815425863230442,-0.06920066224906618,-0.689240985947739,-0.4703706348800412,-0.158507895,-0.992490135,-0.132506985,-9.85796,-6.3328999999999995,5.615679999999999,69.0
1774823165.4862063,1.4781951904296875e-05,2026-03-29T22:26:05.486,2026-03-29T18:26:05.486,-32304.239999999998,-43290.134999999995,-82372.275,-49980.195,-11228.13,-17285.355,6146.82,-65829.465,-1.1572931895121426,-3.624521329252347,-8.181868557155173,-10.292800500191209,-4.486947563154643,2.3130531140663897,8.190326512934977,1.4496398430761495,-0.158507895,-0.992490135,-0.132506985,-9.85796,-6.3328999999999995,5.615679999999999,69.0
1774823165.4940643,0.007858037948608398,2026-03-29T22:26:05.494,2026-03-29T18:26:05.494,-32306.085,-43269.119999999995,-82361.87999999999,-49980.465,-11227.77,-17288.19,6181.11,-65824.2,-1.7726888003058352,-5.421416933089118,-12.422946924465434,-15.472217179551034,-6.157411888571669,3.4756682858673056,13.05097885323192,2.577445443279225,-0.158507895,-0.992490135,-0.132506985,-9.85796,-6.3328999999999995,5.615679999999999,69.0
1774823165.494099,3.457069396972656e-05,2026-03-29T22:26:05.494,2026-03-29T18:26:05.494,-32293.395,-43256.744999999995,-82378.215,-50006.07,-11242.529999999999,-17297.01,6191.82,-65807.37,-1.5639480731134376,-4.638467616129611,-10.701713840210315,-13.540699664380194,-5.1205644341481955,2.811512379442503,11.549595826262,2.469614790746608,-0.158507895,-0.992490135,-0.132506985,-9.85796,-6.3328999999999995,5.615679999999999,69.0
1774823165.4941263,2.7418136596679688e-05,2026-03-29T22:26:05.494,2026-03-29T18:26:05.494,-32286.69,-43268.13,-82408.36499999999,-50042.97,-11263.185,-17305.739999999998,6176.16,-65805.705,-0.5149130325079234,-1.5656397457719828,-3.8267393162746752,-5.396550826653067,-1.8652656740544749,0.6701830882223003,4.470218207979622,1.2844902368515032,-0.158507895,-0.992490135,-0.132506985,-9.85796,-6.3328999999999995,5.615679999999999,69.0
1774823165.4941385,1.2159347534179688e-05,2026-03-29T22:26:05.494,2026-03-29T18:26:05.494,-32283.405,-43249.455,-82366.155,-50012.64,-11243.789999999999,-17295.48,6162.66,-65809.125,0.9490114794996996,2.3786319332175005,4.8963811705006774,5.185085493076099,2.149160786517523,-1.8306310619706623,-4.687328123009873,-0.3442023479622236,-0.158507895,-0.992490135,-0.132506985,-9.85796,-6.3328999999999995,5.615679999999999,69.0
1774823165.5000284,0.005889892578125,2026-03-29T22:26:05.500,2026-03-29T18:26:05.500,-32289.434999999998,-43264.979999999996,-82357.92,-49981.049999999996,-11228.22,-17298.945,6139.035,-65804.715,2.1271405856044856,5.304772615000458,11.263059203810828,13.310293359877738,5.1456934995773285,-3.3912429213120094,-11.451430483887075,-1.6462746942581126,-0.158507895,-0.992490135,-0.132506985,-9.85796,-6.3328999999999995,5.615679999999999,69.0
1774823165.500049,2.0742416381835938e-05,2026-03-29T22:26:05.500,2026-03-29T18:26:05.500,-32286.239999999998,-43239.015,-82320.03,-49933.979999999996,-11186.189999999999,-17283.42,6136.469999999999,-65819.205,2.3765482047827513,5.758979140422748,12.207696961767367,15.245959411150661,5.819825915683326,-3.2048950802121157,-12.57935349487964,-2.0852493544197475,-0.158507895,-0.992490135,-0.132506985,-9.85796,-6.3328999999999995,5.615679999999999,69.0
1774823165.5038688,0.003819704055786133,2026-03-29T22:26:05.503,2026-03-29T18:26:05.503,-32265.495,-43208.955,-82297.08,-49922.505,-11179.395,-17280.36,6152.4,-65830.95,1.4545222821248656,3.443389489420087,7.288429229688196,10.152137943807617,3.9148927212248976,-1.3705875857764547,-7.623144548633428,-1.5790589481347395,-0.158996175,-0.99181875,-0.12805143,-9.644319999999999,-6.42446,6.31764,69.0
1774823165.503894,2.5272369384765625e-05,2026-03-29T22:26:05.503,2026-03-29T18:26:05.503,-32280.21,-43232.715,-82318.995,-49945.994999999995,-11197.395,-17275.32,6178.1849999999995,-65820.23999999999,-0.30878289385211166,-0.6065457129418632,-1.1043807960647496,0.45579588651083175,0.32566958885222735,1.1665154178101644,0.9006803301070027,-0.4806492567552386,-0.158996175,-0.99181875,-0.12805143,-9.644319999999999,-6.42446,6.31764,69.0
1774823165.5063848,0.0024907588958740234,2026-03-29T22:26:05.506,2026-03-29T18:26:05.506,-32292.719999999998,-43259.13,-82350.765,-49971.15,-11212.92,-17277.03,6184.26,-65810.06999999999,-2.116044024469174,-4.48744554437528,-8.91485221841224,-9.304862460800024,-3.315182013320528,3.109701174450905,8.79638148693958,0.6448877241527807,-0.158996175,-0.99181875,-0.12805143,-9.644319999999999,-6.42446,6.31764,69.0
1774823165.506411,2.6226043701171875e-05,2026-03-29T22:26:05.506,2026-03-29T18:26:05.506,-32291.055,-43244.415,-82328.355,-49951.17,-11199.195,-17276.22,6174.675,-65810.43,-3.060834152196262,-6.325642074353005,-12.391303044737182,-14.615497665722234,-5.379974168308733,3.478624723465258,12.268700629559007,1.3132504560627658,-0.158996175,-0.99181875,-0.12805143,-9.644319999999999,-6.42446,6.31764,69.0
1774823165.5120723,0.0056612491607666016,2026-03-29T22:26:05.512,2026-03-29T18:26:05.512,-32290.829999999998,-43235.865,-82317.375,-49940.729999999996,-11188.935,-17262.855,6148.53,-65825.505,-2.5784190299376646,-5.182087501386127,-9.897677913999528,-13.090943250675503,-4.980643467807257,2.104023087085146,9.758956445699704,1.3310507287062165,-0.158996175,-0.99181875,-0.12805143,-9.644319999999999,-6.42446,6.31764,69.0
1774823165.5121,2.765655517578125e-05,2026-03-29T22:26:05.512,2026-03-29T18:26:05.512,-32277.914999999997,-43245.405,-82342.845,-49968.765,-11214.72,-17278.425,6109.0199999999995,-65831.895,-0.7665993756440698,-1.5271208256823758,-2.6877543493110205,-5.561303502482053,-2.360841257069607,-0.3011417404835581,2.643647266533063,0.8310268121544754,-0.158996175,-0.99181875,-0.12805143,-9.644319999999999,-6.42446,6.31764,69.0
1774823165.5144634,0.002363443374633789,2026-03-29T22:26:05.514,2026-03-29T18:26:05.514,-32259.645,-43235.595,-82347.075,-49981.095,-11229.3,-17286.48,6124.23,-65816.73,1.5997451734420127,2.953030133344871,5.72595758155493,4.362482647897143,1.2324974843451195,-2.521046652790748,-5.516271432519071,0.14191711491270784,-0.158996175,-0.99181875,-0.12805143,-9.644319999999999,-6.42446,6.31764,69.0
1774823165.5144925,2.9087066650390625e-05,2026-03-29T22:26:05.514,2026-03-29T18:26:05.514,-32294.52,-43251.705,-82351.70999999999,-49981.275,-11229.074999999999,-17285.625,6149.429999999999,-65812.905,3.395720623248758,6.138182575086772,11.290183969881845,12.022375183965654,4.136646963326727,-3.4617965615386272,-10.76705743442136,-0.4127160493345623,-0.158996175,-0.99181875,-0.12805143,-9.644319999999999,-6.42446,6.31764,69.0
1774823165.5197113,0.0052187442779541016,2026-03-29T22:26:05.519,2026-03-29T18:26:05.519,-32322.42,-43269.165,-82359.98999999999,-49973.759999999995,-11220.345,-17279.19,6166.304999999999,-65818.53,3.6793417375073716,6.479954984325556,11.371996234105982,13.912864479206716,5.045698045501995,-2.696373736372063,-10.688239322173649,-0.668494234028982,-0.158996175,-0.99181875,-0.12805143,-9.644319999999999,-6.42446,6.31764,69.0
1774823165.51973,1.8835067749023438e-05,2026-03-29T22:26:05.519,2026-03-29T18:26:05.519,-32296.905,-43263.36,-82376.28,-49972.365,-11213.055,-17268.255,6186.014999999999,-65820.42,2.1785978193388402,3.7529832561474024,6.01019686074384,9.301999262744738,3.6081574242212575,-0.6553263179612189,-5.509715216243106,-0.6526673821517258,-0.158996175,-0.99181875,-0.12805143,-9.644319999999999,-6.42446,6.31764,69.0
1774823165.522236,0.0025060176849365234,2026-03-29T22:26:05.522,2026-03-29T18:26:05.522,-32265.045,-43253.955,-82390.275,-49987.259999999995,-11215.755,-17265.69,6193.9349999999995,-65805.39,-0.5164728711285581,-0.8123576686032298,-2.140122016755146,0.5167285017015005,0.5714431919826308,1.620760393185758,2.095710579375593,-0.5009332957935638,-0.15978963000000002,-0.98656974,-0.126525555,-8.02676,-4.8831999999999995,5.9208799999999995,69.0
1774823165.522258,2.193450927734375e-05,2026-03-29T22:26:05.522,2026-03-29T18:26:05.522,-32271.39,-43263.27,-82396.485,-50009.895,-11226.285,-17269.02,6186.33,-65797.69499999999,-3.1769090784815535,-5.089127918636714,-9.125297194891148,-8.220176980108063,-2.591336235745476,3.0240064182832396,8.394531924688414,-0.33195381150910247,-0.15978963000000002,-0.98656974,-0.126525555,-8.02676,-4.8831999999999995,5.9208799999999995,69.0
1774823165.5261743,0.003916263580322266,2026-03-29T22:26:05.526,2026-03-29T18:26:05.526,-32277.195,-43272.18,-82393.065,-50032.935,-11245.32,-17283.239999999998,6168.6449999999995,-65791.70999999999,-4.493910354535102,-7.048777917977311,-11.617289075363628,-12.824444859956577,-4.391777530649601,2.9295365673936606,10.43265206457835,-0.16888017110780332,-0.15978963000000002,-0.98656974,-0.126525555,-8.02676,-4.8831999999999995,5.9208799999999995,69.0
1774823165.5262039,2.956390380859375e-05,2026-03-29T22:26:05.526,2026-03-29T18:26:05.526,-32275.844999999998,-43262.1,-82366.605,-50027.13,-11256.345,-17291.43,6153.255,-65790.81,-3.7202218382162973,-5.724539728820344,-8.504742716463161,-11.273642011965215,-4.032971846071258,1.4751117040280644,7.42261965428203,0.04399127437427712,-0.15978963000000002,-0.98656974,-0.126525555,-8.02676,-4.8831999999999995,5.9208799999999995,69.0
1774823165.5305617,0.004357814788818359,2026-03-29T22:26:05.530,2026-03-29T18:26:05.530,-32278.454999999998,-43241.76,-82336.815,-49998.42,-11247.345,-17296.515,6156.45,-65811.465,-1.080442711827253,-1.6850964912752975,-1.3878834506833542,-4.507562991580253,-1.774337512968392,-0.5559198804289025,1.0260575537767123,0.35084821911767755,-0.15978963000000002,-0.98656974,-0.126525555,-8.02676,-4.8831999999999995,5.9208799999999995,69.0
1774823165.5305932,3.147125244140625e-05,2026-03-29T22:26:05.530,2026-03-29T18:26:05.530,-32284.305,-43238.52,-82324.17,-49965.659999999996,-11229.119999999999,-17300.97,6168.42,-65825.055,2.2701108028010375,3.2122653876126743,6.24224023485732,4.100843179364923,1.2182786235457843,-2.164842401431982,-5.555396467328728,0.6944185219336559,-0.15978963000000002,-0.98656974,-0.126525555,-8.02676,-4.8831999999999995,5.9208799999999995,69.0
1774823165.540596,0.010002851486206055,2026-03-29T22:26:05.540,2026-03-29T18:26:05.540,-32285.655,-43248.015,-82327.36499999999,-49949.415,-11219.265,-17305.515,6161.8949999999995,-65818.845,4.748839638924311,6.680535935146377,10.719497816174208,10.418875640706792,3.45998389886713,-2.64245990870269,-9.185956477272514,0.9026193783964648,-0.15978963000000002,-0.98656974,-0.126525555,-8.02676,-4.8831999999999995,5.9208799999999995,69.0
1774823165.5406146,1.8596649169921875e-05,2026-03-29T22:26:05.540,2026-03-29T18:26:05.540,-32287.094999999998,-43253.415,-82329.97499999999,-49946.985,-11205.99,-17287.47,6163.0199999999995,-65810.79,5.093519329469719,7.0744927835013645,9.968321922460785,11.544401409732785,3.88111979233099,-1.887767263375217,-8.290711237874756,0.7772628781141967,-0.15978963000000002,-0.98656974,-0.126525555,-8.02676,-4.8831999999999995,5.9208799999999995,69.0
1774823165.540632,1.7404556274414062e-05,2026-03-29T22:26:05.540,2026-03-29T18:26:05.540,-32279.625,-43244.189999999995,-82328.355,-49960.89,-11212.38,-17276.355,6162.075,-65807.595,3.0008572494450756,4.171256268538433,4.46702902922575,7.151582666002574,2.346191800775833,-0.3941575486919327,-3.5266552704979923,0.23820951459111225,-0.15978963000000002,-0.98656974,-0.126525555,-8.02676,-4.8831999999999995,5.9208799999999995,69.0
1774823165.5406387,6.67572021484375e-06,2026-03-29T22:26:05.540,2026-03-29T18:26:05.540,-32276.565,-43243.47,-82335.33,-49962.96,-11213.369999999999,-17270.73,6158.205,-65815.515,-0.6656187501040657,-0.7105403479079554,-3.0383664012604057,-0.4376817329242792,-0.2980195279915735,1.0598215744460784,2.648636992998934,-0.5709509517270213,-0.15978963000000002,-0.98656974,-0.126525555,-8.02676,-4.8831999999999995,5.9208799999999995,69.0
1774823165.5425913,0.0019526481628417969,2026-03-29T22:26:05.542,2026-03-29T18:26:05.542,-32285.879999999997,-43251.57,-82343.52,-49964.759999999995,-11210.039999999999,-17267.085,6158.429999999999,-65820.23999999999,-4.226743860968385,-5.314408965337185,-8.904599660119182,-7.4572870046991175,-2.666486078400913,1.8275840141853221,7.24353645524039,-1.2992520585545366,-0.164855535,-0.982846605,-0.127380045,-7.29428,-5.58516,4.37962,69.0
1774823165.5426073,1.5974044799804688e-05,2026-03-29T22:26:05.542,2026-03-29T18:26:05.542,-32286.285,-43252.83,-82353.105,-49977.314999999995,-11210.58,-17265.555,6160.005,-65818.62,-5.958220016467991,-7.49408942739658,-10.361570388322162,-10.560043884794531,-3.5471610160307407,1.6922791628448475,8.181218588985002,-1.543499456574211,-0.164855535,-0.982846605,-0.127380045,-7.29428,-5.58516,4.37962,69.0
1774823165.5465052,0.0038979053497314453,2026-03-29T22:26:05.546,2026-03-29T18:26:05.546,-32271.66,-43237.979999999996,-82337.58,-49962.509999999995,-11198.97,-17258.94,6169.679999999999,-65802.19499999999,-4.92629076100827,-6.217089052941379,-6.821444879126167,-8.420567868750556,-2.5192756702236125,0.9032196518364048,5.2291776688923495,-1.07231944295545,-0.164855535,-0.982846605,-0.127380045,-7.29428,-5.58516,4.37962,69.0
1774823165.5465336,2.8371810913085938e-05,2026-03-29T22:26:05.546,2026-03-29T18:26:05.546,-32276.295,-43243.155,-82342.215,-49970.52,-11204.505,-17268.93,6175.44,-65798.415,-1.4830151290904527,-2.053160446294536,-0.10766219985982835,-2.3072507977257395,-0.16388614562237108,-0.035902007183872604,-0.0012453714859459739,0.005389962993426506,-0.164855535,-0.982846605,-0.127380045,-7.29428,-5.58516,4.37962,69.0
1774823165.556938,0.010404348373413086,2026-03-29T22:26:05.556,2026-03-29T18:26:05.556,-32279.219999999998,-43249.005,-82350.495,-49983.255,-11214.314999999999,-17279.73,6169.545,-65801.61,2.8386970963261358,3.083221785488914,6.480094453059752,4.626265628427683,2.242684441755454,-0.6791129674815415,-4.9267216790277,1.237666622693423,-0.164855535,-0.982846605,-0.127380045,-7.29428,-5.58516,4.37962,69.0
1774823165.55696,2.2172927856445312e-05,2026-03-29T22:26:05.556,2026-03-29T18:26:05.556,-32274.675,-43253.505,-82357.69499999999,-49997.115,-11236.68,-17294.94,6153.84,-65794.905,6.009057695841282,6.818617593144857,9.786788058366687,8.948412680176244,3.398066265328575,-0.8622484759106757,-7.266165782745287,2.0201289564822837,-0.164855535,-0.982846605,-0.127380045,-7.29428,-5.58516,4.37962,69.0
1774823165.5569797,1.9550323486328125e-05,2026-03-29T22:26:05.556,2026-03-29T18:26:05.556,-32267.07,-43253.415,-82358.50499999999,-50000.4,-11248.74,-17303.355,6129.045,-65788.605,6.458724436738544,7.422547476878967,8.312717805219778,8.643657726133243,2.6626219284262618,-0.721418770000129,-6.08925183010308,1.8992561753530193,-0.164855535,-0.982846605,-0.127380045,-7.29428,-5.58516,4.37962,69.0
1774823165.5569863,6.67572021484375e-06,2026-03-29T22:26:05.556,2026-03-29T18:26:05.556,-32268.015,-43249.68,-82352.97,-50003.64,-11256.164999999999,-17305.695,6138.675,-65785.72499999999,3.8560627921245545,4.611819660584983,2.891052470709586,4.0583422806155065,0.40912714641274,-0.5225118901397907,-2.1615537718322795,0.8332774091411477,-0.164855535,-0.982846605,-0.127380045,-7.29428,-5.58516,4.37962,69.0
1774823165.5617323,0.004745960235595703,2026-03-29T22:26:05.561,2026-03-29T18:26:05.561,-32286.824999999997,-43237.619999999995,-82333.305,-49992.39,-11245.68,-17289.809999999998,6175.035,-65807.415,-0.6811951527319039,-0.3177942511058484,-3.7719775760559133,-2.3480460228631066,-2.156092792914735,-0.43368683147901704,2.525754882239447,-0.7381941957516538,-0.164855535,-0.982846605,-0.127380045,-7.29428,-5.58516,4.37962,69.0
1774823165.5617566,2.4318695068359375e-05,2026-03-29T22:26:05.561,2026-03-29T18:26:05.561,-32286.555,-43239.735,-82338.48,-49999.32,-11254.68,-17301.329999999998,6163.0199999999995,-65809.665,-5.065907299916191,-5.093465131751094,-8.44435844243096,-7.292454332046885,-3.618859610267225,-0.4005344114589487,5.762777375466095,-2.0741971122573566,-0.164855535,-0.982846605,-0.127380045,-7.29428,-5.58516,4.37962,69.0
1774823165.5787132,0.016956567764282227,2026-03-29T22:26:05.578,2026-03-29T18:26:05.578,-32296.77,-43264.845,-82366.965,-50006.835,-11257.74,-17316.495,6109.5599999999995,-65831.84999999999,-7.2074300512051845,-7.519459132210694,-8.933551323338081,-8.333081107341936,-3.1122509840607857,-0.2090510831124796,6.1560381714792545,-2.4892989430032935,-0.165832095,-0.98254143,-0.12951627,-5.1884,-4.1964999999999995,3.7539599999999997,69.0
1774823165.5787468,3.361701965332031e-05,2026-03-29T22:26:05.578,2026-03-29T18:26:05.578,-32300.055,-43272.72,-82358.86499999999,-49970.25,-11218.275,-17293.59,6109.83,-65830.635,-6.013837645875095,-6.492071435398393,-5.112905492688964,-5.071672016382886,-0.806410730304146,0.30776151374322963,3.7104804640571905,-1.7121073903815935,-0.165832095,-0.98254143,-0.12951627,-5.1884,-4.1964999999999995,3.7539599999999997,69.0
1774823165.5787704,2.3603439331054688e-05,2026-03-29T22:26:05.578,2026-03-29T18:26:05.578,-32281.245,-43246.755,-82311.39,-49921.02,-11171.88,-17257.364999999998,6164.099999999999,-65792.745,-1.9473164329848807,-2.5038817683358867,1.0696205294188383,0.6973934035551229,2.1356337617870715,1.0666973872523866,-0.27419135128781064,-0.055288630950199105,-0.165832095,-0.98254143,-0.12951627,-5.1884,-4.1964999999999995,3.7539599999999997,69.0
1774823165.578782,1.1682510375976562e-05,2026-03-29T22:26:05.578,2026-03-29T18:26:05.578,-32278.995,-43243.604999999996,-82315.215,-49923.765,-11173.275,-17250.12,6191.594999999999,-65785.5,3.149671644307566,2.594126224522046,6.578958516232256,5.945110860800325,4.134260453150774,1.691348987577035,-3.890057341446217,1.706168544766253,-0.165832095,-0.98254143,-0.12951627,-5.1884,-4.1964999999999995,3.7539599999999997,69.0
1774823165.5787952,1.3113021850585938e-05,2026-03-29T22:26:05.578,2026-03-29T18:26:05.578,-32280.66,-43244.325,-82331.19,-49956.93,-11216.16,-17280.27,6155.639999999999,-65800.755,6.895360895714001,6.457259262761995,8.778090617096675,7.971720980904738,4.020112276883216,1.6917038444052643,-5.529502228422436,2.703562803771971,-0.165832095,-0.98254143,-0.12951627,-5.1884,-4.1964999999999995,3.7539599999999997,69.0
1774823165.578805,9.775161743164062e-06,2026-03-29T22:26:05.578,2026-03-29T18:26:05.578,-32265.945,-43227.54,-82324.34999999999,-49963.59,-11223.045,-17287.29,6148.8,-65793.19499999999,7.4902379506343575,7.332486428559255,6.686230192974007,5.77867489386694,1.6862680986401342,0.7833055127384335,-4.585635950351366,2.411891289874363,-0.165832095,-0.98254143,-0.12951627,-5.1884,-4.1964999999999995,3.7539599999999997,69.0
1774823165.5788164,1.1444091796875e-05,2026-03-29T22:26:05.578,2026-03-29T18:26:05.578,-32262.48,-43228.17,-82328.355,-49961.97,-11212.965,-17279.19,6169.41,-65786.67,4.587014117372711,4.859127955247509,1.4119361352676236,0.5578037294411692,-1.7872983570804746,-0.8451682055334434,-1.6475931336073253,0.932051219447296,-0.165832095,-0.98254143,-0.12951627,-5.1884,-4.1964999999999995,3.7539599999999997,69.0
1774823165.578826,9.5367431640625e-06,2026-03-29T22:26:05.578,2026-03-29T18:26:05.578,-32273.82,-43240.814999999995,-82348.47,-49973.49,-11214.404999999999,-17292.735,6179.355,-65793.42,-0.5143699681956552,0.21680293755381314,-4.427297414068707,-4.940792036699609,-4.630418830943393,-2.5058420405855353,1.8521158253658125,-1.0358565610371726,-0.165832095,-0.98254143,-0.12951627,-5.1884,-4.1964999999999995,3.7539599999999997,69.0
1774823165.5788374,1.1444091796875e-05,2026-03-29T22:26:05.578,2026-03-29T18:26:05.578,-32277.96,-43257.015,-82366.47,-49993.064999999995,-11228.22,-17309.34,6169.5,-65789.235,-5.453845576111049,-4.439866559350995,-7.997581592803265,-7.832440823807789,-5.273799030136655,-3.295277162551111,4.333215779236447,-2.527179508928097,-0.165832095,-0.98254143,-0.12951627,-5.1884,-4.1964999999999995,3.7539599999999997,69.0
1774823165.5788472,9.775161743164062e-06,2026-03-29T22:26:05.578,2026-03-29T18:26:05.578,-32278.454999999998,-43262.055,-82368.09,-50007.78,-11241.359999999999,-17319.239999999998,6158.429999999999,-65789.09999999999,-7.9131609007036,-6.9880072357561085,-7.617716908388689,-6.585276088656773,-3.1900836290840755,-2.574609522231471,4.770036661509026,-2.7937875869463022,-0.165832095,-0.98254143,-0.12951627,-5.1884,-4.1964999999999995,3.7539599999999997,69.0
1774823165.5825171,0.0036699771881103516,2026-03-29T22:26:05.582,2026-03-29T18:26:05.582,-32274.989999999998,-43249.185,-82346.12999999999,-49989.42,-11234.97,-17307.765,6159.78,-65789.28,-6.713530714326097,-6.311564355998701,-3.546458041055431,-1.8139478245699525,0.7570408734504587,-0.3946757419534772,3.094812911729322,-1.6881319767162983,-0.166808655,-0.985532145,-0.133727685,-6.928039999999999,-3.8912999999999998,4.2728,69.0
1774823165.5825288,1.1682510375976562e-05,2026-03-29T22:26:05.582,2026-03-29T18:26:05.582,-32265.855,-43231.005,-82321.92,-49964.265,-11215.98,-17273.655,6172.92,-65786.04,-2.3846666767509483,-2.793666918928791,2.1781149174787666,4.025074328923782,4.666195299988372,2.3931115385527275,0.15590530604018557,0.2503811238410548,-0.166808655,-0.985532145,-0.133727685,-6.928039999999999,-3.8912999999999998,4.2728,69.0
1774823165.5938385,0.011309623718261719,2026-03-29T22:26:05.593,2026-03-29T18:26:05.593,-32267.114999999998,-43228.979999999996,-82325.655,-49967.775,-11210.085,-17254.26,6176.88,-65790.94499999999,3.0716574832051085,1.892624553344487,6.752188106019337,7.884810244366022,6.512547809470965,4.456418865948974,-2.7104806407906334,2.0584096415328164,-0.166808655,-0.985532145,-0.133727685,-6.928039999999999,-3.8912999999999998,4.2728,69.0
1774823165.5938652,2.6702880859375e-05,2026-03-29T22:26:05.593,2026-03-29T18:26:05.593,-32270.039999999997,-43243.11,-82346.535,-49975.965,-11210.984999999999,-17253.765,6163.875,-65794.72499999999,7.117049029582434,5.583842306102118,7.971345622703752,7.693308505895824,5.184158784702847,4.619798621367004,-4.279880717805393,2.8328070003047197,-0.166808655,-0.985532145,-0.133727685,-6.928039999999999,-3.8912999999999998,4.2728,69.0
1774823165.593888,2.288818359375e-05,2026-03-29T22:26:05.593,2026-03-29T18:26:05.593,-32267.295,-43238.744999999995,-82339.875,-49971.375,-11210.805,-17262.27,6141.915,-65797.38,7.869423928741137,6.6324029429028375,5.286312201861712,3.4381359309449646,1.114601511693909,2.5144123753304024,-3.9461166580598075,2.1902142529309514,-0.166808655,-0.985532145,-0.133727685,-6.928039999999999,-3.8912999999999998,4.2728,69.0
1774823165.5938945,6.4373016357421875e-06,2026-03-29T22:26:05.593,2026-03-29T18:26:05.593,-32265.18,-43222.185,-82318.31999999999,-49953.15,-11196.765,-17250.795,6152.355,-65799.135,4.987192491019586,4.648490664273898,0.0471002886428984,-2.7878105024494437,-3.835934458539153,-1.1127956673871167,-1.93502559223756,0.4647457458623003,-0.166808655,-0.985532145,-0.133727685,-6.928039999999999,-3.8912999999999998,4.2728,69.0
1774823165.5966513,0.002756834030151367,2026-03-29T22:26:05.596,2026-03-29T18:26:05.596,-32254.92,-43225.244999999995,-82320.795,-49959.314999999995,-11209.095,-17268.93,6153.929999999999,-65769.12,-0.17484669126512034,0.640609070904987,-5.17081902980513,-7.816145289751606,-7.233809122965861,-4.640234898984247,0.8370586531181836,-1.461327611092414,-0.166808655,-0.985532145,-0.133727685,-6.928039999999999,-3.8912999999999998,4.2728,69.0
1774823165.5966702,1.8835067749023438e-05,2026-03-29T22:26:05.596,2026-03-29T18:26:05.596,-32289.84,-43276.32,-82364.08499999999,-49994.28,-11238.84,-17296.47,6159.6449999999995,-65775.285,-5.209672950728555,-3.4935893423534816,-7.823876989677805,-9.001559953101262,-7.267189366094267,-6.300416934928682,3.175950241631133,-2.6097030605212437,-0.166808655,-0.985532145,-0.133727685,-6.928039999999999,-3.8912999999999998,4.2728,69.0
1774823165.5986445,0.001974344253540039,2026-03-29T22:26:05.598,2026-03-29T18:26:05.598,-32317.559999999998,-43272.765,-82344.375,-49970.295,-11210.265,-17258.625,6198.525,-65803.23,-7.792809364426039,-5.870628397782125,-6.6313113625256435,-5.587872559425062,-3.696736483809677,-5.066905451942811,4.110784712591034,-2.4087487979667164,-0.166808655,-0.985532145,-0.133727685,-6.928039999999999,-3.8912999999999998,4.2728,69.0
1774823165.598673,2.86102294921875e-05,2026-03-29T22:26:05.598,2026-03-29T18:26:05.598,-32309.82,-43256.97,-82328.805,-49966.965,-11214.99,-17264.835,6187.86,-65794.905,-6.76704293024779,-5.486809622346167,-2.1882291654647297,0.8544564029171227,1.9316252063741421,-1.2531818539641182,3.281385890256995,-0.9860736181908472,-0.166808655,-0.985532145,-0.133727685,-6.928039999999999,-3.8912999999999998,4.2728,69.0
1774823165.602373,0.003699779510498047,2026-03-29T22:26:05.602,2026-03-29T18:26:05.602,-32277.96,-43240.275,-82327.905,-49978.08,-11231.324999999999,-17290.845,6161.8949999999995,-65787.3,-2.6654562766336194,-2.64512284852501,3.3299325783485902,7.15906208513139,6.95785397711303,3.514406821837932,1.066506570066361,0.9020560032634772,-0.168273495,-0.99511464,-0.14208948,-6.9433,-5.371519999999999,3.70818,69.0
1774823165.6023943,2.1457672119140625e-05,2026-03-29T22:26:05.602,2026-03-29T18:26:05.602,-32240.879999999997,-43245.63,-82361.43,-50006.744999999995,-11260.439999999999,-17333.82,6133.679999999999,-65773.44,2.565955730930063,1.2395241786841278,7.2252077809573,10.119179437002783,8.871297003567495,6.99237998210683,-1.5865496361803262,2.268487812210046,-0.168273495,-0.99511464,-0.14208948,-6.9433,-5.371519999999999,3.70818,69.0
1774823165.6066365,0.0042421817779541016,2026-03-29T22:26:05.606,2026-03-29T18:26:05.606,-32245.379999999997,-43256.205,-82380.915,-50009.085,-11256.21,-17329.364999999998,6130.9349999999995,-65766.33,6.501759771613452,4.342698275525523,7.586076639306743,8.104102525641371,6.563836931840935,7.385998113159417,-3.5563628301289434,2.4124264520224656,-0.168273495,-0.99511464,-0.14208948,-6.9433,-5.371519999999999,3.70818,69.0
1774823165.6066632,2.6702880859375e-05,2026-03-29T22:26:05.606,2026-03-29T18:26:05.606,-32268.285,-43242.615,-82358.595,-49978.485,-11216.789999999999,-17283.149999999998,6152.804999999999,-65799.18,7.374316401715887,5.292720346978519,4.217204428381361,1.9273335738572541,0.9472887626967026,4.273890116933387,-4.00843542472455,1.2846224720133863,-0.168273495,-0.99511464,-0.14208948,-6.9433,-5.371519999999999,3.70818,69.0
1774823165.6104298,0.0037665367126464844,2026-03-29T22:26:05.610,2026-03-29T18:26:05.610,-32266.395,-43237.935,-82347.12,-49972.095,-11207.97,-17263.98,6165.945,-65800.845,4.875664734227648,3.7831714762400592,-1.2584186858239468,-5.485307913285756,-5.400841354945092,-1.0850592073021792,-2.741022757234805,-0.4920764008258992,-0.168273495,-0.99511464,-0.14208948,-6.9433,-5.371519999999999,3.70818,69.0
1774823165.6104567,2.6941299438476562e-05,2026-03-29T22:26:05.610,2026-03-29T18:26:05.610,-32262.93,-43244.46,-82346.715,-49980.195,-11216.654999999999,-17264.295,6164.82,-65780.09999999999,0.25646529977514226,0.6594979344917805,-6.176884627259441,-10.49050686414373,-9.429660452101638,-6.258246212106003,-0.27656282724796155,-1.9580419493207732,-0.168273495,-0.99511464,-0.14208948,-6.9433,-5.371519999999999,3.70818,69.0
1774823165.6150491,0.004592418670654297,2026-03-29T22:26:05.615,2026-03-29T18:26:05.615,-32262.48,-43237.08,-82337.12999999999,-49979.61,-11215.755,-17261.954999999998,6160.905,-65781.405,-4.303750857889411,-2.537301054761331,-8.120054277393669,-10.516695249922224,-9.089921105771866,-8.757287738736949,2.344122242748766,-2.3306077122059223,-0.168273495,-0.99511464,-0.14208948,-6.9433,-5.371519999999999,3.70818,69.0
1774823165.6150696,2.0503997802734375e-05,2026-03-29T22:26:05.615,2026-03-29T18:26:05.615,-32262.704999999998,-43231.814999999995,-82330.02,-49978.395,-11223.9,-17276.445,6149.16,-65797.515,-6.736351190757578,-4.329670329787224,-6.09434500960241,-5.369570400797909,-4.374790222473169,-7.247036374407655,3.990255125620863,-1.4229106756243706,-0.168273495,-0.99511464,-0.14208948,-6.9433,-5.371519999999999,3.70818,69.0
1774823165.618873,0.003803253173828125,2026-03-29T22:26:05.618,2026-03-29T18:26:05.618,-32263.245,-43230.96,-82328.175,-49971.6,-11222.279999999999,-17284.364999999998,6151.905,-65797.965,-6.032229601700964,-3.9919750998725627,-1.0314862764105976,2.6031568674917844,2.6021188376071644,-2.2522954972811067,3.9227244068864984,0.2566042525800189,-0.168273495,-0.99511464,-0.14208948,-6.9433,-5.371519999999999,3.70818,69.0
1774823165.61889,1.71661376953125e-05,2026-03-29T22:26:05.618,2026-03-29T18:26:05.618,-32251.995,-43221.555,-82320.20999999999,-49961.115,-11213.145,-17282.61,6162.615,-65777.58,-2.6595166849767398,-1.8454881711569562,4.63818270493096,9.595168167088287,8.562876925933496,4.010094232280171,2.1272968714727547,1.7792463615630774,-0.168273495,-0.99511464,-0.14208948,-6.9433,-5.371519999999999,3.70818,69.0
1774823165.6237092,0.004819154739379883,2026-03-29T22:26:05.623,2026-03-29T18:26:05.623,-32256.809999999998,-43228.845,-82325.295,-49958.145,-11206.439999999999,-17277.57,6167.655,-65775.825,1.721945535536903,0.960502885839208,8.145571702296264,12.16793765120005,10.619651050919495,8.629254811695398,-0.6519584256403195,2.30035328566672,-0.165221745,-1.0034154,-0.14642296500000002,-4.059159999999999,-5.05106,4.2270199999999996,69.0
1774823165.6237292,2.002716064453125e-05,2026-03-29T22:26:05.623,2026-03-29T18:26:05.623,-32263.605,-43248.375,-82348.515,-49976.46,-11217.96,-17281.8,6165.63,-65779.47,5.083512138009286,3.049982047440748,7.7256057904231605,8.940030779498022,7.684113472135035,9.372408044738583,-3.210612021829488,1.5223989240587696,-0.165221745,-1.0034154,-0.14642296500000002,-4.059159999999999,-5.05106,4.2270199999999996,69.0
1774823165.6264625,0.0027332305908203125,2026-03-29T22:26:05.626,2026-03-29T18:26:05.626,-32273.19,-43255.08,-82353.645,-49980.15,-11219.4,-17284.274999999998,6168.6449999999995,-65790.09,5.977438500099101,3.494493670708371,3.4960681719434668,1.3098281853550187,1.039192551778823,5.7751826225505045,-4.400672508613141,-0.13479208005463628,-0.165221745,-1.0034154,-0.14642296500000002,-4.059159999999999,-5.05106,4.2270199999999996,69.0
1774823165.6264832,2.0742416381835938e-05,2026-03-29T22:26:05.626,2026-03-29T18:26:05.626,-32269.59,-43250.67,-82346.22,-49974.21,-11218.77,-17290.755,6167.969999999999,-65788.515,4.164052758597763,2.2303769342401885,-2.5612972221760373,-7.159987355282679,-6.226244109206591,-0.5879761518573613,-3.6476546211424488,-1.7538689774570293,-0.165221745,-1.0034154,-0.14642296500000002,-4.059159999999999,-5.05106,4.2270199999999996,69.0
1774823165.630566,0.004082679748535156,2026-03-29T22:26:05.630,2026-03-29T18:26:05.630,-32267.204999999998,-43250.85,-82351.44,-49983.345,-11231.64,-17299.215,6142.455,-65789.775,0.643046814280043,0.029567017619415624,-7.5256125118686725,-12.421093097004524,-10.669224499369536,-6.805101329583069,-1.233804638184803,-2.417220847259445,-0.165221745,-1.0034154,-0.14642296500000002,-4.059159999999999,-5.05106,4.2270199999999996,69.0
1774823165.6305923,2.6464462280273438e-05,2026-03-29T22:26:05.630,2026-03-29T18:26:05.630,-32268.329999999998,-43254.765,-82369.44,-49990.725,-11236.77,-17297.954999999998,6122.835,-65796.165,-2.888614965756124,-1.93804088169628,-8.938122889649517,-11.88413444966102,-10.1418415366529,-9.981678323320759,1.7954296510840437,-1.7160685141876015,-0.165221745,-1.0034154,-0.14642296500000002,-4.059159999999999,-5.05106,4.2270199999999996,69.0
1774823165.634633,0.004040718078613281,2026-03-29T22:26:05.634,2026-03-29T18:26:05.634,-32266.934999999998,-43259.31,-82398.105,-50004.045,-11245.32,-17300.655,6138.09,-65784.87,-4.861668523480457,-2.7132146592279835,-6.010929143881925,-5.691063300375642,-4.8399244970291875,-8.608211462817708,4.079574852564822,0.0068544039021616755,-0.165221745,-1.0034154,-0.14642296500000002,-4.059159999999999,-5.05106,4.2270199999999996,69.0
1774823165.6346443,1.1205673217773438e-05,2026-03-29T22:26:05.634,2026-03-29T18:26:05.634,-32266.17,-43251.165,-82388.87999999999,-50007.33,-11242.845,-17294.715,6164.505,-65777.895,-4.538238352491232,-2.0152912383112658,-0.05256236447645059,3.309606485078882,2.7657770181742958,-3.2845004742422907,4.556876022997836,1.8214768917141588,-0.165221745,-1.0034154,-0.14642296500000002,-4.059159999999999,-5.05106,4.2270199999999996,69.0
1774823165.638554,0.0039098262786865234,2026-03-29T22:26:05.638,2026-03-29T18:26:05.638,-32268.149999999998,-43253.549999999996,-82381.995,-50018.534999999996,-11245.005,-17297.864999999998,6152.13,-65784.69,-2.275763196550682,-0.3411723905496971,6.114741933610166,10.8891389417957,9.09475347576134,3.5507905316932797,2.9654014242208286,2.704299630669108,-0.165221745,-1.0034154,-0.14642296500000002,-4.059159999999999,-5.05106,4.2270199999999996,69.0
1774823165.63858,2.5987625122070312e-05,2026-03-29T22:26:05.638,2026-03-29T18:26:05.638,-32265.405,-43259.174999999996,-82369.53,-50026.455,-11262.779999999999,-17313.57,6125.13,-65785.23,0.736167064436163,1.3380612813793484,9.488198749581008,13.442225371117111,11.163088945460183,8.759609922095873,-0.009045744508521907,2.1028759072134795,-0.165221745,-1.0034154,-0.14642296500000002,-4.059159999999999,-5.05106,4.2270199999999996,69.0
1774823165.6486013,0.010021209716796875,2026-03-29T22:26:05.648,2026-03-29T18:26:05.648,-32272.425,-43252.47,-82329.345,-50001.345,-11261.43,-17317.89,6121.9349999999995,-65789.055,3.0976916636537317,2.111157801883431,8.340143401448852,9.711402066612587,8.00864747419572,9.970231717807971,-3.023507377275136,0.2644585119679365,-0.16638141,-1.001401245,-0.147643665,-4.01338,-6.11926,6.4397199999999994,69.0
1774823165.6486232,2.193450927734375e-05,2026-03-29T22:26:05.648,2026-03-29T18:26:05.648,-32262.93,-43228.665,-82300.635,-49966.83,-11240.279999999999,-17304.165,6136.605,-65786.04,3.855589331703839,1.6073562756083528,3.093011289951599,1.403117979951936,1.14587935137474,6.672554953010388,-4.687147468618243,-1.8604405021497865,-0.16638141,-1.001401245,-0.147643665,-4.01338,-6.11926,6.4397199999999994,69.0
1774823165.6486526,2.9325485229492188e-05,2026-03-29T22:26:05.648,2026-03-29T18:26:05.648,-32247.719999999998,-43217.595,-82332.675,-50022.63,-11288.25,-17330.445,6138.495,-65781.54,2.8841270349462755,0.17514394358258606,-3.8261298806490704,-7.605598884854573,-6.168577645106988,0.42934181748059014,-4.211570328977431,-3.105123770626355,-0.16638141,-1.001401245,-0.147643665,-4.01338,-6.11926,6.4397199999999994,69.0
1774823165.64866,7.3909759521484375e-06,2026-03-29T22:26:05.648,2026-03-29T18:26:05.648,-32250.105,-43242.255,-82389.87,-50083.92,-11322.63,-17365.005,6137.235,-65783.47499999999,0.8399223410718659,-1.3273456098569187,-9.107871002584437,-13.095780751853026,-10.500656696074767,-5.882429668921216,-1.7937385383981848,-2.7165573624740693,-0.16638141,-1.001401245,-0.147643665,-4.01338,-6.11926,6.4397199999999994,69.0
1774823165.6519833,0.0033233165740966797,2026-03-29T22:26:05.651,2026-03-29T18:26:05.651,-32253.704999999998,-43251.03,-82388.87999999999,-50061.6,-11303.189999999999,-17397.809999999998,6145.155,-65767.815,-1.240200914690578,-2.012745961613913,-10.141143636808565,-12.499705532887354,-9.873761991636009,-9.423960538566996,1.4592296988516338,-0.7921911116199957,-0.16638141,-1.001401245,-0.147643665,-4.01338,-6.11926,6.4397199999999994,69.0
1774823165.6519942,1.0967254638671875e-05,2026-03-29T22:26:05.651,2026-03-29T18:26:05.651,-32267.43,-43266.24,-82367.235,-49977.63,-11230.109999999999,-17340.84,6162.389999999999,-65751.705,-2.465069753418748,-1.4573831279106344,-6.2980696396978955,-6.109324176234225,-4.685177200541117,-8.692488144005209,4.039064208887519,1.7226377844605245,-0.16638141,-1.001401245,-0.147643665,-4.01338,-6.11926,6.4397199999999994,69.0
1774823165.654582,0.0025877952575683594,2026-03-29T22:26:05.654,2026-03-29T18:26:05.654,-32266.125,-43254.134999999995,-82324.575,-49920.435,-11178.945,-17280.855,6161.445,-65757.78,-2.471970040623196,0.057068535758301946,0.707419367609342,3.072390460926676,2.5279779342794164,-4.160780828272853,4.744414911333231,3.497444821713857,-0.16638141,-1.001401245,-0.147643665,-4.01338,-6.11926,6.4397199999999994,69.0
1774823165.65461,2.7894973754882812e-05,2026-03-29T22:26:05.654,2026-03-29T18:26:05.654,-32265.989999999998,-43226.729999999996,-82297.89,-49922.415,-11169.18,-17248.32,6181.0199999999995,-65792.97,-1.501540886998205,1.6847305315429393,7.584927998492447,10.759686960907963,8.341477907910807,2.015004486721435,3.251342707004635,3.513658344668847,-0.16638141,-1.001401245,-0.147643665,-4.01338,-6.11926,6.4397199999999994,69.0
1774823165.6598856,0.005275726318359375,2026-03-29T22:26:05.659,2026-03-29T18:26:05.659,-32249.43,-43226.82,-82320.165,-49940.28,-11172.465,-17237.745,6179.355,-65765.47499999999,-0.17296766143790107,2.469259811218793,11.015197574957348,13.405403123871002,10.091818383898843,7.044329371520461,0.2697927060673009,1.6335655119258037,-0.16638141,-1.001401245,-0.147643665,-4.01338,-6.11926,6.4397199999999994,69.0
1774823165.6598964,1.0728836059570312e-05,2026-03-29T22:26:05.659,2026-03-29T18:26:05.659,-32263.065,-43240.905,-82336.00499999999,-49935.104999999996,-11153.205,-17212.454999999998,6161.355,-65771.81999999999,0.8830457668826629,1.8729901493316359,9.251058861970389,9.852942702572962,7.116246283888738,8.78739706650577,-2.793510206720593,-1.2705650830852953,-0.16638141,-1.001401245,-0.147643665,-4.01338,-6.11926,6.4397199999999994,69.0
1774823165.6626153,0.0027189254760742188,2026-03-29T22:26:05.662,2026-03-29T18:26:05.662,-32278.68,-43243.604999999996,-82337.355,-49944.825,-11165.49,-17224.92,6116.085,-65817.27,1.3251146782362655,0.09914375508766876,2.9994050088810114,1.8426279975616027,0.9984222347824244,6.672773425371511,-4.506101679184159,-3.7198254557548673,-0.173522505,-0.992612205,-0.15124473,-6.37868,-10.57518,7.477399999999999,69.0
1774823165.6626291,1.3828277587890625e-05,2026-03-29T22:26:05.662,2026-03-29T18:26:05.662,-32260.77,-43215.795,-82305.62999999999,-49933.979999999996,-11162.385,-17224.065,6135.255,-65814.48,1.1915952558558556,-1.973234507112034,-4.8586390203671,-6.8496419113490035,-5.268729369331558,1.8502172089932583,-4.09123857976895,-4.378622113398142,-0.173522505,-0.992612205,-0.15124473,-6.37868,-10.57518,7.477399999999999,69.0
1774823165.666587,0.003957986831665039,2026-03-29T22:26:05.666,2026-03-29T18:26:05.666,-32253.614999999998,-43214.715,-82312.33499999999,-49954.185,-11182.41,-17241.39,6189.929999999999,-65780.055,0.7700553623500249,-3.223032372763458,-10.60092511447002,-12.211707498404177,-8.762735506826111,-3.4382170672727166,-1.7899812888683848,-2.772220512142082,-0.173522505,-0.992612205,-0.15124473,-6.37868,-10.57518,7.477399999999999,69.0
1774823165.6666021,1.5020370483398438e-05,2026-03-29T22:26:05.666,2026-03-29T18:26:05.666,-32266.62,-43223.58,-82316.745,-49956.119999999995,-11189.925,-17254.305,6207.255,-65769.93,0.35917508166324086,-2.8760041376287107,-11.43162980103329,-11.86662290127025,-8.015536200764418,-6.923853910263621,1.2698816371893809,0.4092608126170062,-0.173522505,-0.992612205,-0.15124473,-6.37868,-10.57518,7.477399999999999,69.0
1774823165.670818,0.00421595573425293,2026-03-29T22:26:05.670,2026-03-29T18:26:05.670,-32273.73,-43232.265,-82326.95999999999,-49958.28,-11197.8,-17270.954999999998,6162.929999999999,-65785.72499999999,0.08275700977808695,-0.9454129098505093,-6.841272125694607,-6.134626742221587,-3.636645956485498,-7.296382956914852,3.6299700180039904,3.6030006104402563,-0.173522505,-0.992612205,-0.15124473,-6.37868,-10.57518,7.477399999999999,69.0
1774823165.6708472,2.9087066650390625e-05,2026-03-29T22:26:05.670,2026-03-29T18:26:05.670,-32274.18,-43238.924999999996,-82332.58499999999,-49949.865,-11183.039999999999,-17260.47,6153.3,-65789.505,-0.13566775083913704,1.7147038766035196,1.1024477480040986,2.1926413594058074,2.092272098908425,-4.674505411506848,4.206702008679983,5.140441743111577,-0.173522505,-0.992612205,-0.15124473,-6.37868,-10.57518,7.477399999999999,69.0
1774823165.6787524,0.007905244827270508,2026-03-29T22:26:05.678,2026-03-29T18:26:05.678,-32273.01,-43247.88,-82340.86499999999,-49964.715,-11196.945,-17270.91,6158.655,-65780.45999999999,-0.4412360926627039,3.792413699846084,8.692638159277081,9.223386741568136,6.405161953345391,-0.4064095158181763,2.799952403136007,4.11291483005886,-0.173522505,-0.992612205,-0.15124473,-6.37868,-10.57518,7.477399999999999,69.0
1774823165.6787727,2.0265579223632812e-05,2026-03-29T22:26:05.678,2026-03-29T18:26:05.678,-32267.34,-43252.155,-82337.355,-49963.634999999995,-11204.414999999999,-17279.145,6168.78,-65755.215,-0.8657788433375779,4.162901414739834,12.321787256823223,11.803932246207067,7.403608996527481,3.6346389386802893,0.16075680268283657,0.8893479132070212,-0.173522505,-0.992612205,-0.15124473,-6.37868,-10.57518,7.477399999999999,69.0
1774823165.6787932,2.0503997802734375e-05,2026-03-29T22:26:05.678,2026-03-29T18:26:05.678,-32277.015,-43245.54,-82324.53,-49945.814999999995,-11192.805,-17272.035,6165.8099999999995,-65761.2,-1.2338791878247701,2.478973790231693,10.201392805199697,8.947155081898575,4.904931816657123,5.886992734709046,-2.4045440966717737,-3.0015713747842985,-0.173522505,-0.992612205,-0.15124473,-6.37868,-10.57518,7.477399999999999,69.0
1774823165.6788003,7.152557373046875e-06,2026-03-29T22:26:05.678,2026-03-29T18:26:05.678,-32265.405,-43244.595,-82336.31999999999,-49959.314999999995,-11205.0,-17279.1,6154.695,-65775.42,-1.2372353322060907,-0.5968335494529705,3.240087534692141,2.1978526662634335,0.4014919818574948,5.688622892425426,-3.6869622349202347,-5.596553253959145,-0.173522505,-0.992612205,-0.15124473,-6.37868,-10.57518,7.477399999999999,69.0
1774823165.682815,0.004014730453491211,2026-03-29T22:26:05.682,2026-03-29T18:26:05.682,-32262.704999999998,-43269.345,-82374.97499999999,-49996.53,-11223.404999999999,-17283.059999999998,6167.655,-65759.84999999999,-0.6449675068674581,-3.655350628588649,-5.350319447282996,-5.1930085290822925,-3.7927408304537074,3.404156629482448,-3.155516307365301,-5.486039421135992,-0.181457055,-0.98156487,-0.153625095,-9.87322,-14.390179999999999,7.11116,69.0
1774823165.6828363,2.1219253540039062e-05,2026-03-29T22:26:05.682,2026-03-29T18:26:05.682,-32260.23,-43251.345,-82361.745,-49984.65,-11212.335,-17276.76,6167.745,-65764.62,0.4806986418612684,-5.19319484697768,-11.548214051226504,-9.847459955320307,-5.733257842156192,0.11856536111788374,-1.181927260444884,-2.5690531541393447,-0.181457055,-0.98156487,-0.153625095,-9.87322,-14.390179999999999,7.11116,69.0
1774823165.6866548,0.003818511962890625,2026-03-29T22:26:05.686,2026-03-29T18:26:05.686,-32252.579999999998,-43238.655,-82355.58,-49985.28,-11215.215,-17289.495,6163.29,-65761.11,1.7153535262726698,-4.349336739293041,-12.415427043181575,-9.820239404187147,-4.759434559477355,-2.8902544625502444,1.1885598719403314,1.8253688073412075,-0.181457055,-0.98156487,-0.153625095,-9.87322,-14.390179999999999,7.11116,69.0
1774823165.6866744,1.9550323486328125e-05,2026-03-29T22:26:05.686,2026-03-29T18:26:05.686,-32251.094999999998,-43235.549999999996,-82348.37999999999,-49987.034999999996,-11216.115,-17302.59,6160.7699999999995,-65760.345,2.4277683947352604,-1.3654889034227802,-7.493974506370695,-5.411797896857391,-1.6963458201878137,-4.637966106925335,2.7878706898114536,5.54322527559676,-0.181457055,-0.98156487,-0.153625095,-9.87322,-14.390179999999999,7.11116,69.0
1774823165.69082,0.004145622253417969,2026-03-29T22:26:05.690,2026-03-29T18:26:05.690,-32256.855,-43236.585,-82345.815,-49987.034999999996,-11210.939999999999,-17289.495,6157.3949999999995,-65773.44,2.105586976157993,2.4689101492620558,0.960058221145776,1.1047269065968954,1.7030725922382053,-4.70029257877934,2.9082008426330006,6.6619179589090125,-0.181457055,-0.98156487,-0.153625095,-9.87322,-14.390179999999999,7.11116,69.0
1774823165.6908448,2.47955322265625e-05,2026-03-29T22:26:05.690,2026-03-29T18:26:05.690,-32255.954999999998,-43234.47,-82339.065,-49982.939999999995,-11212.289999999999,-17284.68,6155.01,-65776.005,0.6824383546963014,5.383230412852219,9.022538077661455,6.6527802825153435,3.7329404252375973,-3.225753216773438,1.623092069349103,4.47949462746185,-0.181457055,-0.98156487,-0.153625095,-9.87322,-14.390179999999999,7.11116,69.0
1774823165.694552,0.0037071704864501953,2026-03-29T22:26:05.694,2026-03-29T18:26:05.694,-32252.129999999997,-43227.54,-82327.68,-49969.845,-11207.97,-17279.145,6156.315,-65768.04,-1.3294445738669494,5.950375128960558,12.937059413663674,8.817324654964725,3.594000409239685,-0.7784210519692774,-0.3031228495791609,-0.0703151764841777,-0.181457055,-0.98156487,-0.153625095,-9.87322,-14.390179999999999,7.11116,69.0
1774823165.6945727,2.0742416381835938e-05,2026-03-29T22:26:05.694,2026-03-29T18:26:05.694,-32260.23,-43234.965,-82336.05,-49972.905,-11208.33,-17275.86,6155.73,-65770.69499999999,-3.0112483080661687,3.782259444150969,10.875062260587416,6.9023238474866755,1.702886040771469,1.8714357903649013,-1.850652833119178,-4.81381899338728,-0.181457055,-0.98156487,-0.153625095,-9.87322,-14.390179999999999,7.11116,69.0
1774823165.698628,0.0040552616119384766,2026-03-29T22:26:05.698,2026-03-29T18:26:05.698,-32261.355,-43238.43,-82340.235,-49973.49,-11204.82,-17269.155,6155.639999999999,-65769.48,-3.4640452323866446,-0.24195894371139662,3.790663243892267,2.1151120838711384,-0.6653443557326608,3.9348141260652754,-2.283104518543408,-7.3782937110161155,-0.181457055,-0.98156487,-0.153625095,-9.87322,-14.390179999999999,7.11116,69.0
1774823165.6986465,1.8596649169921875e-05,2026-03-29T22:26:05.698,2026-03-29T18:26:05.698,-32262.12,-43246.485,-82348.65,-49982.085,-11216.205,-17284.905,6145.875,-65770.425,-2.28883168419143,-4.339378982985364,-5.030185707499483,-3.1443936882786505,-2.15739799176982,4.763377103370817,-1.5054852251324002,-6.378481540366134,-0.181457055,-0.98156487,-0.153625095,-9.87322,-14.390179999999999,7.11116,69.0
1774823165.7037406,0.005094051361083984,2026-03-29T22:26:05.703,2026-03-29T18:26:05.703,-32260.364999999998,-43244.549999999996,-82337.94,-49971.42,-11207.609999999999,-17280.36,6146.775,-65773.665,0.13558574248595479,-6.624596141694583,-11.509265316714657,-6.487464111676839,-2.0913548068999774,4.006106158011503,-0.06381000867294172,-2.155245651086557,-0.18151809,-0.974667915,-0.15075645000000001,-10.51414,-15.59572,6.88226,69.0
1774823165.7037525,1.1920928955078125e-05,2026-03-29T22:26:05.703,2026-03-29T18:26:05.703,-32265.225,-43255.755,-82345.77,-49977.045,-11210.58,-17283.465,6152.804999999999,-65768.76,2.7516462013383585,-5.983346717918352,-12.676107771283498,-6.62884307734078,-0.7684505965137463,1.7595080115641089,1.19479411577583,3.3238780787829554,-0.18151809,-0.974667915,-0.15075645000000001,-10.51414,-15.59572,6.88226,69.0
1774823165.7119567,0.008204221725463867,2026-03-29T22:26:05.711,2026-03-29T18:26:05.711,-32257.215,-43233.345,-82325.34,-49960.08,-11193.255,-17268.345,6171.12,-65757.78,4.288978002402646,-2.610881493234509,-8.036504159272415,-3.8647920974941123,0.7956112401438981,-1.3534292371205974,1.6027925753405634,7.384532158715904,-0.18151809,-0.974667915,-0.15075645000000001,-10.51414,-15.59572,6.88226,69.0
1774823165.7119715,1.4781951904296875e-05,2026-03-29T22:26:05.711,2026-03-29T18:26:05.711,-32271.66,-43219.26,-82309.77,-49945.905,-11180.52,-17258.085,6171.21,-65760.61499999999,3.889914363780646,2.043355219682526,0.22424263419178211,0.2312519932891376,1.5325319683993688,-4.2733394327842555,1.0271051894545427,7.954345669890928,-0.18151809,-0.974667915,-0.15075645000000001,-10.51414,-15.59572,6.88226,69.0
1774823165.7119849,1.33514404296875e-05,2026-03-29T22:26:05.711,2026-03-29T18:26:05.711,-32281.289999999997,-43227.9,-82320.12,-49959.36,-11204.279999999999,-17297.73,6144.075,-65771.64,1.5831052041833733,5.910433134743713,8.28374798724715,3.6757229905520314,0.977084338593031,-5.8183329483512285,-0.09085684452939925,4.6184440529533966,-0.18151809,-0.974667915,-0.15075645000000001,-10.51414,-15.59572,6.88226,69.0
1774823165.71199,5.245208740234375e-06,2026-03-29T22:26:05.711,2026-03-29T18:26:05.711,-32243.579999999998,-43227.045,-82335.78,-49981.005,-11237.76,-17344.89,6127.29,-65764.755,-1.6539499635665733,7.23244949265844,12.467698384384011,5.036658748342287,-0.4640867434517985,-5.16002849203647,-1.0205374094879782,-1.1154139491248631,-0.18151809,-0.974667915,-0.15075645000000001,-10.51414,-15.59572,6.88226,69.0
1774823165.7150197,0.0030295848846435547,2026-03-29T22:26:05.715,2026-03-29T18:26:05.715,-32224.094999999998,-43209.405,-82315.665,-49955.85,-11216.115,-17316.0,6139.035,-65753.595,-4.3096036402718045,5.365374968414262,10.93654233990645,4.022984728634389,-1.7785473891495633,-2.27177106859235,-1.1829542312755619,-6.500758945821431,-0.18151809,-0.974667915,-0.15075645000000001,-10.51414,-15.59572,6.88226,69.0
1774823165.7150571,3.743171691894531e-05,2026-03-29T22:26:05.715,2026-03-29T18:26:05.715,-32256.315,-43234.47,-82335.19499999999,-49960.619999999995,-11212.154999999999,-17294.22,6151.005,-65757.915,-5.054046017566324,1.0858826686137666,4.4941092072396,1.462517933907992,-1.9852059960822526,1.8947157440880467,-0.4928452856745784,-8.874275012509397,-0.18151809,-0.974667915,-0.15075645000000001,-10.51414,-15.59572,6.88226,69.0
1774823165.718707,0.0036499500274658203,2026-03-29T22:26:05.718,2026-03-29T18:26:05.718,-32261.445,-43263.63,-82381.905,-49994.865,-11231.279999999999,-17297.145,6143.3099999999995,-65759.44499999999,-3.4130418443780406,-3.7412880282339236,-3.8370482108496353,-1.247221264805731,-0.763945000721882,5.6688713247891025,0.5935234931315417,-6.976467766585998,-0.18151809,-0.974667915,-0.15075645000000001,-10.51414,-15.59572,6.88226,69.0
1774823165.7187316,2.4557113647460938e-05,2026-03-29T22:26:05.718,2026-03-29T18:26:05.718,-32240.565,-43260.795,-82394.955,-50002.92,-11228.805,-17289.54,6139.71,-65749.68,-0.05501922153978788,-6.988064094823767,-10.248555151542146,-2.8827803951251183,1.2981663282179412,7.323934397440006,1.3528570816700427,-1.6143280190002438,-0.18151809,-0.974667915,-0.15075645000000001,-10.51414,-15.59572,6.88226,69.0
1774823165.7268355,0.00810384750366211,2026-03-29T22:26:05.726,2026-03-29T18:26:05.726,-32253.57,-43269.03,-82412.64,-50024.475,-11236.005,-17285.085,6126.75,-65766.59999999999,3.4765399785066866,-7.209402773977378,-11.901487281976488,-2.9436679631542098,3.0019028742136045,5.884396119987383,1.235125782578943,4.680846605950444,-0.187194345,-0.971860305,-0.152038185,-10.48362,-17.36588,5.06632,69.0
1774823165.7268555,2.002716064453125e-05,2026-03-29T22:26:05.726,2026-03-29T18:26:05.726,-32240.745,-43240.275,-82373.58,-50007.689999999995,-11229.57,-17286.434999999998,6111.99,-65776.005,5.481017998195733,-4.286804684147907,-8.188553093582746,-1.761840780354988,3.2187264212348765,1.6926529265181485,0.214899029831519,8.856334424041982,-0.187194345,-0.971860305,-0.152038185,-10.48362,-17.36588,5.06632,69.0
1774823165.7295065,0.0026509761810302734,2026-03-29T22:26:05.729,2026-03-29T18:26:05.729,-32217.75,-43215.479999999996,-82334.565,-49977.63,-11215.26,-17289.72,6115.635,-65752.2,4.931115174656648,0.5175021283241579,-0.9399199680742639,-0.18025420243794024,1.5784596534221962,-3.5902790841803642,-1.1565533750237835,8.826433890971362,-0.187194345,-0.971860305,-0.152038185,-10.48362,-17.36588,5.06632,69.0
1774823165.7295263,1.9788742065429688e-05,2026-03-29T22:26:05.729,2026-03-29T18:26:05.729,-32219.64,-43217.775,-82323.81,-49976.46,-11212.064999999999,-17285.985,6160.365,-65721.78,2.005319058924769,5.116820470391023,6.486174231520621,0.9710292547916827,-1.2383233405037444,-7.629972883636513,-2.0431859545592603,4.516850310883795,-0.187194345,-0.971860305,-0.152038185,-10.48362,-17.36588,5.06632,69.0
1774823165.7295427,1.6450881958007812e-05,2026-03-29T22:26:05.729,2026-03-29T18:26:05.729,-32237.19,-43224.525,-82316.295,-49976.685,-11216.205,-17291.745,6199.469999999999,-65721.015,-1.9558116168691004,7.516208789791331,10.773101261069725,1.2969484608344584,-3.7941429302002585,-8.467046889214759,-1.8080125391201356,-2.059580501767633,-0.187194345,-0.971860305,-0.152038185,-10.48362,-17.36588,5.06632,69.0
1774823165.7295475,4.76837158203125e-06,2026-03-29T22:26:05.729,2026-03-29T18:26:05.729,-32255.64,-43237.439999999995,-82336.77,-49997.97,-11245.77,-17325.675,6173.91,-65746.665,-5.069266887706123,6.681928332644648,10.136018706601423,0.947728309227268,-4.641954617771591,-5.489923498743039,-0.4180614210857825,-7.7509550762595145,-0.187194345,-0.971860305,-0.152038185,-10.48362,-17.36588,5.06632,69.0
1774823165.73519,0.005642414093017578,2026-03-29T22:26:05.735,2026-03-29T18:26:05.735,-32254.379999999997,-43225.244999999995,-82325.11499999999,-49973.625,-11229.164999999999,-17305.605,6160.094999999999,-65771.775,-5.816182562460754,2.9836775430085374,5.05927470577312,0.4043787482158779,-3.1323513234072577,0.16072643973684064,1.470924647929172,-9.78819750944727,-0.187194345,-0.971860305,-0.152038185,-10.48362,-17.36588,5.06632,69.0
1774823165.7352197,2.9802322387695312e-05,2026-03-29T22:26:05.735,2026-03-29T18:26:05.735,-32246.91,-43237.439999999995,-82341.09,-49963.185,-11212.65,-17288.37,6164.775,-65755.70999999999,-3.7937338916145813,-1.9775470495221534,-2.0199625305565307,0.10957591488132501,0.16476166368316136,6.008582137577447,2.82369709734549,-7.140730527306266,-0.187194345,-0.971860305,-0.152038185,-10.48362,-17.36588,5.06632,69.0
1774823165.7388847,0.0036649703979492188,2026-03-29T22:26:05.738,2026-03-29T18:26:05.738,-32237.01,-43235.775,-82338.93,-49959.72,-11198.295,-17272.71,6173.46,-65740.185,0.06459967617425677,-6.0719116019236825,-7.889998693257059,0.18332529770276115,3.6774191662927977,9.339849349211478,2.7832041383180393,-1.038028183690745,-0.187194345,-0.971860305,-0.152038185,-10.48362,-17.36588,5.06632,69.0
1774823165.738901,1.621246337890625e-05,2026-03-29T22:26:05.738,2026-03-29T18:26:05.738,-32224.094999999998,-43238.295,-82348.785,-49989.735,-11218.904999999999,-17287.649999999998,6172.74,-65712.06,3.9215968169737576,-7.561017019323793,-10.031581849473987,0.388534943295317,5.603398583881332,8.489836794482315,1.1803829796718817,5.607555012235747,-0.187194345,-0.971860305,-0.152038185,-10.48362,-17.36588,5.06632,69.0
1774823165.7434423,0.0045413970947265625,2026-03-29T22:26:05.743,2026-03-29T18:26:05.743,-32227.695,-43229.79,-82329.61499999999,-49987.17,-11225.835,-17294.94,6162.929999999999,-65715.48,5.920342708572414,-5.836004874862452,-7.699371493493847,0.34653659046981083,4.848231493230919,3.695465133637116,-1.2955249721732294,9.603200208418524,-0.199523415,-0.97314204,-0.157165125,-12.17748,-21.211399999999998,4.059159999999999,69.0
1774823165.743471,2.86102294921875e-05,2026-03-29T22:26:05.743,2026-03-29T18:26:05.743,-32212.395,-43231.32,-82339.37999999999,-49996.439999999995,-11246.76,-17325.405,6148.26,-65702.745,5.090047671319639,-1.660777600145478,-2.154351070801563,-0.15230251245443852,1.6363391027374,-2.931215552221123,-3.3904828332513914,9.02229648410487,-0.199523415,-0.97314204,-0.157165125,-12.17748,-21.211399999999998,4.059159999999999,69.0
1774823165.7467082,0.0032372474670410156,2026-03-29T22:26:05.746,2026-03-29T18:26:05.746,-32229.18,-43246.305,-82351.035,-49995.314999999995,-11247.39,-17327.475,6140.16,-65723.58,1.8264325462189375,3.1733052448395527,4.007817617225614,-0.9522344066460792,-2.541622396472138,-8.34042199169758,-3.9199055577353126,4.140101647294362,-0.199523415,-0.97314204,-0.157165125,-12.17748,-21.211399999999998,4.059159999999999,69.0
1774823165.7467356,2.7418136596679688e-05,2026-03-29T22:26:05.746,2026-03-29T18:26:05.746,-32256.225,-43242.435,-82335.23999999999,-49974.615,-11220.029999999999,-17292.87,6144.21,-65762.055,-2.2948274356116776,6.621951502860526,8.078538173541695,-1.584770097504076,-5.641983271669595,-9.973617912329546,-2.423552960600789,-2.6994789395129755,-0.199523415,-0.97314204,-0.157165125,-12.17748,-21.211399999999998,4.059159999999999,69.0
1774823165.7562253,0.009489774703979492,2026-03-29T22:26:05.756,2026-03-29T18:26:05.756,-32264.01,-43235.505,-82338.795,-50002.064999999995,-11235.689999999999,-17289.585,6150.51,-65776.41,-5.284393240034827,7.254379150523264,8.43033536610336,-1.5483175015707564,-6.09118972055172,-7.00264186005256,0.5148935099580748,-8.220625487988286,-0.199523415,-0.97314204,-0.157165125,-12.17748,-21.211399999999998,4.059159999999999,69.0
1774823165.7562487,2.3365020751953125e-05,2026-03-29T22:26:05.756,2026-03-29T18:26:05.756,-32260.364999999998,-43225.38,-82322.955,-49988.295,-11219.265,-17285.22,6159.599999999999,-65781.63,-5.7098476344198135,4.84422215049755,5.1559630470065745,-0.6481460494590555,-3.5971605635836554,-0.7659052823199656,3.48444704312008,-9.799538560496174,-0.199523415,-0.97314204,-0.157165125,-12.17748,-21.211399999999998,4.059159999999999,69.0
1774823165.7562737,2.5033950805664062e-05,2026-03-29T22:26:05.756,2026-03-29T18:26:05.756,-32255.055,-43228.08,-82317.33,-49959.45,-11195.01,-17289.989999999998,6165.36,-65770.73999999999,-3.3922126449493044,0.44288657538011267,-0.09131607244854552,0.8163359554467953,0.6741223436811978,5.834063508247806,4.926021419972388,-6.72279279080926,-0.199523415,-0.97314204,-0.157165125,-12.17748,-21.211399999999998,4.059159999999999,69.0
1774823165.7562816,7.867813110351562e-06,2026-03-29T22:26:05.756,2026-03-29T18:26:05.756,-32261.76,-43242.57,-82321.605,-49929.705,-11161.305,-17267.445,6164.91,-65769.39,0.5148828323721746,-4.083458170403444,-4.928079135714112,2.1489763152087296,4.658950218982253,9.700738584549734,3.946792549063559,-0.5110945650929049,-0.199523415,-0.97314204,-0.157165125,-12.17748,-21.211399999999998,4.059159999999999,69.0
1774823165.758788,0.0025064945220947266,2026-03-29T22:26:05.758,2026-03-29T18:26:05.758,-32262.48,-43254.09,-82332.405,-49932.945,-11176.109999999999,-17273.34,6155.415,-65763.58499999999,4.100338703050724,-6.8475664452309095,-7.326419579108237,2.6073669691329675,6.417099752812864,9.025496404971532,0.8464035681433716,5.839386109055049,-0.199523415,-0.97314204,-0.157165125,-12.17748,-21.211399999999998,4.059159999999999,69.0
1774823165.7588024,1.430511474609375e-05,2026-03-29T22:26:05.758,2026-03-29T18:26:05.758,-32252.355,-43260.93,-82347.435,-49946.625,-11196.404999999999,-17283.915,6149.835,-65740.995,5.637503629178574,-6.727377246370248,-6.459567135499326,1.8220807483982584,5.098597990949933,4.15878772627065,-2.9451084694646372,9.316701891547202,-0.199523415,-0.97314204,-0.157165125,-12.17748,-21.211399999999998,4.059159999999999,69.0
1774823165.7627661,0.0039637088775634766,2026-03-29T22:26:05.762,2026-03-29T18:26:05.762,-32268.015,-43270.064999999995,-82365.165,-49969.755,-11204.82,-17287.38,6149.5199999999995,-65746.53,4.425136264661459,-3.8183101288982297,-2.9581306940602,0.04735659900469848,1.3655140266249213,-2.560290558622401,-5.527328955600784,8.336152728123231,-0.20678658,-0.9667944,-0.16247517,-14.78694,-25.80466,3.8455199999999996,69.0
1774823165.7627945,2.8371810913085938e-05,2026-03-29T22:26:05.762,2026-03-29T18:26:05.762,-32269.14,-43250.04,-82350.09,-49961.79,-11191.59,-17283.78,6156.405,-65769.03,1.1134128947706117,0.6286289413786809,1.4841596826977228,-1.9131575552772295,-2.944656784413185,-7.93730793785881,-5.482819104388319,3.468533086570328,-0.20678658,-0.9667944,-0.16247517,-14.78694,-25.80466,3.8455199999999996,69.0
1774823165.766778,0.003983497619628906,2026-03-29T22:26:05.766,2026-03-29T18:26:05.766,-32256.899999999998,-43234.47,-82341.9,-49969.665,-11194.289999999999,-17286.345,6154.469999999999,-65757.015,-2.6394225783445524,4.746327522038902,4.926473359711265,-3.0882401988443333,-5.740885574478684,-9.465020218608569,-2.645384634424061,-2.8840401091208876,-0.20678658,-0.9667944,-0.16247517,-14.78694,-25.80466,3.8455199999999996,69.0
1774823165.7667973,1.9311904907226562e-05,2026-03-29T22:26:05.766,2026-03-29T18:26:05.766,-32247.135,-43213.905,-82330.29,-49992.795,-11214.539999999999,-17297.235,6152.13,-65748.78,-5.0001496554672284,6.835721483469763,6.027074853688982,-2.838931405024443,-5.716069702541147,-6.519242678606354,1.7288952120918923,-7.683876379082281,-0.20678658,-0.9667944,-0.16247517,-14.78694,-25.80466,3.8455199999999996,69.0
1774823165.7729652,0.006167888641357422,2026-03-29T22:26:05.772,2026-03-29T18:26:05.772,-32239.71,-43206.479999999996,-82309.635,-49976.055,-11217.42,-17305.245,6150.014999999999,-65747.06999999999,-4.863211686276158,6.0658639749308,4.552396642831503,-1.2121644523349735,-2.976002142590986,-0.6254612397218982,5.514497490362149,-8.725271172933272,-0.20678658,-0.9667944,-0.16247517,-14.78694,-25.80466,3.8455199999999996,69.0
1774823165.7729857,2.0503997802734375e-05,2026-03-29T22:26:05.772,2026-03-29T18:26:05.772,-32235.93,-43220.564999999995,-82323.54,-49977.36,-11217.6,-17301.78,6147.135,-65741.22,-2.3749832098792596,2.8025240164140697,1.3642108421541543,1.0486058533965872,1.0501606374648238,5.323890460902239,6.751627082913999,-5.658041094163105,-0.20678658,-0.9667944,-0.16247517,-14.78694,-25.80466,3.8455199999999996,69.0
1774823165.7730029,1.71661376953125e-05,2026-03-29T22:26:05.773,2026-03-29T18:26:05.773,-32232.239999999998,-43226.82,-82331.81999999999,-49981.905,-11218.275,-17293.32,6147.855,-65731.36499999999,1.172039178705635,-1.56351675440562,-2.055407798910485,2.855786362842524,4.358210549633194,8.501871487185092,4.658547803264936,-0.08743210416540151,-0.20678658,-0.9667944,-0.16247517,-14.78694,-25.80466,3.8455199999999996,69.0
1774823165.7730105,7.62939453125e-06,2026-03-29T22:26:05.773,2026-03-29T18:26:05.773,-32238.36,-43232.939999999995,-82331.28,-49981.725,-11218.005,-17297.01,6148.575,-65722.455,4.0083152800374995,-5.208872997195025,-4.289018034469987,3.3200389863620865,5.382816306184721,7.51349575615669,0.0991961008975724,5.266061681909286,-0.20678658,-0.9667944,-0.16247517,-14.78694,-25.80466,3.8455199999999996,69.0
1774823165.7845075,0.011497020721435547,2026-03-29T22:26:05.784,2026-03-29T18:26:05.784,-32244.704999999998,-43238.159999999996,-82338.12,-49991.939999999995,-11226.734999999999,-17319.015,6131.88,-65720.025,4.773743507196544,-6.639029877080348,-4.564315930659814,2.2043037275125306,3.757654711197729,3.025059091011326,-4.763929143488707,7.907155421288368,-0.20678658,-0.9667944,-0.16247517,-14.78694,-25.80466,3.8455199999999996,69.0
1774823165.7845342,2.6702880859375e-05,2026-03-29T22:26:05.784,2026-03-29T18:26:05.784,-32260.995,-43246.485,-82345.72499999999,-49991.49,-11227.994999999999,-17324.505,6115.455,-65737.305,3.1753980958058494,-5.3014837184888055,-2.9968805424313603,0.05162672116874421,0.4446988892804305,-2.635809301904977,-7.497568361449626,6.740727872747002,-0.20678658,-0.9667944,-0.16247517,-14.78694,-25.80466,3.8455199999999996,69.0
1774823165.7845623,2.8133392333984375e-05,2026-03-29T22:26:05.784,2026-03-29T18:26:05.784,-32272.965,-43256.07,-82354.68,-49982.715,-11215.484999999999,-17303.489999999998,6132.42,-65769.435,0.09570435493659565,-1.799112734283098,-0.43390625257049026,-2.083858056678114,-2.811865478678745,-6.683012844012216,-6.61663140455254,2.5226059733098434,-0.205993125,-0.97118892,-0.164367255,-16.99964,-27.437479999999997,5.096839999999999,69.0
1774823165.7845728,1.049041748046875e-05,2026-03-29T22:26:05.784,2026-03-29T18:26:05.784,-32236.515,-43236.36,-82350.045,-49995.81,-11234.205,-17312.715,6136.335,-65745.58499999999,-2.8866152397770803,2.378786814854401,1.985035157246126,-3.1670023442654807,-4.404517391020755,-7.256785061927819,-2.382830974572587,-2.5972610345839273,-0.205993125,-0.97118892,-0.164367255,-16.99964,-27.437479999999997,5.096839999999999,69.0
1774823165.7901762,0.005603313446044922,2026-03-29T22:26:05.790,2026-03-29T18:26:05.790,-32257.89,-43251.57,-82361.47499999999,-50011.74,-11254.005,-17320.68,6121.125,-65750.175,-4.305596324931152,5.489349932441725,3.329261877667396,-2.7003466953148254,-3.669618954647029,-4.295609053402345,3.2431601743048284,-6.1741171062190565,-0.205993125,-0.97118892,-0.164367255,-16.99964,-27.437479999999997,5.096839999999999,69.0
1774823165.790202,2.574920654296875e-05,2026-03-29T22:26:05.790,2026-03-29T18:26:05.790,-32284.89,-43264.665,-82375.65,-50008.994999999995,-11243.744999999999,-17302.454999999998,6123.6449999999995,-65756.06999999999,-3.532082978340701,6.2647091629109655,3.222933482303829,-0.9647899909404869,-1.1722700900403127,0.5216621296281093,7.51086572747853,-6.64647534665107,-0.205993125,-0.97118892,-0.164367255,-16.99964,-27.437479999999997,5.096839999999999,69.0
1774823165.7937357,0.0035338401794433594,2026-03-29T22:26:05.793,2026-03-29T18:26:05.793,-32281.469999999998,-43261.83,-82376.37,-49999.68,-11219.22,-17273.52,6159.554999999999,-65741.58,-1.0532288104841954,4.431401257315759,1.9143411892336426,1.1390490697582842,1.6571378778315715,4.699393955353126,8.22830100028213,-4.020483025122918,-0.205993125,-0.97118892,-0.164367255,-16.99964,-27.437479999999997,5.096839999999999,69.0
1774823165.7937517,1.5974044799804688e-05,2026-03-29T22:26:05.793,2026-03-29T18:26:05.793,-32241.645,-43245.045,-82360.44,-49986.36,-11202.164999999999,-17269.245,6192.45,-65713.005,1.8170705425431999,0.8065637015009419,0.08129787934590162,2.561814795342437,3.318621408254804,6.215510802919512,4.886500555510175,0.24029848518080682,-0.205993125,-0.97118892,-0.164367255,-16.99964,-27.437479999999997,5.096839999999999,69.0
1774823165.79377,1.8358230590820312e-05,2026-03-29T22:26:05.793,2026-03-29T18:26:05.793,-32223.239999999998,-43239.195,-82357.56,-49984.155,-11200.545,-17278.335,6169.5,-65723.58,3.6306202913982055,-3.063479727520086,-1.5057759449299717,2.6405984253319876,3.0357181283507466,4.511363648836765,-1.0164445897030896,4.016422661918058,-0.205993125,-0.97118892,-0.164367255,-16.99964,-27.437479999999997,5.096839999999999,69.0
1774823165.793777,6.9141387939453125e-06,2026-03-29T22:26:05.793,2026-03-29T18:26:05.793,-32232.015,-43233.39,-82332.135,-49968.18,-11194.515,-17281.35,6148.71,-65737.89,3.5365561975418895,-5.564036079023396,-2.301152707715463,1.4206030451016818,1.1274054081931948,0.691168760043186,-6.646518825693143,5.5916484805437845,-0.205993125,-0.97118892,-0.164367255,-16.99964,-27.437479999999997,5.096839999999999,69.0
1774823165.7988565,0.005079507827758789,2026-03-29T22:26:05.798,2026-03-29T18:26:05.798,-32228.594999999998,-43221.24,-82313.86499999999,-49966.74,-11196.404999999999,-17284.454999999998,6161.445,-65723.22,1.6816394670004635,-5.6897435307993165,-2.1546856944836628,-0.398039250168163,-1.222859095337832,-3.13657281290197,-9.199790229578673,4.438169020744981,-0.205993125,-0.97118892,-0.164367255,-16.99964,-27.437479999999997,5.096839999999999,69.0
1774823165.7988808,2.4318695068359375e-05,2026-03-29T22:26:05.798,2026-03-29T18:26:05.798,-32231.789999999997,-43224.39,-82324.305,-49986.405,-11220.029999999999,-17318.88,6167.115,-65718.765,-0.9098981843228297,-3.452951486329375,-1.2929272694539131,-1.850310735194832,-2.6556442634328796,-5.0000797789404094,-7.302072431398494,1.3665519359263625,-0.205993125,-0.97118892,-0.164367255,-16.99964,-27.437479999999997,5.096839999999999,69.0
1774823165.8046863,0.005805492401123047,2026-03-29T22:26:05.804,2026-03-29T18:26:05.804,-32233.23,-43215.39,-82303.065,-49968.314999999995,-11218.455,-17322.03,6161.535,-65723.58,-2.8948278620886354,0.14547011386776865,-0.15480824741827817,-2.2193726182033524,-2.3949366714164033,-4.077546214356411,-1.7415245432593154,-1.9837885678327012,-0.20336862,-0.9826635,-0.167663145,-13.8103,-26.79656,8.6219,69.0
1774823165.804705,1.8596649169921875e-05,2026-03-29T22:26:05.804,2026-03-29T18:26:05.804,-32239.26,-43219.979999999996,-82311.25499999999,-49965.345,-11218.095,-17307.855,6156.675,-65733.48,-3.3058624512821364,3.56256624104013,0.8208032224587412,-1.399195318977865,-0.6630920455541275,-1.061953710543098,4.854082466600363,-4.011453276574022,-0.20336862,-0.9826635,-0.167663145,-13.8103,-26.79656,8.6219,69.0
1774823165.8066835,0.001978635787963867,2026-03-29T22:26:05.806,2026-03-29T18:26:05.806,-32236.289999999997,-43225.11,-82323.94499999999,-49964.354999999996,-11206.529999999999,-17288.145,6146.955,-65733.795,-2.023622690530356,5.378805755621503,1.3573835948844224,0.0802153919012897,1.4684795529076753,2.2857415131465175,9.266179212665216,-3.92182569191832,-0.20336862,-0.9826635,-0.167663145,-13.8103,-26.79656,8.6219,69.0
1774823165.806702,1.8358230590820312e-05,2026-03-29T22:26:05.806,2026-03-29T18:26:05.806,-32230.395,-43227.45,-82331.28,-49969.665,-11212.064999999999,-17295.795,6135.66,-65729.34,0.2053460453808944,4.894001078510539,1.3970107598100785,1.3677341355822552,2.701555442646784,4.127074297722697,9.263424463562375,-2.0272517350217667,-0.20336862,-0.9826635,-0.167663145,-13.8103,-26.79656,8.6219,69.0
1774823165.8121684,0.005466461181640625,2026-03-29T22:26:05.812,2026-03-29T18:26:05.812,-32228.73,-43230.42,-82339.155,-49992.345,-11230.064999999999,-17304.704999999998,6133.05,-65730.42,2.193493045493823,2.4003343083589272,1.053799537641403,1.766877893558419,2.257151144156306,3.5353948394203263,4.731303313290171,0.5277502907586191,-0.20336862,-0.9826635,-0.167663145,-13.8103,-26.79656,8.6219,69.0
1774823165.8121922,2.384185791015625e-05,2026-03-29T22:26:05.812,2026-03-29T18:26:05.812,-32236.065,-43233.705,-82347.48,-50012.369999999995,-11240.505,-17298.989999999998,6148.62,-65732.94,2.9422035025712288,-0.9762183110835723,0.5134831610363713,1.1107918080067403,0.330476307215576,0.9580273683227386,-2.2198980807832114,2.425311755299283,-0.20336862,-0.9826635,-0.167663145,-13.8103,-26.79656,8.6219,69.0
1774823165.8151925,0.0030002593994140625,2026-03-29T22:26:05.815,2026-03-29T18:26:05.815,-32234.805,-43235.595,-82350.62999999999,-50007.195,-11234.835,-17299.395,6158.429999999999,-65717.055,2.1435275645210625,-3.7854306446814814,-0.05851497954639705,-0.16498551785726986,-1.9996349819042567,-2.078189812070185,-8.245691097808137,2.848893684907863,-0.20336862,-0.9826635,-0.167663145,-13.8103,-26.79656,8.6219,69.0
1774823165.815217,2.4557113647460938e-05,2026-03-29T22:26:05.815,2026-03-29T18:26:05.815,-32237.414999999997,-43235.549999999996,-82336.23,-49978.665,-11211.84,-17289.315,6163.29,-65715.255,0.3011248811134387,-4.882405906409875,-0.558149687737831,-1.2851306514190726,-3.362165000446313,-3.837079381339779,-10.387990240902418,1.8302232880711848,-0.20336862,-0.9826635,-0.167663145,-13.8103,-26.79656,8.6219,69.0
1774823165.8214278,0.006210803985595703,2026-03-29T22:26:05.821,2026-03-29T18:26:05.821,-32234.445,-43234.92,-82335.69,-49964.715,-11193.615,-17279.82,6156.2699999999995,-65721.645,-1.5739506146748414,-3.9006846584609494,-0.928716405431623,-1.5816564080021607,-2.8657976116500756,-3.3344937886420953,-7.534809278925508,0.12381890480975509,-0.20336862,-0.9826635,-0.167663145,-13.8103,-26.79656,8.6219,69.0
1774823165.8214548,2.6941299438476562e-05,2026-03-29T22:26:05.821,2026-03-29T18:26:05.821,-32223.645,-43236.765,-82347.93,-49981.545,-11209.814999999999,-17295.12,6155.37,-65703.51,-2.5143551388338627,-1.3697480948934566,-1.1214779483121502,-0.8750369288451695,-0.627544782881256,-0.8686303379216568,-0.9944755464000026,-1.2779826968563326,-0.20336862,-0.9826635,-0.167663145,-13.8103,-26.79656,8.6219,69.0
1774823165.8214812,2.6464462280273438e-05,2026-03-29T22:26:05.821,2026-03-29T18:26:05.821,-32236.559999999998,-43239.78,-82350.045,-49988.7,-11217.24,-17299.395,6159.375,-65715.48,-2.0957056719908036,1.559051026199035,-1.0727432860333759,0.42280869143789646,2.239760009516394,2.160212833914613,6.111923735344858,-1.6988092848957224,-0.20178171,-0.98901114,-0.167541075,-8.37774,-23.30202,10.54466,69.0
1774823165.8214908,9.5367431640625e-06,2026-03-29T22:26:05.821,2026-03-29T18:26:05.821,-32252.399999999998,-43235.189999999995,-82328.67,-49963.86,-11193.75,-17281.125,6163.83,-65748.015,-0.6259705395092781,3.640299002298887,-0.7240937852391234,1.5410700051983712,4.190210688803154,4.0317827488356235,10.354635944803286,-1.0997057008861628,-0.20178171,-0.98901114,-0.167541075,-8.37774,-23.30202,10.54466,69.0
1774823165.8311543,0.009663581848144531,2026-03-29T22:26:05.831,2026-03-29T18:26:05.831,-32235.39,-43234.11,-82331.595,-49972.32,-11207.654999999999,-17302.995,6153.4349999999995,-65726.28,1.0586914671205823,4.072246164913149,-0.07979628901679266,1.7893108958968433,4.068921382212993,3.657858190606353,9.664215090599019,-0.017628944177021943,-0.20178171,-0.98901114,-0.167541075,-8.37774,-23.30202,10.54466,69.0
1774823165.8311818,2.7418136596679688e-05,2026-03-29T22:26:05.831,2026-03-29T18:26:05.831,-32232.239999999998,-43235.145,-82343.745,-49989.555,-11226.734999999999,-17318.745,6138.45,-65717.955,2.0643727624409367,2.8081153755819823,0.7357355678278238,0.9589381430406047,1.760792350112275,1.185485976890727,4.346291423847765,0.8095444042672458,-0.20178171,-0.98901114,-0.167541075,-8.37774,-23.30202,10.54466,69.0
1774823165.8312056,2.384185791015625e-05,2026-03-29T22:26:05.831,2026-03-29T18:26:05.831,-32236.965,-43239.51,-82341.62999999999,-49992.075,-11236.5,-17322.21,6133.545,-65718.54,1.9140949310256614,0.5181291209831737,1.4684169220829866,-0.5391114637396484,-1.6897413600505504,-2.07385024352524,-3.0589451535315035,0.8953844311453467,-0.20178171,-0.98901114,-0.167541075,-8.37774,-23.30202,10.54466,69.0
1774823165.8312154,9.775161743164062e-06,2026-03-29T22:26:05.831,2026-03-29T18:26:05.831,-32251.77,-43246.619999999995,-82331.19,-49974.345,-11227.904999999999,-17312.985,6129.855,-65738.06999999999,0.7745998885019505,-1.757258614578862,1.8025298372154457,-1.8830773670571137,-4.569271705938628,-4.348552387398968,-9.006160562836994,0.2725105766377148,-0.20178171,-0.98901114,-0.167541075,-8.37774,-23.30202,10.54466,69.0
1774823165.8362138,0.004998445510864258,2026-03-29T22:26:05.836,2026-03-29T18:26:05.836,-32258.699999999997,-43259.354999999996,-82340.775,-49972.049999999996,-11225.925,-17311.095,6115.32,-65741.48999999999,-0.6730482167089673,-3.086433498017311,1.4948496833928275,-2.287435713511721,-5.3574716773896505,-4.363569784894009,-10.661135186167737,-0.5658886844671943,-0.20178171,-0.98901114,-0.167541075,-8.37774,-23.30202,10.54466,69.0
1774823165.8362384,2.4557113647460938e-05,2026-03-29T22:26:05.836,2026-03-29T18:26:05.836,-32265.539999999997,-43275.96,-82371.19499999999,-49983.84,-11223.72,-17310.015,6112.44,-65735.55,-1.6315168649097964,-3.0343118012745016,0.5194755880976822,-1.4462871293671178,-3.521725353092426,-2.0348327854273838,-7.263992293925033,-0.9985271377086419,-0.20178171,-0.98901114,-0.167541075,-8.37774,-23.30202,10.54466,69.0
1774823165.8390229,0.0027844905853271484,2026-03-29T22:26:05.839,2026-03-29T18:26:05.839,-32251.32,-43257.555,-82385.955,-50010.255,-11225.115,-17306.73,6134.49,-65723.48999999999,-1.6255629896381412,-1.7937234567285607,-0.8542074053414579,0.2723007235495003,0.16884233585408528,1.470355861696515,-0.47698809428241085,-0.6751795087491983,-0.20178171,-0.98901114,-0.167541075,-8.37774,-23.30202,10.54466,69.0
1774823165.8390427,1.9788742065429688e-05,2026-03-29T22:26:05.839,2026-03-29T18:26:05.839,-32218.469999999998,-43230.42,-82371.015,-50027.895,-11238.84,-17314.875,6152.13,-65690.415,-0.7405369904053417,-0.026484032323715736,-2.111671303991289,1.9954761041290205,3.982967336055465,4.3389215831886485,6.442702339784406,0.256482402678201,-0.20178171,-0.98901114,-0.167541075,-8.37774,-23.30202,10.54466,69.0
1774823165.8431723,0.004129648208618164,2026-03-29T22:26:05.843,2026-03-29T18:26:05.843,-32219.64,-43225.335,-82353.15,-50021.189999999995,-11241.855,-17320.41,6150.599999999999,-65691.765,0.4599105134500669,1.4831999403538643,-2.678928812476229,2.7970078525530493,6.061660290388641,5.061584708424599,10.228077733762479,1.22972669601543,-0.19946238,-0.9912084,-0.171203175,-10.23946,-22.37116,15.107399999999998,69.0
1774823165.843207,3.457069396972656e-05,2026-03-29T22:26:05.843,2026-03-29T18:26:05.843,-32240.34,-43225.784999999996,-82336.00499999999,-50008.68,-11231.865,-17315.46,6163.2,-65725.2,1.2767907604726023,2.1834927976707412,-2.1813229664981844,2.1943067474816,5.335211700197157,3.2244051405547483,9.163865249768476,1.5966406328818394,-0.19946238,-0.9912084,-0.171203175,-10.23946,-22.37116,15.107399999999998,69.0
1774823165.8474665,0.004259586334228516,2026-03-29T22:26:05.847,2026-03-29T18:26:05.847,-32234.76,-43209.045,-82304.91,-49973.49,-11204.055,-17291.475,6172.74,-65736.27,1.2773658439492521,1.9538856830987745,-0.661079327458104,0.4243506744660083,2.06522446182402,-0.2724377681190519,3.8685913592415173,1.0272308231943443,-0.19946238,-0.9912084,-0.171203175,-10.23946,-22.37116,15.107399999999998,69.0
1774823165.847488,2.1457672119140625e-05,2026-03-29T22:26:05.847,2026-03-29T18:26:05.847,-32238.809999999998,-43230.96,-82337.31,-50014.845,-11255.039999999999,-17327.88,6151.86,-65732.715,0.5276323155722032,1.0774593071214185,1.3636779590845298,-1.6550556275804564,-2.2604555442359477,-3.6786695177907562,-3.0626206846267556,-0.26525203264371405,-0.19946238,-0.9912084,-0.171203175,-10.23946,-22.37116,15.107399999999998,69.0
1774823165.851004,0.003515958786010742,2026-03-29T22:26:05.851,2026-03-29T18:26:05.851,-32236.605,-43236.945,-82351.62,-50025.915,-11275.425,-17359.02,6109.0199999999995,-65733.795,-0.47009872122787266,0.03381797861590155,3.0586842972098056,-2.9948323879728758,-5.6306518336813145,-5.292596282672356,-8.350640936058701,-1.6105354497025486,-0.19946238,-0.9912084,-0.171203175,-10.23946,-22.37116,15.107399999999998,69.0
1774823165.8510263,2.2411346435546875e-05,2026-03-29T22:26:05.851,2026-03-29T18:26:05.851,-32239.53,-43242.165,-82357.92,-50015.79,-11270.07,-17383.364999999998,6064.11,-65734.47,-1.0901492546990876,-0.7580109079635386,3.613554863341189,-2.8943474608321083,-6.467637682684788,-4.323920176909617,-9.607587692004774,-2.240189064949551,-0.19946238,-0.9912084,-0.171203175,-10.23946,-22.37116,15.107399999999998,69.0
1774823165.8591821,0.00815582275390625,2026-03-29T22:26:05.859,2026-03-29T18:26:05.859,-32227.92,-43226.775,-82337.76,-49996.08,-11240.595,-17338.005,6097.32,-65720.79,-0.9605422104713638,-1.1104241283561789,2.626508389164263,-1.3693054978822798,-4.372616275784823,-1.2776759831205873,-6.426551957664355,-1.7232595133769926,-0.19946238,-0.9912084,-0.171203175,-10.23946,-22.37116,15.107399999999998,69.0
1774823165.8591945,1.239776611328125e-05,2026-03-29T22:26:05.859,2026-03-29T18:26:05.859,-32229.27,-43213.5,-82314.405,-49977.765,-11211.975,-17286.795,6164.594999999999,-65727.765,-0.1834729467019196,-1.0804277700721228,0.35304450638093654,0.84647043350382,-0.3042139915209873,2.326344610424346,-0.48219330967977303,-0.2337892027736752,-0.19946238,-0.9912084,-0.171203175,-10.23946,-22.37116,15.107399999999998,69.0
1774823165.8592064,1.1920928955078125e-05,2026-03-29T22:26:05.859,2026-03-29T18:26:05.859,-32247.585,-43235.865,-82340.73,-49991.445,-11212.38,-17285.985,6160.724999999999,-65746.98,0.7294620712839373,-0.8495788439215819,-2.323669800882326,2.6686540945979624,3.8847885550582344,4.737358214892468,5.36062971244545,1.507187256433637,-0.19946238,-0.9912084,-0.171203175,-10.23946,-22.37116,15.107399999999998,69.0
1774823165.8592107,4.291534423828125e-06,2026-03-29T22:26:05.859,2026-03-29T18:26:05.859,-32261.94,-43269.345,-82380.42,-49978.979999999996,-11199.465,-17297.145,6146.594999999999,-65739.915,1.1699551868071798,-0.5668886897567447,-4.226892751216906,3.209558317103055,6.317652003628047,4.846254851096506,8.452616636716273,2.595516323271653,-0.19946238,-0.9912084,-0.171203175,-10.23946,-22.37116,15.107399999999998,69.0
1774823165.8634484,0.004237651824951172,2026-03-29T22:26:05.863,2026-03-29T18:26:05.863,-32246.46,-43248.33,-82354.05,-49932.99,-11160.539999999999,-17279.505,6167.25,-65720.205,0.8107249178811748,-0.26013436480530433,-4.404514127764688,2.221910927768019,5.9498682913067205,2.7026516717948588,7.5789496309730415,2.424135916813507,-0.19238232,-0.993710835,-0.17004351,-8.316699999999999,-18.83084,17.884719999999998,69.0
1774823165.8634772,2.8848648071289062e-05,2026-03-29T22:26:05.863,2026-03-29T18:26:05.863,-32238.989999999998,-43229.97,-82331.28,-49937.354999999996,-11167.064999999999,-17294.175,6170.715,-65710.98,-0.17620522852217468,0.1336536723839894,-2.603794350737646,0.21230078903016683,3.0134066099732184,-0.5679718881245025,3.4214649145165694,1.021077571058907,-0.19238232,-0.993710835,-0.17004351,-8.316699999999999,-18.83084,17.884719999999998,69.0
1774823165.8672483,0.003771066665649414,2026-03-29T22:26:05.867,2026-03-29T18:26:05.867,-32248.754999999997,-43244.235,-82342.98,-49974.659999999996,-11191.32,-17295.12,6156.855,-65715.3,-1.1973026167734786,0.6509488768725982,0.5330612009719223,-1.828413265872317,-1.1375030275024718,-3.3741519335693497,-1.9034139525237193,-0.9421211256811457,-0.19238232,-0.993710835,-0.17004351,-8.316699999999999,-18.83084,17.884719999999998,69.0
1774823165.8672793,3.0994415283203125e-05,2026-03-29T22:26:05.867,2026-03-29T18:26:05.867,-32247.629999999997,-43248.869999999995,-82344.23999999999,-49997.835,-11208.105,-17291.52,6147.719999999999,-65716.73999999999,-1.5781297156468683,1.1905716600873062,3.6798937974440813,-2.931139385349503,-4.677236377710935,-4.458428582986119,-5.9400589071579875,-2.484506403454397,-0.19238232,-0.993710835,-0.17004351,-8.316699999999999,-18.83084,17.884719999999998,69.0
1774823165.8710237,0.003744363784790039,2026-03-29T22:26:05.871,2026-03-29T18:26:05.871,-32241.824999999997,-43238.115,-82332.765,-50007.375,-11211.525,-17276.895,6147.179999999999,-65717.45999999999,-0.976915311150616,1.5016683195871985,5.386677352284558,-2.62567147159971,-6.1316581496712,-3.4745460184607695,-7.048118857880811,-2.8209199978880117,-0.19238232,-0.993710835,-0.17004351,-8.316699999999999,-18.83084,17.884719999999998,69.0
1774823165.8710456,2.193450927734375e-05,2026-03-29T22:26:05.871,2026-03-29T18:26:05.871,-32232.78,-43215.165,-82298.43,-49982.805,-11206.395,-17276.355,6150.285,-65714.895,0.3715447947800264,1.3021775157901758,4.75360354002602,-1.1464889155732205,-4.992504609080675,-1.0704096222255315,-5.062502271554199,-1.7725229174556867,-0.19238232,-0.993710835,-0.17004351,-8.316699999999999,-18.83084,17.884719999999998,69.0
1774823165.908433,0.03738737106323242,2026-03-29T22:26:05.908,2026-03-29T18:26:05.908,-32231.07,-43226.729999999996,-82318.635,-49980.509999999995,-11209.77,-17283.015,6159.0599999999995,-65711.11499999999,1.7388107902481325,0.4712520034413009,1.90378094268718,0.7258595456514514,-1.8673623064760143,1.5225114160574869,-1.1966079835813426,0.13584781302966198,-0.19238232,-0.993710835,-0.17004351,-8.316699999999999,-18.83084,17.884719999999998,69.0
1774823165.9084616,2.86102294921875e-05,2026-03-29T22:26:05.908,2026-03-29T18:26:05.908,-32235.074999999997,-43235.28,-82331.81999999999,-49990.185,-11221.289999999999,-17301.69,6154.605,-65715.075,2.2886530984322992,-0.8016544520959564,-1.9929854756389331,2.087793059480929,1.859708850108088,3.1408693457642824,2.6794867813280967,1.9451526257051284,-0.19238232,-0.993710835,-0.17004351,-8.316699999999999,-18.83084,17.884719999999998,69.0
1774823165.9084868,2.5272369384765625e-05,2026-03-29T22:26:05.908,2026-03-29T18:26:05.908,-32231.565,-43227.854999999996,-82325.34,-49986.945,-11220.345,-17304.57,6148.08,-65712.51,1.5640451012731897,-2.021677571999792,-5.195750542894593,2.3673249052998817,4.66271560900132,3.2295663239326737,4.9651076343227984,2.7575819341853984,-0.19238232,-0.993710835,-0.17004351,-8.316699999999999,-18.83084,17.884719999999998,69.0
1774823165.9084964,9.5367431640625e-06,2026-03-29T22:26:05.908,2026-03-29T18:26:05.908,-32227.065,-43225.965,-82329.12,-49987.08,-11215.305,-17296.965,6150.735,-65708.325,-0.19975850697918343,-2.5811288209451795,-6.177577012443689,1.573720968168102,5.502240777236845,2.0109908215142074,4.99100433940165,2.1970464502653257,-0.19238232,-0.993710835,-0.17004351,-8.316699999999999,-18.83084,17.884719999999998,69.0
1774823165.9085088,1.239776611328125e-05,2026-03-29T22:26:05.908,2026-03-29T18:26:05.908,-32221.395,-43222.86,-82326.915,-49990.77,-11218.32,-17296.739999999998,6150.825,-65700.36,-2.1321868788554363,-2.0648987448740646,-4.363546701709309,0.2280979645566534,4.187404762372993,0.2457271000220722,3.1425885508728317,0.5928545229429834,-0.189391605,-0.98913321,-0.1660152,-8.63716,-16.908079999999998,19.16656,69.0
1774823165.908518,9.298324584960938e-06,2026-03-29T22:26:05.908,2026-03-29T18:26:05.908,-32224.725,-43229.655,-82337.175,-49994.325,-11219.58,-17302.364999999998,6143.219999999999,-65699.505,-3.1548225483949954,-0.5141772686482079,-0.46082244009606177,-0.9618813751596207,1.3601657460263634,-1.2331517809219805,0.47801028998210693,-1.2072541601820745,-0.189391605,-0.98913321,-0.1660152,-8.63716,-16.908079999999998,19.16656,69.0
1774823165.9085293,1.1205673217773438e-05,2026-03-29T22:26:05.908,2026-03-29T18:26:05.908,-32226.84,-43232.22,-82343.11499999999,-49983.93,-11204.189999999999,-17289.989999999998,6149.25,-65702.43,-2.5701129824973536,1.507091154266889,3.806073916690438,-1.4870253553469146,-1.8356901097596385,-1.9323019639002819,-1.877101674403885,-2.290965270237095,-0.189391605,-0.98913321,-0.1660152,-8.63716,-16.908079999999998,19.16656,69.0
1774823165.9085383,9.059906005859375e-06,2026-03-29T22:26:05.908,2026-03-29T18:26:05.908,-32235.164999999997,-43232.085,-82342.08,-49982.759999999995,-11205.63,-17291.88,6149.925,-65717.595,-0.49461945715224703,3.1116486610474117,6.462940523634558,-1.2675567312399165,-4.22322533918738,-1.8446277588057758,-3.2132465445715708,-2.157447597374744,-0.189391605,-0.98913321,-0.1660152,-8.63716,-16.908079999999998,19.16656,69.0
1774823165.908549,1.0728836059570312e-05,2026-03-29T22:26:05.908,2026-03-29T18:26:05.908,-32230.89,-43230.24,-82339.29,-49980.24,-11203.064999999999,-17290.35,6149.7,-65710.215,2.1186872032086796,3.486969193768195,6.21295435429193,-0.6185663665351177,-5.003571139944071,-1.2981336671649544,-3.3865933158664365,-0.9622712306562333,-0.189391605,-0.98913321,-0.1660152,-8.63716,-16.908079999999998,19.16656,69.0
1774823165.908558,8.821487426757812e-06,2026-03-29T22:26:05.908,2026-03-29T18:26:05.908,-32237.91,-43235.729999999996,-82335.69,-49975.65,-11197.89,-17289.945,6145.92,-65715.84,3.9174933924609885,2.3094727396485166,3.0819904569560097,0.0021838265940165393,-3.979901565237934,-0.6540700429142586,-2.650529401801554,0.5943958443085368,-0.189391605,-0.98913321,-0.1660152,-8.63716,-16.908079999999998,19.16656,69.0
1774823165.9085689,1.0967254638671875e-05,2026-03-29T22:26:05.908,2026-03-29T18:26:05.908,-32238.405,-43233.21,-82325.925,-49964.759999999995,-11187.855,-17289.27,6147.495,-65718.72,3.8463079038742785,-0.03735196715161373,-1.544151090915645,0.29359956887339883,-1.5615767116190562,-0.07313013862257588,-1.3651101629885662,1.6674834830364518,-0.189391605,-0.98913321,-0.1660152,-8.63716,-16.908079999999998,19.16656,69.0
1774823165.9085772,8.344650268554688e-06,2026-03-29T22:26:05.908,2026-03-29T18:26:05.908,-32235.48,-43239.689999999995,-82337.58,-49976.595,-11199.195,-17299.934999999998,6135.885,-65718.36,1.744454148446266,-2.5737833030584074,-5.534959542205239,0.2710206792553804,1.407261892291504,0.5029390035230322,0.19041156744705778,1.7306332118497347,-0.189391605,-0.98913321,-0.1660152,-8.63716,-16.908079999999998,19.16656,69.0
1774823165.9085884,1.1205673217773438e-05,2026-03-29T22:26:05.908,2026-03-29T18:26:05.908,-32232.059999999998,-43242.03,-82344.42,-49986.765,-11209.365,-17305.47,6126.84,-65719.98,-1.485363916474286,-4.140401918869256,-7.009661489915574,0.19630227221805482,3.918634210347345,1.1689461716756202,1.7995431806166091,0.8483799691678376,-0.189391605,-0.98913321,-0.1660152,-8.63716,-16.908079999999998,19.16656,69.0
1774823165.908597,8.58306884765625e-06,2026-03-29T22:26:05.908,2026-03-29T18:26:05.908,-32233.59,-43242.03,-82345.5,-49992.119999999995,-11214.855,-17307.27,6129.63,-65718.135,-4.262444172429433,-3.939637925220737,-5.24108665564117,0.3372167475178106,5.099324267796928,1.8332005664193027,3.163114209183351,-0.38920743581634554,-0.189391605,-0.98913321,-0.1660152,-8.63716,-16.908079999999998,19.16656,69.0
1774823165.908608,1.0967254638671875e-05,2026-03-29T22:26:05.908,2026-03-29T18:26:05.908,-32236.739999999998,-43241.445,-82343.25,-49992.975,-11217.555,-17312.85,6120.675,-65716.83,-5.104333256078153,-1.9442765327630152,-1.0268437350336432,0.7255247445389941,4.478053477335278,2.147587188157776,3.8154465480250197,-1.2260661107539987,-0.19128369,-0.991269435,-0.165221745,-5.35626,-14.69538,22.26434,69.0
1774823165.9086165,8.58306884765625e-06,2026-03-29T22:26:05.908,2026-03-29T18:26:05.908,-32250.6,-43234.29,-82324.08,-49976.685,-11205.539999999999,-17304.704999999998,6117.705,-65723.13,-3.4113775275239595,1.0373193987214642,3.666976245900057,1.0862848647613685,2.164022489238748,1.6820422330238525,3.253431378423329,-1.1857430095203148,-0.19128369,-0.991269435,-0.165221745,-5.35626,-14.69538,22.26434,69.0
1774823165.9086277,1.1205673217773438e-05,2026-03-29T22:26:05.908,2026-03-29T18:26:05.908,-32241.285,-43227.765,-82318.77,-49973.49,-11202.525,-17294.445,6139.53,-65715.345,0.15325078963718844,3.6930728949186986,6.632659793958024,1.002807017006127,-1.1249703422523474,0.2587988469699071,1.2644196858893246,-0.34688913854534537,-0.19128369,-0.991269435,-0.165221745,-5.35626,-14.69538,22.26434,69.0
1774823165.9086363,8.58306884765625e-06,2026-03-29T22:26:05.908,2026-03-29T18:26:05.908,-32212.305,-43220.655,-82324.08,-49980.78,-11211.345,-17295.434999999998,6167.07,-65699.235,3.9147575976390163,4.797740193296118,6.477335493717359,0.22595675383314112,-4.233608017774474,-1.7741494823161867,-1.7443597036740885,0.7109714070290692,-0.19128369,-0.991269435,-0.165221745,-5.35626,-14.69538,22.26434,69.0
1774823165.9108353,0.002198934555053711,2026-03-29T22:26:05.910,2026-03-29T18:26:05.910,-32228.864999999998,-43246.89,-82354.095,-49996.215,-11221.875,-17303.895,6161.8949999999995,-65701.17,5.979293979321788,3.7903043199804585,3.2954687719189475,-1.071011061913124,-5.935735350815,-3.551963727866148,-4.681945602393278,1.2624359440839794,-0.19128369,-0.991269435,-0.165221745,-5.35626,-14.69538,22.26434,69.0
1774823165.9108472,1.1920928955078125e-05,2026-03-29T22:26:05.910,2026-03-29T18:26:05.910,-32233.949999999997,-43252.56,-82351.26,-49989.465,-11217.734999999999,-17308.079999999998,6147.0,-65697.66,5.190266837480429,1.0607899951581707,-1.3756169867513832,-2.2791885675375747,-5.405910220973297,-4.056190234862302,-6.130967127798218,0.88764713304754,-0.19128369,-0.991269435,-0.165221745,-5.35626,-14.69538,22.26434,69.0
1774823165.9154375,0.004590272903442383,2026-03-29T22:26:05.915,2026-03-29T18:26:05.915,-32231.024999999998,-43256.79,-82356.75,-49990.814999999995,-11219.22,-17319.735,6133.679999999999,-65695.095,1.7640727751949479,-2.2009147223409187,-5.301044063692608,-2.6361546640192404,-2.621880985088379,-2.6825907088241503,-5.034361982281373,-0.2462275243927892,-0.19128369,-0.991269435,-0.165221745,-5.35626,-14.69538,22.26434,69.0
1774823165.915468,3.0517578125e-05,2026-03-29T22:26:05.915,2026-03-29T18:26:05.915,-32225.579999999998,-43251.03,-82363.815,-50003.415,-11225.295,-17327.024999999998,6129.495,-65687.13,-2.7397885683898857,-4.5355427006254,-6.63217440142591,-1.6744629188115272,1.4995886710071862,0.2977926066844204,-1.3774659968118452,-1.449783721062927,-0.19128369,-0.991269435,-0.165221745,-5.35626,-14.69538,22.26434,69.0
1774823165.9192233,0.003755331039428711,2026-03-29T22:26:05.919,2026-03-29T18:26:05.919,-32227.875,-43248.375,-82382.58,-50027.265,-11239.605,-17334.855,6138.36,-65688.435,-6.134341819786928,-4.882274982558997,-4.796898062914983,0.4172406943555739,5.356993992010228,3.688360754917516,3.547734558302165,-1.9028123708765698,-0.19128369,-0.991269435,-0.165221745,-5.35626,-14.69538,22.26434,69.0
1774823165.9192483,2.5033950805664062e-05,2026-03-29T22:26:05.919,2026-03-29T18:26:05.919,-32230.98,-43249.365,-82382.805,-50034.24,-11245.455,-17341.245,6136.245,-65697.75,-6.675654562578116,-3.0715145854395978,-0.7587167224321684,2.75863243447665,7.270633977721431,5.837338450985492,7.54747160142516,-1.1589133165711092,-0.19128369,-0.991269435,-0.165221745,-5.35626,-14.69538,22.26434,69.0
1774823165.923787,0.004538774490356445,2026-03-29T22:26:05.923,2026-03-29T18:26:05.923,-32232.645,-43226.189999999995,-82337.265,-49993.11,-11208.689999999999,-17308.62,6144.12,-65722.23,-3.960424305212574,0.09109417689184972,3.4795924660922855,4.144434592595832,6.221345515117525,5.45015016558719,8.507714671854027,0.5305780017847657,-0.19689891,-0.991269435,-0.163756905,-1.2207999999999999,-12.3606,22.0507,69.0
1774823165.923818,3.0994415283203125e-05,2026-03-29T22:26:05.923,2026-03-29T18:26:05.923,-32216.129999999997,-43217.28,-82323.27,-49978.665,-11205.18,-17303.895,6134.76,-65704.23,0.8122370024911715,3.191479860570279,5.875571966041848,3.6630716452765917,2.392987303442359,2.340591140966913,5.511421099139073,2.2820966896889874,-0.19689891,-0.991269435,-0.163756905,-1.2207999999999999,-12.3606,22.0507,69.0
1774823165.9273553,0.0035371780395507812,2026-03-29T22:26:05.927,2026-03-29T18:26:05.927,-32207.129999999997,-43219.845,-82326.285,-49977.674999999996,-11214.539999999999,-17322.12,6113.969999999999,-65687.985,5.373598582190155,4.853984532607214,5.34814318292049,1.2499042430187903,-2.770353102751917,-2.305068416191044,-0.49909524978096836,3.032015633256233,-0.19689891,-0.991269435,-0.163756905,-1.2207999999999999,-12.3606,22.0507,69.0
1774823165.927376,2.0742416381835938e-05,2026-03-29T22:26:05.927,2026-03-29T18:26:05.927,-32210.82,-43223.67,-82324.395,-49988.07,-11228.265,-17336.114999999998,6100.5599999999995,-65690.415,7.474781131619877,4.365757496111714,2.2819311536917954,-2.1463288943759533,-7.087754733020609,-6.361734776377051,-6.942611071729846,2.1476227660925513,-0.19689891,-0.991269435,-0.163756905,-1.2207999999999999,-12.3606,22.0507,69.0
1774823165.9331555,0.0057795047760009766,2026-03-29T22:26:05.933,2026-03-29T18:26:05.933,-32223.059999999998,-43222.14,-82314.315,-49973.895,-11212.47,-17312.625,6101.955,-65710.305,6.004934345478766,1.9889129828399703,-1.7084356602558934,-4.927366177682231,-8.568857359604802,-7.750135395597077,-10.706849914984495,-0.14250490039435745,-0.19689891,-0.991269435,-0.163756905,-1.2207999999999999,-12.3606,22.0507,69.0
1774823165.9331822,2.6702880859375e-05,2026-03-29T22:26:05.933,2026-03-29T18:26:05.933,-32239.17,-43220.564999999995,-82305.98999999999,-49962.6,-11197.529999999999,-17295.795,6117.57,-65726.28,1.5780308042104356,-1.1793168373404834,-4.6213094202166385,-5.605699545588237,-6.348017237758873,-5.510366669825207,-9.669276300623473,-2.765178444639394,-0.19689891,-0.991269435,-0.163756905,-1.2207999999999999,-12.3606,22.0507,69.0
1774823165.9360192,0.002836942672729492,2026-03-29T22:26:05.936,2026-03-29T18:26:05.936,-32221.035,-43214.04,-82312.33499999999,-49974.255,-11199.555,-17292.42,6149.88,-65693.295,-3.7215998735801943,-3.724179928910498,-5.080586205081406,-3.595730881257823,-1.1788877148745316,-0.4065534563640525,-3.8796381841075553,-4.303147754080786,-0.19689891,-0.991269435,-0.163756905,-1.2207999999999999,-12.3606,22.0507,69.0
1774823165.93605,3.075599670410156e-05,2026-03-29T22:26:05.936,2026-03-29T18:26:05.936,-32213.565,-43208.775,-82311.345,-49964.715,-11179.529999999999,-17269.02,6159.87,-65685.19499999999,-7.331022241120306,-4.559755823078171,-3.0016863943538623,0.3837771599825861,4.7889983855425164,5.299451871098321,4.248916356036372,-3.7471583467680247,-0.19689891,-0.991269435,-0.163756905,-1.2207999999999999,-12.3606,22.0507,69.0
1774823165.9400277,0.003977775573730469,2026-03-29T22:26:05.940,2026-03-29T18:26:05.940,-32235.75,-43228.665,-82324.34999999999,-49961.115,-11175.119999999999,-17263.665,6165.2699999999995,-65699.81999999999,-7.461391295739617,-3.4021591094288666,0.41871819062113447,4.547273222237418,8.9069567439639,8.861471671883468,10.9368022773544,-1.1052994320988176,-0.19689891,-0.991269435,-0.163756905,-1.2207999999999999,-12.3606,22.0507,69.0
1774823165.940054,2.6226043701171875e-05,2026-03-29T22:26:05.940,2026-03-29T18:26:05.940,-32230.17,-43231.905,-82322.73,-49959.9,-11180.385,-17270.82,6172.83,-65689.065,-3.9935833620695105,-0.8587176589175226,3.365870449565793,6.853892184817911,9.221948456602275,8.39031904921967,12.81674784755075,2.481493853284595,-0.19689891,-0.991269435,-0.163756905,-1.2207999999999999,-12.3606,22.0507,69.0
1774823165.9432633,0.003209352493286133,2026-03-29T22:26:05.943,2026-03-29T18:26:05.943,-32226.57,-43240.905,-82340.86499999999,-49991.58,-11214.494999999999,-17308.26,6160.094999999999,-65685.285,1.4355577599602907,1.890581105116681,4.364094237870593,6.019166420690396,5.421165236834811,3.8590190554905086,8.647210947470905,5.22926348160355,-0.20581002,-0.98412834,-0.166442445,-3.3419399999999997,-13.8866,24.06502,69.0
1774823165.943288,2.47955322265625e-05,2026-03-29T22:26:05.943,2026-03-29T18:26:05.943,-32206.59,-43218.36,-82315.53,-49986.494999999995,-11221.515,-17328.51,6152.3099999999995,-65678.48999999999,6.212887468076637,3.652366586322009,3.024780446026522,2.2201498756907236,-0.9387980018318253,-2.764169251693014,0.08061454660233645,5.597744017399982,-0.20581002,-0.98412834,-0.166442445,-3.3419399999999997,-13.8866,24.06502,69.0
1774823165.9472854,0.003997325897216797,2026-03-29T22:26:05.947,2026-03-29T18:26:05.947,-32194.125,-43231.5,-82358.09999999999,-50021.775,-11255.039999999999,-17352.405,6152.58,-65648.565,8.020201709171252,3.7496614897873926,0.20185331672342094,-2.8896411595027507,-7.067413288784429,-8.376733564718215,-8.970850843719825,3.133181514288912,-0.20581002,-0.98412834,-0.166442445,-3.3419399999999997,-13.8866,24.06502,69.0
1774823165.947307,2.1696090698242188e-05,2026-03-29T22:26:05.947,2026-03-29T18:26:05.947,-32199.254999999997,-43221.06,-82372.14,-50031.585,-11258.145,-17338.41,6151.275,-65659.86,5.97282783174996,2.281464235952328,-2.5103873816027327,-6.9083336792754855,-10.182225064525666,-10.217521013111188,-14.141144137508835,-1.1866168027109807,-0.20581002,-0.98412834,-0.166442445,-3.3419399999999997,-13.8866,24.06502,69.0
1774823165.951443,0.004135847091674805,2026-03-29T22:26:05.951,2026-03-29T18:26:05.951,-32200.695,-43236.765,-82395.27,-50053.409999999996,-11268.404999999999,-17346.87,6137.639999999999,-65662.245,1.0604614899931664,0.012844562346613372,-3.6548235425835225,-7.83222895316788,-8.796008095112152,-7.2448992659439835,-12.745271729534764,-5.33017599738241,-0.20581002,-0.98412834,-0.166442445,-3.3419399999999997,-13.8866,24.06502,69.0
1774823165.9514956,5.269050598144531e-05,2026-03-29T22:26:05.951,2026-03-29T18:26:05.951,-32227.739999999998,-43240.185,-82360.53,-49997.43,-11205.539999999999,-17305.245,6135.21,-65687.13,-4.332737050561797,-2.0244561387474316,-2.689173727379433,-5.065322050433958,-3.4423795228294223,-0.7210187124351227,-5.185944856737181,-7.173220121273811,-0.20581002,-0.98412834,-0.166442445,-3.3419399999999997,-13.8866,24.06502,69.0
1774823165.9559886,0.004492998123168945,2026-03-29T22:26:05.955,2026-03-29T18:26:05.955,-32239.664999999997,-43235.01,-82335.19499999999,-49971.42,-11174.85,-17275.68,6141.33,-65708.55,-7.595479799819268,-3.012173004195137,-0.25017508086298335,0.2215718242265976,3.5209033267376784,6.32298753678154,5.110090948325905,-5.585517164432212,-0.20581002,-0.98412834,-0.166442445,-3.3419399999999997,-13.8866,24.06502,69.0
1774823165.9560187,3.0040740966796875e-05,2026-03-29T22:26:05.956,2026-03-29T18:26:05.956,-32236.245,-43247.385,-82338.705,-49971.735,-11168.865,-17261.73,6155.91,-65684.16,-7.1681948677205805,-2.6780883756156837,2.2279164867468393,5.590160000264904,8.963541616599118,10.515009461715401,13.259372600611071,-1.0881899938176396,-0.20581002,-0.98412834,-0.166442445,-3.3419399999999997,-13.8866,24.06502,69.0
1774823165.9667895,0.010770797729492188,2026-03-29T22:26:05.966,2026-03-29T18:26:05.966,-32224.32,-43256.07,-82355.715,-49994.82,-11207.97,-17315.954999999998,6146.054999999999,-65648.385,-3.300865814390446,-1.3438249847914572,3.323539201304976,8.477616585880714,10.413610666507962,9.781237708849948,15.26927183206251,4.288655779428092,-0.20581002,-0.98412834,-0.166442445,-3.3419399999999997,-13.8866,24.06502,69.0
1774823165.9668133,2.384185791015625e-05,2026-03-29T22:26:05.966,2026-03-29T18:26:05.966,-32211.0,-43240.68,-82340.55,-49991.58,-11225.925,-17340.48,6132.0599999999995,-65650.86,2.083723344930975,0.30056487169351065,2.4201481263523874,7.438735705785783,7.202402750845593,4.388645297842894,10.02260801786662,7.928652640510665,-0.20581002,-0.98412834,-0.166442445,-3.3419399999999997,-13.8866,24.06502,69.0
1774823165.9668355,2.2172927856445312e-05,2026-03-29T22:26:05.966,2026-03-29T18:26:05.966,-32212.934999999998,-43203.96,-82292.94,-49958.729999999996,-11192.355,-17300.385,6143.94,-65705.22,6.349559086907164,1.5550351684444816,0.04678736057835064,2.87673202460808,0.7827763194050341,-3.1402300088404096,-0.10010906777768137,7.910043358169078,-0.213073185,-0.9798558900000001,-0.168517635,-1.09872,-14.207059999999998,25.179,69.0
1774823165.9668453,9.775161743164062e-06,2026-03-29T22:26:05.966,2026-03-29T18:26:05.966,-32225.76,-43193.205,-82278.315,-49948.74,-11176.244999999999,-17277.524999999998,6159.195,-65718.45,7.449270337623826,2.014228407296125,-2.4192316452987073,-3.1100568236443196,-5.9346881589475355,-9.220771506493795,-10.307355542250644,4.014078732247131,-0.213073185,-0.9798558900000001,-0.168517635,-1.09872,-14.207059999999998,25.179,69.0
1774823165.9668567,1.1444091796875e-05,2026-03-29T22:26:05.966,2026-03-29T18:26:05.966,-32225.445,-43215.165,-82312.425,-49976.369999999995,-11199.779999999999,-17293.905,6147.9,-65702.925,4.920441869717124,1.6825886039347104,-3.524811140253736,-7.7089915788004735,-9.92092186792236,-10.936906525624059,-15.693070613270866,-2.0659787697191905,-0.213073185,-0.9798558900000001,-0.168517635,-1.09872,-14.207059999999998,25.179,69.0
1774823165.9668653,8.58306884765625e-06,2026-03-29T22:26:05.966,2026-03-29T18:26:05.966,-32232.059999999998,-43231.229999999996,-82335.23999999999,-49997.205,-11219.445,-17313.48,6114.195,-65706.165,0.08568108378963393,0.8771142204274084,-2.5645836848623578,-8.735553381626591,-9.417330681347815,-7.46243264401302,-13.628793034879333,-7.463894287235455,-0.213073185,-0.9798558900000001,-0.168517635,-1.09872,-14.207059999999998,25.179,69.0
1774823165.9711187,0.004253387451171875,2026-03-29T22:26:05.971,2026-03-29T18:26:05.971,-32238.629999999997,-43236.585,-82336.815,-49997.34,-11221.92,-17319.059999999998,6080.985,-65718.45,-4.632917610622668,0.005475308516068331,0.00035561989272287896,-5.686976615379264,-4.726807963151123,-0.4702329950677586,-5.069166419471722,-9.503741974019663,-0.213073185,-0.9798558900000001,-0.168517635,-1.09872,-14.207059999999998,25.179,69.0
1774823165.9711385,1.9788742065429688e-05,2026-03-29T22:26:05.971,2026-03-29T18:26:05.971,-32237.01,-43234.335,-82331.325,-49999.814999999995,-11230.83,-17325.63,6091.38,-65711.52,-6.931684267224222,-0.642484257984859,2.7674163518765527,0.008200058522838435,1.9558810532459185,6.677920958995081,5.887909421098309,-7.033537262853348,-0.213073185,-0.9798558900000001,-0.168517635,-1.09872,-14.207059999999998,25.179,69.0
1774823165.975204,0.004065513610839844,2026-03-29T22:26:05.975,2026-03-29T18:26:05.975,-32221.395,-43212.78,-82306.8,-49973.715,-11202.84,-17291.745,6159.554999999999,-65689.875,-5.761173252716493,-0.9823824117075441,4.150020585860828,5.669682279254229,7.582658473779771,10.565969152035581,13.98461981095459,-1.061352656944203,-0.213073185,-0.9798558900000001,-0.168517635,-1.09872,-14.207059999999998,25.179,69.0
1774823165.9752347,3.075599670410156e-05,2026-03-29T22:26:05.975,2026-03-29T18:26:05.975,-32223.42,-43222.14,-82325.97,-49981.275,-11207.925,-17296.739999999998,6169.7699999999995,-65680.02,-1.8151190452956676,-1.0808781689188793,3.261874304460023,8.645804442908215,9.662325208481755,9.379216242902281,15.359814414684699,5.652005124146449,-0.213073185,-0.9798558900000001,-0.168517635,-1.09872,-14.207059999999998,25.179,69.0
1774823165.9793007,0.004065990447998047,2026-03-29T22:26:05.979,2026-03-29T18:26:05.979,-32234.579999999998,-43235.775,-82349.64,-49988.025,-11208.555,-17303.985,6151.005,-65694.87,2.8596060607032214,-1.0258700341342177,0.4438324730549412,7.574238910349917,7.380527485156627,3.7681341095447145,9.419754273317825,9.881632778091411,-0.213073185,-0.9798558900000001,-0.168517635,-1.09872,-14.207059999999998,25.179,69.0
1774823165.9793165,1.5735626220703125e-05,2026-03-29T22:26:05.979,2026-03-29T18:26:05.979,-32234.715,-43249.68,-82373.58,-49995.18,-11202.48,-17301.465,6134.58,-65688.885,5.919496070408265,-0.8261257888148809,-2.8670646485112905,3.0151466586659326,1.9181909466994147,-3.498327942344795,-0.8972612643060774,9.501379267434075,-0.213073185,-0.9798558900000001,-0.168517635,-1.09872,-14.207059999999998,25.179,69.0
1774823165.9866977,0.0073812007904052734,2026-03-29T22:26:05.986,2026-03-29T18:26:05.986,-32222.385,-43240.545,-82367.595,-50006.25,-11211.345,-17313.21,6075.45,-65686.995,5.903700871341067,-0.414063594556196,-4.875951095006124,-2.8415175776783554,-4.155335804426751,-8.908136352639978,-10.584641715673179,4.557389539763556,-0.220763595,-0.97656,-0.17016558,0.19838,-14.45122,28.01736,69.0
1774823165.9867141,1.6450881958007812e-05,2026-03-29T22:26:05.986,2026-03-29T18:26:05.986,-32214.195,-43222.814999999995,-82337.265,-50007.24,-11232.18,-17344.125,6022.98,-65710.845,2.9406031916160345,0.2525398366375178,-4.394084093913046,-7.241020023785158,-8.103211901655108,-9.922481702504898,-15.02517683877112,-2.6918347746871762,-0.220763595,-0.97656,-0.17016558,0.19838,-14.45122,28.01736,69.0
1774823165.986737,2.288818359375e-05,2026-03-29T22:26:05.986,2026-03-29T18:26:05.986,-32222.61,-43239.42,-82358.775,-50039.415,-11267.865,-17373.87,6071.13,-65695.59,-1.3639604725937897,1.068793228607055,-1.5137269069236483,-8.176894726195686,-8.26973933668502,-6.185440615874346,-12.222630373476044,-8.816905415805861,-0.220763595,-0.97656,-0.17016558,0.19838,-14.45122,28.01736,69.0
1774823165.986742,5.0067901611328125e-06,2026-03-29T22:26:05.986,2026-03-29T18:26:05.986,-32208.39,-43215.93,-82324.70999999999,-50016.015,-11248.289999999999,-17344.845,6144.165,-65661.97499999999,-4.781880259464894,1.7431543410149481,2.379697945262391,-5.318164733877232,-4.77987497053274,0.3577165212811676,-3.713822815405303,-10.855845878671404,-0.220763595,-0.97656,-0.17016558,0.19838,-14.45122,28.01736,69.0
1774823165.9926581,0.005916118621826172,2026-03-29T22:26:05.992,2026-03-29T18:26:05.992,-32217.57,-43217.82,-82309.905,-49993.244999999995,-11231.324999999999,-17322.975,6181.2,-65654.81999999999,-5.611050679722319,1.8972901396671056,5.287176075691977,-0.11701307116992639,0.6078440633187296,6.469003749104326,6.262801007949665,-7.75936707775839,-0.220763595,-0.97656,-0.17016558,0.19838,-14.45122,28.01736,69.0
1774823165.9926748,1.6689300537109375e-05,2026-03-29T22:26:05.992,2026-03-29T18:26:05.992,-32229.27,-43223.265,-82308.825,-49964.895,-11194.02,-17285.985,6210.179999999999,-65666.79,-3.5264777688764677,1.2734131993268185,5.628144516053999,4.931537432614078,5.385896449591784,9.230942950932603,12.895992197873092,-0.9321556661837648,-0.220763595,-0.97656,-0.17016558,0.19838,-14.45122,28.01736,69.0
1774823165.995932,0.003257274627685547,2026-03-29T22:26:05.995,2026-03-29T18:26:05.995,-32226.66,-43224.57,-82315.845,-49951.575,-11173.68,-17277.66,6185.61,-65668.77,0.2929650853684075,-0.06298643024836548,3.0894994235181823,7.498520490384574,7.474356880554809,7.455290751143138,13.149873678694671,6.409603158619961,-0.220763595,-0.97656,-0.17016558,0.19838,-14.45122,28.01736,69.0
1774823165.99596,2.7894973754882812e-05,2026-03-29T22:26:05.995,2026-03-29T18:26:05.995,-32219.414999999997,-43228.979999999996,-82329.435,-49966.244999999995,-11188.125,-17291.024999999998,6160.005,-65660.22,3.8110563575314678,-1.6571267876113198,-1.1610307769503219,6.50694203863861,6.132617773431748,2.199482687879118,7.1718077622658365,10.76820395024812,-0.220763595,-0.97656,-0.17016558,0.19838,-14.45122,28.01736,69.0
1774823165.9992533,0.003293275833129883,2026-03-29T22:26:05.999,2026-03-29T18:26:05.999,-32202.135,-43235.46,-82352.925,-49995.405,-11212.875,-17310.555,6142.635,-65639.43,5.206152655599275,-2.808600942692209,-5.026639938969962,2.5833302461612044,2.2040233553105857,-3.83617535258171,-1.902046534410831,10.047295873164826,-0.220763595,-0.97656,-0.17016558,0.19838,-14.45122,28.01736,69.0
1774823165.999282,2.86102294921875e-05,2026-03-29T22:26:05.999,2026-03-29T18:26:05.999,-32186.655,-43245.27,-82374.93,-50021.369999999995,-11232.539999999999,-17329.364999999998,6133.59,-65612.565,3.8087695552727747,-2.8856723914046736,-6.530690692900443,-2.3132265099856966,-2.3757087880876466,-7.6957648712586755,-9.592056807018583,4.570486894687356,-0.220763595,-0.97656,-0.17016558,0.19838,-14.45122,28.01736,69.0
1774823166.0040576,0.0047757625579833984,2026-03-29T22:26:06.004,2026-03-29T18:26:06.004,-32191.739999999998,-43229.115,-82344.015,-50000.67,-11211.48,-17310.105,6143.67,-65613.555,0.4240147808876848,-1.6658530761048054,-4.831701090152779,-5.872182228755131,-5.530851707259539,-7.625820623561293,-12.307024953197496,-3.0638798567443795,-0.229186425,-0.976254825,-0.170104545,1.15976,-12.71158,30.39792,69.0
1774823166.0041196,6.198883056640625e-05,2026-03-29T22:26:06.004,2026-03-29T18:26:06.004,-32221.62,-43215.435,-82308.465,-49965.975,-11183.805,-17281.305,6157.349999999999,-65669.355,-3.1168881546567206,0.47893530379060567,-0.6807145032237967,-6.529290649539634,-5.98981394918025,-3.879646092376943,-9.04048196871489,-9.22664183178397,-0.229186425,-0.976254825,-0.170104545,1.15976,-12.71158,30.39792,69.0
1774823166.007985,0.003865480422973633,2026-03-29T22:26:06.007,2026-03-29T18:26:06.007,-32232.329999999998,-43217.369999999995,-82308.42,-49961.835,-11185.154999999999,-17281.755,6161.49,-65698.2,-4.931245688926488,2.6752938330903038,3.9229219101663473,-4.155995391020964,-3.7901080249289616,1.5048879579103818,-1.720522932569678,-10.9997577960331,-0.229186425,-0.976254825,-0.170104545,1.15976,-12.71158,30.39792,69.0
1774823166.008006,2.09808349609375e-05,2026-03-29T22:26:06.008,2026-03-29T18:26:06.008,-32235.434999999998,-43218.945,-82306.26,-49960.215,-11186.369999999999,-17287.515,6153.795,-65697.56999999999,-4.072304961510527,3.909200557616317,6.713406338130368,-0.036626898642742614,-0.14861798487071862,5.800402340767192,5.8939787457840325,-7.572486498157319,-0.229186425,-0.976254825,-0.170104545,1.15976,-12.71158,30.39792,69.0
1774823166.0208523,0.012846231460571289,2026-03-29T22:26:06.020,2026-03-29T18:26:06.020,-32238.855,-43233.615,-82320.97499999999,-49978.619999999995,-11208.869999999999,-17315.864999999998,6124.005,-65684.06999999999,-1.0160701230342482,3.5027159738689195,6.2871413259047415,3.8157732972838376,3.190481433940405,6.973996853192787,10.150977938704969,-0.6171448877963764,-0.229186425,-0.976254825,-0.170104545,1.15976,-12.71158,30.39792,69.0
1774823166.0208683,1.5974044799804688e-05,2026-03-29T22:26:06.020,2026-03-29T18:26:06.020,-32227.739999999998,-43215.84,-82306.98,-49971.555,-11209.904999999999,-17322.795,6097.455,-65677.59,2.6003202612640526,1.4783240379460596,2.8097960189959688,5.643527171784457,4.7871260873772306,4.655873116534127,9.273588469296929,6.532023192938819,-0.229186425,-0.976254825,-0.170104545,1.15976,-12.71158,30.39792,69.0
1774823166.0208814,1.3113021850585938e-05,2026-03-29T22:26:06.020,2026-03-29T18:26:06.020,-32206.86,-43184.564999999995,-82282.995,-49957.155,-11199.645,-17309.114999999998,6110.73,-65661.56999999999,4.845628507524164,-1.3822330860925267,-2.055118096693069,4.746492792279928,4.120957131626392,0.22756343077592792,4.094379481702795,10.491188984734407,-0.229186425,-0.976254825,-0.170104545,1.15976,-12.71158,30.39792,69.0
1774823166.020886,4.5299530029296875e-06,2026-03-29T22:26:06.020,2026-03-29T18:26:06.020,-32196.824999999997,-43191.135,-82296.98999999999,-49972.814999999995,-11212.425,-17308.44,6158.835,-65652.66,4.5109773409729215,-3.8411405023007354,-5.960946179350821,1.7366743582190713,1.7313528761678358,-3.9709568851587123,-2.5436489980193056,9.444275401027898,-0.229186425,-0.976254825,-0.170104545,1.15976,-12.71158,30.39792,69.0
1774823166.0208912,5.245208740234375e-06,2026-03-29T22:26:06.020,2026-03-29T18:26:06.020,-32206.454999999998,-43252.83,-82371.42,-50027.625,-11253.375,-17351.46,6159.0599999999995,-65639.655,1.7456271951304148,-4.750879925391918,-7.028126563336601,-1.8380674311492624,-1.1349999933327537,-5.871010774863569,-7.333638404189165,3.984968046330081,-0.229186425,-0.976254825,-0.170104545,1.15976,-12.71158,30.39792,69.0
1774823166.020895,3.814697265625e-06,2026-03-29T22:26:06.020,2026-03-29T18:26:06.020,-32238.36,-43241.715,-82345.5,-49986.09,-11203.83,-17306.505,6164.1449999999995,-65664.0,-2.0172277483954955,-3.597116200913464,-4.75770320662265,-4.281444161029259,-3.15867411399109,-4.697538565399827,-8.162484777524169,-3.211134387945805,-0.229186425,-0.976254825,-0.170104545,1.15976,-12.71158,30.39792,69.0
1774823166.026255,0.0053598880767822266,2026-03-29T22:26:06.026,2026-03-29T18:26:06.026,-32245.965,-43225.65,-82323.27,-49962.689999999995,-11174.67,-17277.165,6161.804999999999,-65687.805,-4.804279843439487,-0.7777386845945032,-0.2599119181227696,-4.549234841836915,-3.5463830753480696,-1.2767173557936085,-5.043068918547206,-8.706181553483239,-0.240294795,-0.974912055,-0.171203175,-0.51884,-11.12454,32.99212,69.0
1774823166.026276,2.1219253540039062e-05,2026-03-29T22:26:06.026,2026-03-29T18:26:06.026,-32206.184999999998,-43214.22,-82320.435,-49977.09,-11197.395,-17293.545,6151.32,-65664.09,-5.128760056258153,2.5294321204426606,4.304423744790137,-2.6870678194742377,-2.3263127558536723,2.488530119364689,0.0903498827457483,-9.956564699937811,-0.240294795,-0.974912055,-0.171203175,-0.51884,-11.12454,32.99212,69.0
1774823166.0306852,0.004409074783325195,2026-03-29T22:26:06.030,2026-03-29T18:26:06.030,-32189.985,-43206.299999999996,-82324.53,-49997.744999999995,-11221.199999999999,-17308.98,6146.19,-65652.48,-2.768307018849348,4.868242572728927,6.781608479959397,0.27256773433040526,-0.23977545170635448,4.6605966825580625,4.528334909743192,-6.501415599040338,-0.240294795,-0.974912055,-0.171203175,-0.51884,-11.12454,32.99212,69.0
1774823166.0307035,1.8358230590820312e-05,2026-03-29T22:26:06.030,2026-03-29T18:26:06.030,-32187.51,-43205.085,-82330.515,-50019.39,-11246.4,-17338.545,6139.035,-65639.52,1.1077958689758372,5.1562378376716635,6.0550610052768095,2.8655371888367185,1.675772514304122,4.2624226134351,6.213880240511758,-0.12263648533444044,-0.240294795,-0.974912055,-0.171203175,-0.51884,-11.12454,32.99212,69.0
1774823166.0329776,0.002274036407470703,2026-03-29T22:26:06.032,2026-03-29T18:26:06.032,-32184.315,-43214.31,-82344.78,-50028.119999999995,-11260.395,-17368.11,6132.825,-65623.005,4.528216140723322,3.18974161342943,2.548522979101638,3.9103367382601752,2.587813391750413,1.7149246504466,4.6994101994977475,6.072941940922237,-0.240294795,-0.974912055,-0.171203175,-0.51884,-11.12454,32.99212,69.0
1774823166.033,2.2411346435546875e-05,2026-03-29T22:26:06.032,2026-03-29T18:26:06.032,-32188.32,-43227.63,-82352.205,-50021.505,-11253.824999999999,-17355.78,6129.585,-65612.25,5.724312182998084,-0.2355892668987046,-2.0239487164386674,3.036754368313297,2.2175776036675763,-1.4784888006484833,1.185698053748599,9.17643233517981,-0.240294795,-0.974912055,-0.171203175,-0.51884,-11.12454,32.99212,69.0
1774823166.0369763,0.003976345062255859,2026-03-29T22:26:06.036,2026-03-29T18:26:06.036,-32214.42,-43236.945,-82339.425,-49983.705,-11213.189999999999,-17312.535,6129.63,-65633.895,4.036660708283148,-3.653838903880954,-5.513467386763408,0.7975177136217046,0.8974737008712288,-3.592854596624758,-2.2897331596529593,7.8535827311821285,-0.240294795,-0.974912055,-0.171203175,-0.51884,-11.12454,32.99212,69.0
1774823166.0369978,2.1457672119140625e-05,2026-03-29T22:26:06.036,2026-03-29T18:26:06.036,-32233.545,-43227.36,-82315.17,-49953.06,-11184.21,-17287.155,6138.719999999999,-65671.29,0.26135085093760035,-5.567056915199241,-6.362345732825567,-1.6568236205752054,-0.6533688647000506,-3.6053755124150073,-4.007201994251573,2.9186106057478742,-0.240294795,-0.974912055,-0.171203175,-0.51884,-11.12454,32.99212,69.0
1774823166.041954,0.004956245422363281,2026-03-29T22:26:06.041,2026-03-29T18:26:06.041,-32228.235,-43221.51,-82317.42,-49965.57,-11194.785,-17297.505,6129.585,-65681.505,-3.7399898103237126,-5.109080602367761,-4.303172045076518,-3.156012454102319,-1.700088490781897,-1.6904812461707246,-3.4182864647570135,-3.141315052051127,-0.240294795,-0.974912055,-0.171203175,-0.51884,-11.12454,32.99212,69.0
1774823166.0419695,1.5497207641601562e-05,2026-03-29T22:26:06.041,2026-03-29T18:26:06.041,-32221.079999999998,-43222.814999999995,-82325.745,-49980.104999999996,-11203.199999999999,-17298.945,6120.764999999999,-65671.73999999999,-5.969128786806953,-2.437250379549379,-0.4156205699270428,-3.0553395620826627,-1.8252613730718357,0.9538600042764156,-1.2727575890882405,-7.421727060526307,-0.240294795,-0.974912055,-0.171203175,-0.51884,-11.12454,32.99212,69.0
1774823166.0446284,0.002658843994140625,2026-03-29T22:26:06.044,2026-03-29T18:26:06.044,-32219.055,-43229.115,-82345.995,-50006.43,-11230.199999999999,-17314.155,6123.0599999999995,-65663.37,-5.290913468225359,1.3246209137893357,3.4492864775902974,-1.4996875082216081,-1.0798412639706612,2.8206018586542103,0.9744087023161232,-8.00121300395018,-0.247863135,-0.976376895,-0.17138628,1.526,-7.858899999999999,35.616839999999996,69.0
1774823166.0446587,3.0279159545898438e-05,2026-03-29T22:26:06.044,2026-03-29T18:26:06.044,-32213.295,-43231.86,-82371.105,-50037.075,-11263.725,-17341.515,6131.16,-65644.29,-2.0025991096416815,4.5683379695079624,5.566712336628891,0.6941786220827825,0.09335942468365899,2.936357161918078,2.0742240753802177,-4.807328071840756,-0.247863135,-0.976376895,-0.17138628,1.526,-7.858899999999999,35.616839999999996,69.0
1774823166.0476985,0.003039836883544922,2026-03-29T22:26:06.047,2026-03-29T18:26:06.047,-32211.315,-43228.71,-82368.54,-50029.064999999995,-11249.865,-17333.325,6125.355,-65642.44499999999,2.3094859678341444,5.896457338857684,5.114659190157482,2.4562538435224286,1.1025392978158737,1.3680916939600614,1.6682478482595917,0.4434888551796601,-0.247863135,-0.976376895,-0.17138628,1.526,-7.858899999999999,35.616839999999996,69.0
1774823166.0477302,3.170967102050781e-05,2026-03-29T22:26:06.047,2026-03-29T18:26:06.047,-32209.425,-43221.78,-82344.06,-49988.79,-11205.404999999999,-17300.745,6142.724999999999,-65643.165,5.55072670414178,4.726181079713791,2.476854903906529,2.9718666424470435,1.48940049943231,-0.8695629349454369,0.37478818576299144,5.158446436629814,-0.247863135,-0.976376895,-0.17138628,1.526,-7.858899999999999,35.616839999999996,69.0
1774823166.0512488,0.0035185813903808594,2026-03-29T22:26:06.051,2026-03-29T18:26:06.051,-32216.67,-43227.0,-82331.86499999999,-49970.43,-11178.09,-17281.755,6146.91,-65655.72,6.145628414372601,1.5405718672909376,-1.0294541376710555,2.043999579072155,1.1226738430094687,-2.43211759980642,-0.7212863501112137,7.151584316075972,-0.247863135,-0.976376895,-0.17138628,1.526,-7.858899999999999,35.616839999999996,69.0
1774823166.0512767,2.7894973754882812e-05,2026-03-29T22:26:06.051,2026-03-29T18:26:06.051,-32224.094999999998,-43232.76,-82327.905,-49984.92,-11196.314999999999,-17296.02,6129.045,-65669.805,3.80374443328954,-2.3182937338208705,-3.823524132358666,0.1551229948519815,0.22792894562961807,-2.4265910575942207,-0.8222888003980178,5.660885711054757,-0.247863135,-0.976376895,-0.17138628,1.526,-7.858899999999999,35.616839999999996,69.0
1774823166.0559206,0.004643917083740234,2026-03-29T22:26:06.055,2026-03-29T18:26:06.055,-32210.594999999998,-43227.674999999996,-82326.59999999999,-49994.865,-11217.689999999999,-17328.69,6089.085,-65656.125,-0.34823200909765045,-5.221201639445722,-4.782936430583795,-1.781780519712148,-0.7422467024008922,-0.9133782447479769,0.06447904169820665,1.6245390808863762,-0.247863135,-0.976376895,-0.17138628,1.526,-7.858899999999999,35.616839999999996,69.0
