unix_time_s,dt_s,UTC,LOCAL,EMG1_Raw,EMG2_Raw,EMG3_Raw,EMG4_Raw,EMG5_Raw,EMG6_Raw,EMG7_Raw,EMG8_Raw,EMG1_Filtered,EMG2_Filtered,EMG3_Filtered,EMG4_Filtered,EMG5_Filtered,EMG6_Filtered,EMG7_Filtered,EMG8_Filtered,Accel1_Raw,Accel2_Raw,Accel3_Raw,Gyro1_Raw,Gyro2_Raw,Gyro3_Raw,Battery
1774823331.2840195,,2026-03-29T22:28:51.284,2026-03-29T18:28:51.284,-24489.855,-42417.945,-78622.47,-49397.715,-9744.345,-17006.445,6909.884999999999,-45040.32,-0.7916272807990036,-0.7297335374504181,-0.7295552328432109,0.05849869319408261,-0.2937599885906876,-0.248454235509089,0.260165794894065,0.04687109511328976,0.575376945,0.34936434,0.7471294350000001,-1.00716,2.10588,3.2809,68.0
1774823331.2840402,2.0742416381835938e-05,2026-03-29T22:28:51.284,2026-03-29T18:28:51.284,-24486.614999999998,-42435.045,-78663.375,-49432.814999999995,-9767.43,-17026.47,6909.57,-45059.354999999996,1.5940091096463462,0.9509469618091895,-1.6235091257604481,-4.27487129268579,-2.8965331231404514,-1.3906067365053916,1.993750440571471,-0.16573558800169513,0.575376945,0.34936434,0.7471294350000001,-1.00716,2.10588,3.2809,68.0
1774823331.2876213,0.0035810470581054688,2026-03-29T22:28:51.287,2026-03-29T18:28:51.287,-24468.614999999998,-42413.939999999995,-78652.62,-49445.64,-9773.414999999999,-17026.559999999998,6909.615,-45075.78,3.1524962357296733,1.8611358392968502,-1.8273501644055756,-6.295547119479292,-3.820028535818384,-1.643947048521376,2.7987680585675796,-0.2645380897904726,0.575376945,0.34936434,0.7471294350000001,-1.00716,2.10588,3.2809,68.0
1774823331.2876422,2.09808349609375e-05,2026-03-29T22:28:51.287,2026-03-29T18:28:51.287,-24469.515,-42412.455,-78660.62999999999,-49457.88,-9776.744999999999,-17030.34,6901.92,-45099.9,3.2616934166023883,1.759580372247646,-1.0156493971873906,-4.96614752373334,-2.524188714833793,-0.7729316381554098,2.3393610384232923,-0.20038129242078165,0.575376945,0.34936434,0.7471294350000001,-1.00716,2.10588,3.2809,68.0
1774823331.2926788,0.005036592483520508,2026-03-29T22:28:51.292,2026-03-29T18:28:51.292,-24468.704999999998,-42408.54,-78653.34,-49445.505,-9758.654999999999,-17018.1,6907.455,-45124.695,1.9755153905125278,0.9511827243294986,0.5819482416833488,-1.0242310222151088,0.2809581720348714,0.7636658248941995,0.8603501792311854,-0.019562937708481852,0.575376945,0.34936434,0.7471294350000001,-1.00716,2.10588,3.2809,68.0
1774823331.2927098,3.0994415283203125e-05,2026-03-29T22:28:51.292,2026-03-29T18:28:51.292,-24465.465,-42404.354999999996,-78642.495,-49438.53,-9767.88,-17031.78,6904.53,-45143.505,-0.051890250641387164,0.024011403792148066,2.2190512630455745,3.416187060028328,3.0131225084814535,2.049202073589897,-0.9453890082083952,0.16452106780597614,0.575376945,0.34936434,0.7471294350000001,-1.00716,2.10588,3.2809,68.0
1774823331.2951796,0.002469778060913086,2026-03-29T22:28:51.295,2026-03-29T18:28:51.295,-24467.219999999998,-42407.369999999995,-78642.54,-49433.534999999996,-9762.255,-17021.43,6893.28,-45162.585,-1.9016091595894402,-0.5266545477398401,2.985510958074038,5.989241151691882,4.088478254845059,2.2315565679075715,-2.268357822180776,0.2378091976549542,0.575376945,0.34936434,0.7471294350000001,-1.00716,2.10588,3.2809,68.0
1774823331.2951927,1.3113021850585938e-05,2026-03-29T22:28:51.295,2026-03-29T18:28:51.295,-24457.68,-42400.26,-78640.2,-49437.18,-9769.455,-17028.09,6898.86,-45179.235,-2.8119380030010492,-0.5619859205997279,2.3062334854199507,5.332927116151437,2.8139373624387205,1.0420567563201493,-2.5508521598269516,0.1525623667067137,0.575376945,0.34936434,0.7471294350000001,-1.00716,2.10588,3.2809,68.0
1774823331.2996185,0.004425764083862305,2026-03-29T22:28:51.299,2026-03-29T18:28:51.299,-24463.575,-42403.14,-78641.955,-49435.244999999995,-9768.285,-17028.135,6909.12,-45206.82,-2.4905836523394553,-0.3108680031870733,0.31511495223545527,1.8111340608990283,-0.19229645727346092,-0.9904833247212582,-1.7218712965777885,-0.04320221801279756,0.575376945,0.34936434,0.7471294350000001,-1.00716,2.10588,3.2809,68.0
1774823331.2996392,2.0742416381835938e-05,2026-03-29T22:28:51.299,2026-03-29T18:28:51.299,-24479.055,-42408.99,-78638.44499999999,-49432.365,-9764.324999999999,-17025.48,6916.455,-45239.174999999996,-1.190087836706509,-0.1482354973451738,-2.122561305243216,-2.6811595413864486,-3.2978921585348853,-2.7740012067687747,-0.19968792086588316,-0.23126685527371135,0.575376945,0.34936434,0.7471294350000001,-1.00716,2.10588,3.2809,68.0
1774823331.3037937,0.0041544437408447266,2026-03-29T22:28:51.303,2026-03-29T18:28:51.303,-24472.44,-42405.57,-78632.45999999999,-49427.145,-9763.605,-17024.805,6922.3949999999995,-45260.369999999995,0.4601718195533382,-0.2988045107637123,-3.789960316829841,-5.727576084113171,-4.729535279632799,-3.232496207810429,1.3235542901640256,-0.29048729855288963,0.577574205,0.349547445,0.74804496,4.02864,3.0825199999999997,3.0825199999999997,68.0
1774823331.3038237,3.0040740966796875e-05,2026-03-29T22:28:51.303,2026-03-29T18:28:51.303,-24471.989999999998,-42409.89,-78641.145,-49434.84,-9770.445,-17022.78,6931.17,-45273.104999999996,1.76220481272714,-0.6627816838724802,-3.7323734887123385,-5.680423665514482,-3.5597157927503473,-1.925753858634592,2.2023734511426394,-0.16865671951477937,0.577574205,0.349547445,0.74804496,4.02864,3.0825199999999997,3.0825199999999997,68.0
1774823331.3091166,0.0052928924560546875,2026-03-29T22:28:51.309,2026-03-29T18:28:51.309,-24467.94,-42400.619999999995,-78626.06999999999,-49426.515,-9761.895,-17011.035,6926.985,-45287.28,2.245366639123934,-0.8780459392050071,-1.7926408848654842,-2.5459020032317445,-0.2673668688179172,0.6373337863324824,2.1122309299432245,0.08184766006921207,0.577574205,0.349547445,0.74804496,4.02864,3.0825199999999997,3.0825199999999997,68.0
1774823331.3091357,1.9073486328125e-05,2026-03-29T22:28:51.309,2026-03-29T18:28:51.309,-24471.27,-42400.17,-78617.83499999999,-49420.259999999995,-9761.94,-17019.0,6908.8949999999995,-45305.145,1.8243746805613388,-0.5815736398164524,1.227684452845095,2.00883753000338,3.453048747223314,3.190366744529501,1.1606106141723682,0.32651341457114436,0.577574205,0.349547445,0.74804496,4.02864,3.0825199999999997,3.0825199999999997,68.0
1774823331.3117146,0.0025789737701416016,2026-03-29T22:28:51.311,2026-03-29T18:28:51.311,-24467.129999999997,-42404.265,-78616.75499999999,-49409.64,-9754.965,-17018.82,6912.2699999999995,-45313.064999999995,0.7738903797833204,0.29719589786973466,3.8993817443353347,5.535889165261647,5.560985961971115,4.337798812188042,-0.1975248192703293,0.4195026246368513,0.577574205,0.349547445,0.74804496,4.02864,3.0825199999999997,3.0825199999999997,68.0
1774823331.3117309,1.621246337890625e-05,2026-03-29T22:28:51.311,2026-03-29T18:28:51.311,-24475.41,-42425.505,-78630.84,-49400.369999999995,-9745.65,-17005.725,6920.1449999999995,-45326.384999999995,-0.4376118563768957,1.407793347170536,4.852539027886186,6.111505571930331,4.772412878906005,3.307022607804811,-1.3821665779420702,0.28582394999757726,0.577574205,0.349547445,0.74804496,4.02864,3.0825199999999997,3.0825199999999997,68.0
1774823331.3163145,0.004583597183227539,2026-03-29T22:28:51.316,2026-03-29T18:28:51.316,-24491.475,-42434.82,-78646.23,-49406.04,-9746.505,-17007.03,6915.375,-45350.595,-1.3585423475432856,2.1198445051621624,3.4846772429528468,3.373936026225235,1.3058250434252505,0.4228221936205585,-1.9374392996008938,-0.030054463483815047,0.577574205,0.349547445,0.74804496,4.02864,3.0825199999999997,3.0825199999999997,68.0
1774823331.3163376,2.3126602172851562e-05,2026-03-29T22:28:51.316,2026-03-29T18:28:51.316,-24481.98,-42416.1,-78658.965,-49436.325,-9768.734999999999,-17026.92,6905.16,-45371.43,-1.7139880781550696,1.8763770762078602,0.3218248344845249,-1.2614236582756635,-3.1491801153516366,-2.9727469480378472,-1.699652845506475,-0.3778309756414081,0.577574205,0.349547445,0.74804496,4.02864,3.0825199999999997,3.0825199999999997,68.0
1774823331.3197377,0.003400087356567383,2026-03-29T22:28:51.319,2026-03-29T18:28:51.319,-24465.825,-42397.155,-78648.56999999999,-49449.015,-9769.275,-17020.934999999998,6909.929999999999,-45384.705,-1.4633437070303605,0.5631333558897365,-3.1768397576066016,-5.333164935115905,-6.259911296954417,-5.1509079650198215,-0.82678858045303,-0.5735858373910112,0.577574205,0.349547445,0.74804496,4.02864,3.0825199999999997,3.0825199999999997,68.0
1774823331.3197694,3.170967102050781e-05,2026-03-29T22:28:51.319,2026-03-29T18:28:51.319,-24455.204999999998,-42387.345,-78632.73,-49448.79,-9776.52,-17028.72,6911.1449999999995,-45396.18,-0.761756912530244,-1.3328218839911266,-5.302604170446383,-6.6335290276252,-6.267237180928003,-4.878129407813523,0.30081119199923295,-0.49535726808999975,0.577574205,0.349547445,0.74804496,4.02864,3.0825199999999997,3.0825199999999997,68.0
1774823331.323868,0.004098653793334961,2026-03-29T22:28:51.323,2026-03-29T18:28:51.323,-24451.11,-42379.74,-78613.65,-49431.195,-9770.49,-17028.18,6907.005,-45412.244999999995,0.12978527392111444,-2.899159370157941,-4.944370997703475,-4.392892076624275,-2.9579051179876634,-2.0986908112766063,1.248150556685663,-0.15279182069180242,0.580503885,0.351866775,0.747007365,9.73588,4.21176,3.2809,68.0
1774823331.323898,3.0040740966796875e-05,2026-03-29T22:28:51.323,2026-03-29T18:28:51.323,-24452.415,-42388.695,-78618.42,-49418.235,-9758.115,-17021.655,6904.8,-45431.369999999995,0.9357097876216625,-3.24807131435557,-2.174192821562265,0.2817243111759079,2.1366532753132184,1.9539042325997833,1.686606503458479,0.3070906477946052,0.580503885,0.351866775,0.747007365,9.73588,4.21176,3.2809,68.0
1774823331.3278317,0.00393366813659668,2026-03-29T22:28:51.327,2026-03-29T18:28:51.327,-24461.594999999998,-42398.325,-78619.00499999999,-49396.814999999995,-9726.75,-16987.86,6908.13,-45453.915,1.4303142458715286,-2.0133751552280184,1.7389756763991362,4.957823603590329,6.4554883250029045,5.309136055627676,1.4927656509260467,0.6645187113536682,0.580503885,0.351866775,0.747007365,9.73588,4.21176,3.2809,68.0
1774823331.327858,2.6226043701171875e-05,2026-03-29T22:28:51.327,2026-03-29T18:28:51.327,-24470.1,-42414.479999999996,-78635.7,-49406.939999999995,-9729.315,-16986.87,6917.625,-45472.814999999995,1.4752833073106086,0.38104883209688034,4.9177449780388045,7.141794471602905,7.700264080485619,6.225889594033126,0.7656964548273202,0.732645533768834,0.580503885,0.351866775,0.747007365,9.73588,4.21176,3.2809,68.0
1774823331.3318524,0.003994464874267578,2026-03-29T22:28:51.331,2026-03-29T18:28:51.331,-24478.065,-42424.47,-78656.22,-49443.795,-9773.234999999999,-17031.239999999998,6912.585,-45491.49,1.043896917581916,2.8547621156293665,5.791160626306154,5.599514348222404,5.050134902142701,4.095488255691862,-0.22491752620636252,0.4529587658783256,0.580503885,0.351866775,0.747007365,9.73588,4.21176,3.2809,68.0
1774823331.3318715,1.9073486328125e-05,2026-03-29T22:28:51.331,2026-03-29T18:28:51.331,-24466.905,-42410.205,-78652.845,-49450.365,-9780.93,-17039.25,6910.74,-45507.869999999995,0.23839364934816068,4.171757211121639,3.8843508331241514,1.0372208935689249,-0.3397260784881976,-0.18681097841157857,-1.1319666652312634,-0.0676415571408078,0.580503885,0.351866775,0.747007365,9.73588,4.21176,3.2809,68.0
1774823331.3390653,0.007193803787231445,2026-03-29T22:28:51.339,2026-03-29T18:28:51.339,-24444.629999999997,-42387.885,-78640.11,-49444.965,-9772.56,-17028.675,6914.835,-45516.825,-0.7111440409322739,3.57038443606253,0.08077506427133473,-4.226827471269178,-5.844854544968672,-4.597945764396576,-1.637463385707106,-0.5988662785134939,0.580503885,0.351866775,0.747007365,9.73588,4.21176,3.2809,68.0
1774823331.3390844,1.9073486328125e-05,2026-03-29T22:28:51.339,2026-03-29T18:28:51.339,-24452.01,-42385.365,-78624.09,-49434.975,-9767.97,-17026.02,6911.6849999999995,-45528.84,-1.4883461474989643,1.1959510266398483,-3.7888318184844523,-7.444772310675396,-8.659677459508114,-6.952930984582272,-1.549916002925524,-0.8907836532431126,0.580503885,0.351866775,0.747007365,9.73588,4.21176,3.2809,68.0
1774823331.3391032,1.8835067749023438e-05,2026-03-29T22:28:51.339,2026-03-29T18:28:51.339,-24471.135,-42409.439999999995,-78639.165,-49435.74,-9763.605,-17020.26,6914.835,-45543.645,-1.7834788097827934,-1.90685584281213,-5.8391357359106255,-6.870487740980136,-7.230246977661268,-5.994838686070151,-0.8723723718390833,-0.7915062225708154,0.580503885,0.351866775,0.747007365,9.73588,4.21176,3.2809,68.0
1774823331.339163,5.984306335449219e-05,2026-03-29T22:28:51.339,2026-03-29T18:28:51.339,-24467.489999999998,-42434.505,-78662.83499999999,-49435.29,-9765.855,-17027.64,6911.054999999999,-45550.485,-1.4182487785873354,-4.265883836420924,-5.064649724230376,-2.695350839248318,-2.0985207650948188,-2.0619510644541674,0.18002518499312617,-0.3231949699945467,0.580503885,0.351866775,0.747007365,9.73588,4.21176,3.2809,68.0
1774823331.3442843,0.0051212310791015625,2026-03-29T22:28:51.344,2026-03-29T18:28:51.344,-24471.855,-42455.744999999995,-78679.89,-49426.965,-9751.994999999999,-17012.52,6909.884999999999,-45558.854999999996,-0.45112841147360455,-4.698792437181709,-1.8464380535886171,3.008482657925606,4.295274946742024,3.0203428479531125,1.2306863761536282,0.3206369917497584,0.580381815,0.361876515,0.74511528,9.03392,4.8831999999999995,6.36342,68.0
1774823331.3443065,2.2172927856445312e-05,2026-03-29T22:28:51.344,2026-03-29T18:28:51.344,-24470.954999999998,-42448.365,-78664.14,-49429.215,-9757.845,-17022.87,6907.545,-45571.59,0.7981594305266645,-2.9178391458071418,2.2297243315956825,7.324627244374696,8.784640993054907,6.795437552631859,1.861640158493666,0.8572747080663858,0.580381815,0.361876515,0.74511528,9.03392,4.8831999999999995,6.36342,68.0
1774823331.347468,0.0031614303588867188,2026-03-29T22:28:51.347,2026-03-29T18:28:51.347,-24455.52,-42401.52,-78628.095,-49436.82,-9772.38,-17037.045,6903.045,-45589.32,1.8409270471420422,0.2923993875048246,5.15953023250644,7.98673050061941,9.05501390527359,7.373954117160145,1.7745978620740352,1.040296331087442,0.580381815,0.361876515,0.74511528,9.03392,4.8831999999999995,6.36342,68.0
1774823331.3474813,1.33514404296875e-05,2026-03-29T22:28:51.347,2026-03-29T18:28:51.347,-24447.195,-42356.79,-78592.905,-49428.314999999995,-9760.815,-17017.829999999998,6908.985,-45607.77,2.2104309371740096,3.42986637111658,5.51917932190632,4.563516740343283,4.837271984157679,4.385397519425167,0.9342720199734974,0.7719753462723917,0.580381815,0.361876515,0.74511528,9.03392,4.8831999999999995,6.36342,68.0
1774823331.3539584,0.0064771175384521484,2026-03-29T22:28:51.353,2026-03-29T18:28:51.353,-24441.165,-42376.409999999996,-78620.94,-49445.055,-9777.285,-17032.05,6914.025,-45617.49,1.6765837502480636,4.997679394809178,3.1740582232889856,-1.2829422947725562,-1.8989034012189725,-0.7986094697732198,-0.37583645190212955,0.15158373405985504,0.580381815,0.361876515,0.74511528,9.03392,4.8831999999999995,6.36342,68.0
1774823331.3539832,2.47955322265625e-05,2026-03-29T22:28:51.353,2026-03-29T18:28:51.353,-24451.245,-42409.439999999995,-78656.715,-49455.27,-9784.755,-17042.805,6907.86,-45629.685,0.3826365133800202,4.23803226588068,-0.6624326282086723,-6.612990584511543,-7.874456811032367,-5.698841617904378,-1.6316680562357313,-0.5629409455827582,0.580381815,0.361876515,0.74511528,9.03392,4.8831999999999995,6.36342,68.0
1774823331.3652687,0.011285543441772461,2026-03-29T22:28:51.365,2026-03-29T18:28:51.365,-24470.055,-42412.77,-78647.04,-49440.735,-9773.414999999999,-17033.94,6900.525,-45648.63,-1.1751477564179347,1.5087648151211017,-4.050696689756767,-8.694879719786558,-10.110198653984758,-7.9248674755640325,-2.271654581576113,-1.0640663723931372,0.580381815,0.361876515,0.74511528,9.03392,4.8831999999999995,6.36342,68.0
1774823331.365288,1.9311904907226562e-05,2026-03-29T22:28:51.365,2026-03-29T18:28:51.365,-24474.6,-42414.119999999995,-78637.41,-49426.65,-9769.455,-17032.095,6903.2699999999995,-45664.47,-2.3360815364934764,-1.8891141241857037,-5.311160884350325,-6.406279936068983,-7.4204323781336194,-6.3513425118710325,-1.9500216013753422,-1.1273872219124592,0.580381815,0.361876515,0.74511528,9.03392,4.8831999999999995,6.36342,68.0
1774823331.3653104,2.2411346435546875e-05,2026-03-29T22:28:51.365,2026-03-29T18:28:51.365,-24466.95,-42412.275,-78635.025,-49412.205,-9754.74,-17017.11,6909.344999999999,-45677.295,-2.560784164627263,-4.348233361202268,-3.8714771880527947,-0.8323793325351925,-1.0387347903744126,-1.6912172768369989,-0.7251728556424107,-0.7105402272482564,0.580381815,0.361876515,0.74511528,9.03392,4.8831999999999995,6.36342,68.0
1774823331.365317,6.67572021484375e-06,2026-03-29T22:28:51.365,2026-03-29T18:28:51.365,-24463.71,-42409.215,-78637.72499999999,-49407.795,-9747.135,-17012.565,6909.3,-45692.955,-1.6873188854427124,-4.737105707752773,-0.541748244200029,5.255226581141412,5.952930399432612,3.827519085826318,0.9198720326865498,0.024568860979347542,0.580381815,0.361876515,0.74511528,9.03392,4.8831999999999995,6.36342,68.0
1774823331.365324,6.9141387939453125e-06,2026-03-29T22:28:51.365,2026-03-29T18:28:51.365,-24462.405,-42404.04,-78639.39,-49421.205,-9746.145,-17011.17,6910.695,-45705.33,-0.03336262135343948,-2.9374813812383613,2.9213736940997457,8.78558141264076,10.125096293690307,7.534774332130369,2.2594617933401904,0.7763070207024476,0.58141941,0.37194729,0.7409649,1.0224199999999999,4.15072,10.4531,68.0
1774823331.3653295,5.4836273193359375e-06,2026-03-29T22:28:51.365,2026-03-29T18:28:51.365,-24453.27,-42388.784999999996,-78626.06999999999,-49437.63,-9744.705,-16998.975,6905.5199999999995,-45714.96,1.7158659880650553,0.12607716092322888,4.733969873389831,7.943542675181011,9.395288343582228,7.620842582252753,2.646442518138672,1.227943916381944,0.58141941,0.37194729,0.7409649,1.0224199999999999,4.15072,10.4531,68.0
1774823331.3677418,0.0024123191833496094,2026-03-29T22:28:51.367,2026-03-29T18:28:51.367,-24433.649999999998,-42379.335,-78615.045,-49422.735,-9747.404999999999,-17006.76,6900.795,-45720.63,2.7959068899638932,2.967842123972412,4.009430736231892,3.103319361241094,4.073729463880306,4.028650730416716,1.829971093015084,1.180465992825274,0.58141941,0.37194729,0.7409649,1.0224199999999999,4.15072,10.4531,68.0
1774823331.3677607,1.8835067749023438e-05,2026-03-29T22:28:51.367,2026-03-29T18:28:51.367,-24442.695,-42403.905,-78630.97499999999,-49422.78,-9762.93,-17027.954999999998,6907.094999999999,-45727.74,2.703560101853292,4.280391964340771,1.2073387233873598,-3.3395149008738056,-3.2672295258330455,-1.507597055109682,0.11166753854125204,0.6382416904334841,0.58141941,0.37194729,0.7409649,1.0224199999999999,4.15072,10.4531,68.0
1774823331.3752687,0.007508039474487305,2026-03-29T22:28:51.375,2026-03-29T18:28:51.375,-24442.425,-42405.479999999996,-78638.12999999999,-49430.97,-9764.64,-17021.97,6916.5,-45731.79,1.4345309162131081,3.5559184244347115,-2.126479251161805,-8.161145718846921,-9.045567895002682,-6.302680881070792,-1.7542382062450987,-0.18839250629203846,0.58141941,0.37194729,0.7409649,1.0224199999999999,4.15072,10.4531,68.0
1774823331.375298,2.9325485229492188e-05,2026-03-29T22:28:51.375,2026-03-29T18:28:51.375,-24459.165,-42407.955,-78638.04,-49424.939999999995,-9752.13,-17006.265,6916.23,-45742.14,-0.4954856552318606,1.285194435383549,-4.19082859440859,-8.930442552330094,-10.430114391508397,-8.030914897678683,-2.891372313719145,-0.9655631373880131,0.58141941,0.37194729,0.7409649,1.0224199999999999,4.15072,10.4531,68.0
1774823331.3753273,2.9325485229492188e-05,2026-03-29T22:28:51.375,2026-03-29T18:28:51.375,-24463.98,-42403.725,-78638.355,-49431.869999999995,-9766.035,-17024.76,6892.469999999999,-45758.07,-2.2635509587476457,-1.345395756609813,-3.892165616193344,-5.239747860239537,-6.738489228145358,-5.863885620555315,-2.7179498124225554,-1.3705656970558047,0.58141941,0.37194729,0.7409649,1.0224199999999999,4.15072,10.4531,68.0
1774823331.3753393,1.1920928955078125e-05,2026-03-29T22:28:51.375,2026-03-29T18:28:51.375,-24448.86,-42388.38,-78617.97,-49422.6,-9757.574999999999,-17017.559999999998,6889.005,-45771.75,-3.096111100237972,-3.0809778995201698,-1.4289682163213742,1.0791991852166605,0.22216176906513327,-0.8748445277724246,-1.2492257449013275,-1.2246374071171806,0.58141941,0.37194729,0.7409649,1.0224199999999999,4.15072,10.4531,68.0
1774823331.379636,0.004296779632568359,2026-03-29T22:28:51.379,2026-03-29T18:28:51.379,-24430.454999999998,-42372.314999999995,-78603.20999999999,-49428.765,-9764.01,-17028.899999999998,6893.955,-45779.58,-2.6117710889019095,-3.215472927098639,1.8160661185554643,6.868179131265019,7.043363999007098,4.490483182796956,0.8734581612040933,-0.569817119569148,0.58141941,0.37194729,0.7409649,1.0224199999999999,4.15072,10.4531,68.0
1774823331.3796563,2.0265579223632812e-05,2026-03-29T22:28:51.379,2026-03-29T18:28:51.379,-24432.614999999998,-42382.89,-78612.66,-49422.015,-9744.39,-17008.065,6918.344999999999,-45785.97,-0.9962024379862502,-1.8875493740748759,4.023881022612405,9.227648710613737,10.394197078124101,7.616419783556032,2.6602750399118555,0.3422741169997056,0.58141941,0.37194729,0.7409649,1.0224199999999999,4.15072,10.4531,68.0
1774823331.384134,0.004477739334106445,2026-03-29T22:28:51.384,2026-03-29T18:28:51.384,-24443.594999999998,-42397.92,-78629.625,-49417.11,-9733.005,-16993.485,6928.92,-45791.865,1.0708667613061582,0.07342559406030941,3.932095394203288,6.976034484850446,8.659705600524946,7.0002774084184445,3.2383603303486677,1.1470318680700275,0.578428695,0.37567042500000003,0.7377300450000001,0.56462,4.66956,11.04824,68.0
1774823331.3841646,3.0517578125e-05,2026-03-29T22:28:51.384,2026-03-29T18:28:51.384,-24456.149999999998,-42410.744999999995,-78646.545,-49442.354999999996,-9771.029999999999,-17030.61,6916.634999999999,-45805.725,2.7062430817842005,1.6390309027869538,1.5406903887469319,1.2462866202009826,2.728035964725262,2.9832436034558114,2.284337989529484,1.5118526725113732,0.578428695,0.37567042500000003,0.7377300450000001,0.56462,4.66956,11.04824,68.0
1774823331.3877313,0.003566741943359375,2026-03-29T22:28:51.387,2026-03-29T18:28:51.387,-24463.98,-42410.159999999996,-78639.66,-49434.03,-9760.68,-17018.145,6903.675,-45825.615,3.2045002158970988,2.1288363531431553,-1.857765013513221,-5.083095197780422,-4.460905860024371,-2.429714666072288,0.20684583403065077,1.2722984608986578,0.578428695,0.37567042500000003,0.7377300450000001,0.56462,4.66956,11.04824,68.0
1774823331.387752,2.0742416381835938e-05,2026-03-29T22:28:51.387,2026-03-29T18:28:51.387,-24459.344999999998,-42406.47,-78638.355,-49434.255,-9753.84,-17005.184999999998,6899.625,-45835.604999999996,2.343310437458367,1.5194338649612602,-4.35617515514329,-8.837133273858923,-9.37702016467713,-6.568687753674757,-2.024141065543719,0.5043259571830456,0.578428695,0.37567042500000003,0.7377300450000001,0.56462,4.66956,11.04824,68.0
1774823331.3920228,0.004270792007446289,2026-03-29T22:28:51.392,2026-03-29T18:28:51.392,-24457.14,-42416.01,-78656.805,-49456.979999999996,-9782.505,-17037.315,6896.61,-45837.854999999996,0.4804965765228073,0.36886430084291566,-4.470606907555769,-8.143025680600703,-9.643194813950226,-7.419299994683086,-3.3322812645761952,-0.49845221603667417,0.578428695,0.37567042500000003,0.7377300450000001,0.56462,4.66956,11.04824,68.0
1774823331.3920429,2.002716064453125e-05,2026-03-29T22:28:51.392,2026-03-29T18:28:51.392,-24453.989999999998,-42431.354999999996,-78674.355,-49458.104999999996,-9776.699999999999,-17030.34,6905.429999999999,-45837.225,-1.5980641115711018,-0.5710732823248845,-1.9842703175499368,-3.371386544390925,-5.195248533123232,-4.610159728920243,-3.059580767913263,-1.3363544829157221,0.578428695,0.37567042500000003,0.7377300450000001,0.56462,4.66956,11.04824,68.0
1774823331.396073,0.0040302276611328125,2026-03-29T22:28:51.396,2026-03-29T18:28:51.396,-24460.965,-42435.36,-78674.535,-49453.965,-9772.74,-17030.114999999998,6912.945,-45843.03,-3.0128483612192483,-0.8133051449669687,1.869193846375489,3.055407530148056,1.7117039130516998,0.4196847331631897,-1.3024576668631125,-1.6620456669848875,0.578428695,0.37567042500000003,0.7377300450000001,0.56462,4.66956,11.04824,68.0
1774823331.3960984,2.5272369384765625e-05,2026-03-29T22:28:51.396,2026-03-29T18:28:51.396,-24467.04,-42425.595,-78643.98,-49425.705,-9746.91,-17005.725,6922.98,-45856.89,-3.163543593714839,-0.39644220442338274,5.010104749206058,7.89076089358513,7.644110202449317,5.151215623568347,1.1145830019984468,-1.3234470726182268,0.578428695,0.37567042500000003,0.7377300450000001,0.56462,4.66956,11.04824,68.0
1774823331.3995216,0.0034232139587402344,2026-03-29T22:28:51.399,2026-03-29T18:28:51.399,-24455.745,-42416.955,-78639.435,-49431.645,-9761.039999999999,-17020.17,6915.15,-45863.369999999995,-1.9821994837931813,0.19423386161211934,5.611526650589272,8.70618522333292,9.701710360324295,7.245409019486566,3.0260732989074817,-0.4327793267501495,0.578428695,0.37567042500000003,0.7377300450000001,0.56462,4.66956,11.04824,68.0
1774823331.3995457,2.4080276489257812e-05,2026-03-29T22:28:51.399,2026-03-29T18:28:51.399,-24450.795,-42400.26,-78641.01,-49443.884999999995,-9777.06,-17037.09,6905.34,-45870.884999999995,0.03877876480596272,0.3839460095008136,3.120153294859073,5.117039479062395,6.944713648549616,5.7028900306671835,3.491394997195665,0.6689952403796158,0.578428695,0.37567042500000003,0.7377300450000001,0.56462,4.66956,11.04824,68.0
1774823331.4039445,0.004398822784423828,2026-03-29T22:28:51.403,2026-03-29T18:28:51.403,-24453.765,-42396.479999999996,-78633.62999999999,-49436.235,-9760.455,-17019.0,6911.235,-45880.965,2.0535598812279563,-0.08303654323972275,-1.3568566753019808,-1.0290329974612091,0.8302933103349269,1.3468433834792057,2.262597635578315,1.541926519554645,0.575499015,0.36389067,0.73827936,-0.9919,3.83026,11.231359999999999,68.0
1774823331.4039629,1.8358230590820312e-05,2026-03-29T22:28:51.403,2026-03-29T18:28:51.403,-24451.875,-42396.659999999996,-78625.53,-49427.82,-9750.33,-17008.829999999998,6912.405,-45890.055,3.216710035517605,-0.9411482797928261,-5.541223483796213,-6.596086063864665,-5.547500584953961,-3.6067071801387374,-0.08070558235866401,1.8220312432972832,0.575499015,0.36389067,0.73827936,-0.9919,3.83026,11.231359999999999,68.0
1774823331.437504,0.033541202545166016,2026-03-29T22:28:51.437,2026-03-29T18:28:51.437,-24435.405,-42378.885,-78607.44,-49416.795,-9746.1,-17006.13,6911.325,-45894.78,3.0361828701482176,-1.5433166629553672,-7.134275348998379,-8.756750683714204,-9.02161121048305,-6.670305115047394,-2.4035291680662985,1.3721635053154875,0.575499015,0.36389067,0.73827936,-0.9919,3.83026,11.231359999999999,68.0
1774823331.4375296,2.5510787963867188e-05,2026-03-29T22:28:51.437,2026-03-29T18:28:51.437,-24426.719999999998,-42366.689999999995,-78600.87,-49432.59,-9776.925,-17045.28,6897.599999999999,-45904.905,1.5794828810838444,-1.272529631814267,-5.050791478096066,-6.430349450388037,-7.92977130160344,-6.332754438477589,-3.5672690441409527,0.3465581634929721,0.575499015,0.36389067,0.73827936,-0.9919,3.83026,11.231359999999999,68.0
1774823331.4375532,2.3603439331054688e-05,2026-03-29T22:28:51.437,2026-03-29T18:28:51.437,-24421.004999999997,-42360.795,-78588.98999999999,-49421.384999999995,-9765.27,-17034.885,6902.099999999999,-45909.585,-0.5518496808164395,0.016809716085050833,-0.08382827770199822,-0.8302725835048516,-2.918048956027652,-2.8075836021839997,-2.9915316038239204,-0.8605422837118119,0.575499015,0.36389067,0.73827936,-0.9919,3.83026,11.231359999999999,68.0
1774823331.4375644,1.1205673217773438e-05,2026-03-29T22:28:51.437,2026-03-29T18:28:51.437,-24450.3,-42405.165,-78637.5,-49434.93,-9760.41,-17029.035,6904.71,-45920.97,-2.469285643686693,1.8052099591131932,5.38441178509013,5.159098617848742,3.4217487040644774,2.0897941890485408,-0.9469489668825524,-1.7657682189865411,0.575499015,0.36389067,0.73827936,-0.9919,3.83026,11.231359999999999,68.0
1774823331.4375763,1.1920928955078125e-05,2026-03-29T22:28:51.437,2026-03-29T18:28:51.437,-24459.03,-42420.24,-78655.815,-49429.439999999995,-9746.414999999999,-17014.5,6909.66,-45929.43,-3.365226642235644,3.111570559411114,8.527994614923006,8.459614067507214,7.883861587405696,5.869271435862981,1.5701426164557937,-1.9895008129059186,0.575499015,0.36389067,0.73827936,-0.9919,3.83026,11.231359999999999,68.0
1774823331.4375863,1.0013580322265625e-05,2026-03-29T22:28:51.437,2026-03-29T18:28:51.437,-24451.11,-42422.67,-78648.435,-49414.049999999996,-9733.949999999999,-17000.954999999998,6923.745,-45932.04,-2.851167374697812,3.0173317627971334,7.52678609561411,7.3775773678950065,8.268442800687696,6.626845003397731,3.323800055076202,-1.4139960182391826,0.575499015,0.36389067,0.73827936,-0.9919,3.83026,11.231359999999999,68.0
1774823331.4375975,1.1205673217773438e-05,2026-03-29T22:28:51.437,2026-03-29T18:28:51.437,-24443.684999999998,-42409.305,-78647.895,-49445.82,-9781.695,-17047.845,6912.54,-45935.1,-1.1260467650305321,1.2357876948819573,2.5803163521135497,2.4755502716432174,4.471355324822804,4.002461814582377,3.4475302802488477,-0.2412745943202417,0.575499015,0.36389067,0.73827936,-0.9919,3.83026,11.231359999999999,68.0
1774823331.4376073,9.775161743164062e-06,2026-03-29T22:28:51.437,2026-03-29T18:28:51.437,-24440.129999999997,-42402.78,-78645.555,-49451.265,-9782.865,-17039.475,6911.6849999999995,-45941.895,1.097755388844826,-1.6045731050763805,-4.065116440344343,-3.711719240164255,-1.498179470905961,-0.6466786604041412,1.8748648459852832,1.0764276741562264,0.575499015,0.36389067,0.73827936,-0.9919,3.83026,11.231359999999999,68.0
1774823331.4376187,1.1444091796875e-05,2026-03-29T22:28:51.437,2026-03-29T18:28:51.437,-24445.89,-42409.799999999996,-78648.93,-49443.615,-9765.765,-17015.67,6913.215,-45951.345,2.8849283836936186,-4.163819493092099,-9.143780487394192,-7.976903164298734,-6.567542948081483,-4.941842693054748,-0.6236847428837212,2.010211642741616,0.57385107,0.35290437,0.73437312,6.50076,4.68482,10.65148,68.0
1774823331.4376285,9.775161743164062e-06,2026-03-29T22:28:51.437,2026-03-29T18:28:51.437,-24457.05,-42420.015,-78656.58,-49442.895,-9766.98,-17020.079999999998,6906.735,-45961.38,3.468046146197029,-5.026353278177742,-9.979288625296975,-8.093207165579308,-8.174553407758978,-6.693174149136548,-2.818065030059521,2.165732771814268,0.57385107,0.35290437,0.73437312,6.50076,4.68482,10.65148,68.0
1774823331.4376397,1.1205673217773438e-05,2026-03-29T22:28:51.437,2026-03-29T18:28:51.437,-24451.559999999998,-42407.549999999996,-78638.895,-49421.97,-9749.43,-17006.579999999998,6911.73,-45970.47,2.577215085684791,-3.465052306095194,-5.880287813840285,-3.972804234756325,-5.561948905373794,-5.011247885950399,-3.6252811730514014,1.4481713202774813,0.57385107,0.35290437,0.73437312,6.50076,4.68482,10.65148,68.0
1774823331.4376493,9.5367431640625e-06,2026-03-29T22:28:51.437,2026-03-29T18:28:51.437,-24442.379999999997,-42395.085,-78631.47,-49422.689999999995,-9755.279999999999,-17018.415,6907.86,-45979.335,0.56730968330558,0.07235618225015644,1.3995909548670893,2.270168165053415,-0.13863366154092444,-0.7571658983474887,-2.6451539176597985,0.11264764295905148,0.57385107,0.35290437,0.73437312,6.50076,4.68482,10.65148,68.0
1774823331.4376605,1.1205673217773438e-05,2026-03-29T22:28:51.437,2026-03-29T18:28:51.437,-24436.035,-42380.865,-78616.08,-49427.955,-9755.505,-17017.29,6909.03,-45985.814999999995,-1.7180866473078056,4.049573762951497,8.41590325910713,7.394683109745163,5.2665752396347845,3.896195426681416,-0.3593909555564641,-1.3246570280521681,0.57385107,0.35290437,0.73437312,6.50076,4.68482,10.65148,68.0
1774823331.43767,9.5367431640625e-06,2026-03-29T22:28:51.437,2026-03-29T18:28:51.437,-24440.265,-42388.335,-78624.72,-49446.63,-9768.375,-17026.695,6908.535,-45995.445,-3.29708913126531,6.514720124735387,11.675747403082323,8.70298476053503,7.868438917972733,6.569125314392924,2.1053334908102963,-2.28440979363759,0.57385107,0.35290437,0.73437312,6.50076,4.68482,10.65148,68.0
1774823331.4376812,1.1205673217773438e-05,2026-03-29T22:28:51.437,2026-03-29T18:28:51.437,-24446.16,-42407.28,-78640.83,-49439.07,-9764.414999999999,-17024.76,6907.86,-45999.18,-3.471071227644204,6.0623160938854355,9.379544217344,5.450002844039899,6.3534413350897765,5.8860991584749485,3.533419478296863,-2.3558892297771457,0.57385107,0.35290437,0.73437312,6.50076,4.68482,10.65148,68.0
1774823331.4376907,9.5367431640625e-06,2026-03-29T22:28:51.437,2026-03-29T18:28:51.437,-24437.879999999997,-42404.04,-78643.17,-49436.505,-9766.619999999999,-17029.395,6902.1449999999995,-45996.615,-2.136958716945417,2.6079732596396967,2.3920247969622497,-0.7400259567805497,1.5429509418732008,2.1786178529188867,3.22038918217281,-1.4707882321737134,0.57385107,0.35290437,0.73437312,6.50076,4.68482,10.65148,68.0
1774823331.4413953,0.003704547882080078,2026-03-29T22:28:51.441,2026-03-29T18:28:51.441,-24429.015,-42396.84,-78636.06,-49434.345,-9770.355,-17039.655,6890.67,-45993.645,0.15067455312421718,-2.442087793098602,-6.0735465903169725,-6.67948667646635,-4.043512904639194,-2.6776337689887013,1.3201892395277637,0.053483468874374496,0.57385107,0.35290437,0.73437312,6.50076,4.68482,10.65148,68.0
1774823331.4414315,3.62396240234375e-05,2026-03-29T22:28:51.441,2026-03-29T18:28:51.441,-24427.53,-42419.79,-78678.135,-49449.33,-9781.47,-17056.845,6886.755,-45990.854999999996,2.40501357370516,-6.763942117270952,-11.948278272132727,-9.247959830200317,-7.4958750321980006,-6.210684011293797,-1.2314985557635476,1.6245281471722672,0.57385107,0.35290437,0.73437312,6.50076,4.68482,10.65148,68.0
1774823331.4442532,0.002821683883666992,2026-03-29T22:28:51.444,2026-03-29T18:28:51.444,-24436.754999999997,-42454.395,-78715.395,-49461.795,-9790.74,-17065.755,6899.8949999999995,-45991.619999999995,3.6314133958493864,-8.19751227865161,-12.277142960493983,-7.017495412009843,-7.017874683210664,-6.606562812347163,-3.1791849306827804,2.602572887717778,0.576109365,0.35131746,0.73498347,4.959499999999999,4.41014,10.77356,68.0
1774823331.4442832,3.0040740966796875e-05,2026-03-29T22:28:51.444,2026-03-29T18:28:51.444,-24456.96,-42479.82,-78712.065,-49460.49,-9781.74,-17047.845,6918.12,-45998.145,3.269323781080391,-5.827677304081635,-6.705492894689987,-1.0314248408009907,-2.8548431267987295,-3.6348665720347806,-3.5658723130584216,2.5589144163382858,0.576109365,0.35131746,0.73498347,4.959499999999999,4.41014,10.77356,68.0
1774823331.4476488,0.0033655166625976562,2026-03-29T22:28:51.447,2026-03-29T18:28:51.447,-24463.844999999998,-42439.229999999996,-78669.405,-49466.25,-9783.315,-17038.98,6916.23,-46005.299999999996,1.4541140747992032,-0.5229172586223899,2.265589641687657,5.682376050074958,2.831803471842898,1.2247643916459225,-2.2026423588423976,1.46203080143494,0.576109365,0.35131746,0.73498347,4.959499999999999,4.41014,10.77356,68.0
1774823331.4476697,2.09808349609375e-05,2026-03-29T22:28:51.447,2026-03-29T18:28:51.447,-24468.524999999998,-42375.689999999995,-78607.305,-49435.515,-9755.324999999999,-17012.655,6903.045,-46019.475,-1.0260709664924896,5.371144776851384,10.414963685229392,9.637425911723788,7.079352352862361,5.522402246903504,0.2408285842629801,-0.288466357895567,0.576109365,0.35131746,0.73498347,4.959499999999999,4.41014,10.77356,68.0
1774823331.452196,0.0045261383056640625,2026-03-29T22:28:51.452,2026-03-29T18:28:51.452,-24427.44,-42350.085,-78582.23999999999,-49415.895,-9748.44,-17008.695,6908.175,-46013.04,-3.0698361919951194,9.081466983650923,13.806336807793842,8.686802104082297,7.655683235799919,7.072785319701102,2.567401033096827,-2.0028466859237644,0.576109365,0.35131746,0.73498347,4.959499999999999,4.41014,10.77356,68.0
1774823331.4522378,4.1961669921875e-05,2026-03-29T22:28:51.452,2026-03-29T18:28:51.452,-24425.19,-42372.225,-78603.39,-49421.205,-9758.295,-17022.375,6898.905,-46010.97,-3.753869188636319,8.724685679737991,10.701605151653716,3.1706637694269384,4.220515007897004,5.062808516091613,3.6404016530581895,-2.9699970477361135,0.576109365,0.35131746,0.73498347,4.959499999999999,4.41014,10.77356,68.0
1774823331.4562447,0.004006862640380859,2026-03-29T22:28:51.456,2026-03-29T18:28:51.456,-24443.594999999998,-42394.095,-78619.095,-49418.82,-9749.115,-17010.855,6905.429999999999,-46014.525,-2.7560231582881562,4.2604112614196925,2.4471835568486413,-4.193641378210737,-1.4838142475139509,0.47137586193439673,2.938715287507675,-2.7510007279115487,0.576109365,0.35131746,0.73498347,4.959499999999999,4.41014,10.77356,68.0
1774823331.456265,2.0265579223632812e-05,2026-03-29T22:28:51.456,2026-03-29T18:28:51.456,-24450.57,-42401.79,-78629.265,-49427.64,-9745.199999999999,-16998.48,6917.219999999999,-46013.625,-0.5134806176227764,-2.400693727986177,-7.11691282222566,-9.651133115974066,-6.515667188912067,-4.412990256663645,0.8078209086046775,-1.3773409895085384,0.576109365,0.35131746,0.73498347,4.959499999999999,4.41014,10.77356,68.0
1774823331.4631944,0.0069293975830078125,2026-03-29T22:28:51.463,2026-03-29T18:28:51.463,-24444.225,-42414.165,-78652.08,-49459.229999999996,-9776.07,-17025.48,6911.19,-46009.17,1.9645487030589832,-8.223045370296902,-13.462199974758143,-10.317495133592201,-8.243792507767559,-7.136810372561311,-1.713348818249354,0.6352664126477583,0.576109365,0.35131746,0.73498347,4.959499999999999,4.41014,10.77356,68.0
1774823331.4632175,2.3126602172851562e-05,2026-03-29T22:28:51.463,2026-03-29T18:28:51.463,-24429.42,-42418.08,-78667.425,-49470.479999999996,-9783.494999999999,-17033.355,6895.71,-46004.715,3.55176277548028,-10.44488989345788,-13.533778412974993,-5.68839293861872,-5.711202865862714,-6.31428170441992,-3.4016059773366902,2.4755289873129054,0.576109365,0.35131746,0.73498347,4.959499999999999,4.41014,10.77356,68.0
1774823331.4719925,0.008774995803833008,2026-03-29T22:28:51.471,2026-03-29T18:28:51.471,-24413.715,-42391.979999999996,-78645.33,-49458.78,-9782.01,-17042.13,6883.605,-46007.505,3.5220175344964355,-7.89812174535254,-7.229008414894746,2.0345987315808065,-0.15066333124212758,-2.3281910737332074,-3.4438412339935995,3.3616864510236804,0.58276218,0.36157134,0.736265205,1.7396399999999999,7.95046,13.79504,68.0
1774823331.4720266,3.409385681152344e-05,2026-03-29T22:28:51.472,2026-03-29T18:28:51.472,-24399.495,-42374.744999999995,-78627.33,-49450.14,-9782.234999999999,-17046.765,6878.655,-46008.45,1.8887894215443977,-1.6144028358854174,2.5262539043863286,8.996777229226758,5.620826772828196,2.854095650535506,-1.8270983131064709,2.8741880405036246,0.58276218,0.36157134,0.736265205,1.7396399999999999,7.95046,13.79504,68.0
1774823331.4720602,3.361701965332031e-05,2026-03-29T22:28:51.472,2026-03-29T18:28:51.472,-24410.655,-42364.034999999996,-78601.77,-49412.655,-9740.115,-17004.555,6903.2699999999995,-46012.77,-0.5953548682271269,5.593449014622202,11.150573197493573,11.615854558507424,8.628809333086291,6.658636783404404,0.6621924078062313,1.1543515414301875,0.58276218,0.36157134,0.736265205,1.7396399999999999,7.95046,13.79504,68.0
1774823331.472078,1.7881393432617188e-05,2026-03-29T22:28:51.472,2026-03-29T18:28:51.472,-24451.155,-42382.755,-78612.075,-49415.13,-9739.035,-17005.454999999998,6917.219999999999,-46031.445,-2.784394661285065,10.40406904569682,14.57748279697427,8.41726694856975,7.266633357097612,7.187751535802948,2.824537842469878,-1.1251818689735562,0.58276218,0.36157134,0.736265205,1.7396399999999999,7.95046,13.79504,68.0
1774823331.4721029,2.47955322265625e-05,2026-03-29T22:28:51.472,2026-03-29T18:28:51.472,-24458.04,-42406.695,-78637.275,-49436.369999999995,-9757.664999999999,-17020.53,6912.315,-46032.03,-3.6713861532875405,10.53208053405845,11.18663053080817,0.8415017744256886,2.1397295739045568,4.16623307977338,3.627733147848302,-3.0202629726818904,0.58276218,0.36157134,0.736265205,1.7396399999999999,7.95046,13.79504,68.0
1774823331.4721112,8.344650268554688e-06,2026-03-29T22:28:51.472,2026-03-29T18:28:51.472,-24463.754999999997,-42420.735,-78644.655,-49433.354999999996,-9744.75,-17001.63,6916.094999999999,-46037.34,-2.858491257727172,5.820356906280385,2.5724769498183306,-7.410626987445378,-4.209813655424685,-0.9210493710245946,2.6992322477987267,-3.707178263744011,0.58276218,0.36157134,0.736265205,1.7396399999999999,7.95046,13.79504,68.0
1774823331.4757707,0.003659486770629883,2026-03-29T22:28:51.475,2026-03-29T18:28:51.475,-24454.62,-42415.424999999996,-78648.795,-49442.4,-9758.205,-17019.855,6905.925,-46041.165,-0.741705246062655,-1.644263476052619,-7.2147196152932525,-12.19453438335974,-8.570083643560645,-5.566982213972762,0.4957115489580944,-2.843986335734325,0.58276218,0.36157134,0.736265205,1.7396399999999999,7.95046,13.79504,68.0
1774823331.4757876,1.6927719116210938e-05,2026-03-29T22:28:51.475,2026-03-29T18:28:51.475,-24443.504999999997,-42403.68,-78635.745,-49434.75,-9758.295,-17029.215,6898.815,-46041.659999999996,1.67861777076004,-8.463856617173168,-13.589548374270679,-11.004531584157,-8.683409638291371,-7.48541499594441,-1.9257876856518041,-0.7412626066229058,0.58276218,0.36157134,0.736265205,1.7396399999999999,7.95046,13.79504,68.0
1774823331.479658,0.003870248794555664,2026-03-29T22:28:51.479,2026-03-29T18:28:51.479,-24437.295,-42407.685,-78639.61499999999,-49421.115,-9738.315,-17005.77,6903.134999999999,-46041.39,3.2721468697014062,-11.489680835335175,-13.595289883903991,-4.274952373158527,-4.406349066455248,-5.739844551557264,-3.4186251869516875,1.7435276385388878,0.58276218,0.36157134,0.736265205,1.7396399999999999,7.95046,13.79504,68.0
1774823331.479682,2.4080276489257812e-05,2026-03-29T22:28:51.479,2026-03-29T18:28:51.479,-24450.57,-42407.189999999995,-78631.02,-49411.08,-9743.58,-17019.63,6901.469999999999,-46047.555,3.311865919837485,-9.287612992003305,-7.282984715089913,4.772052112108081,2.187253271200226,-1.198493768871255,-3.290686519638444,3.5561902283514435,0.58276218,0.36157134,0.736265205,1.7396399999999999,7.95046,13.79504,68.0
1774823331.4839172,0.004235267639160156,2026-03-29T22:28:51.483,2026-03-29T18:28:51.483,-24449.579999999998,-42401.205,-78629.04,-49407.615,-9747.0,-17023.995,6899.715,-46045.485,1.8118552815243147,-2.8222505461356318,2.340395018023412,11.68235415147114,7.82257323627771,3.904608914279193,-1.6230622234637002,3.8978009705071366,0.58239597,0.37609767,0.736265205,-7.172199999999999,8.02676,15.580459999999999,68.0
1774823331.4839468,2.956390380859375e-05,2026-03-29T22:28:51.483,2026-03-29T18:28:51.483,-24437.565,-42396.795,-78624.405,-49398.21,-9731.52,-16996.995,6910.83,-46036.305,-0.4904373037174922,4.9678804946634685,10.755205019295705,12.972165173450339,9.656703148920286,7.077762716826688,0.7823780775694787,2.5826834677879913,0.58239597,0.37609767,0.736265205,-7.172199999999999,8.02676,15.580459999999999,68.0
1774823331.487997,0.004050254821777344,2026-03-29T22:28:51.487,2026-03-29T18:28:51.487,-24446.385,-42410.744999999995,-78644.565,-49426.83,-9752.13,-17014.364999999998,6910.65,-46036.53,-2.4956924330889696,10.515612447181717,14.06577320333372,7.8833588217064445,6.710935962821996,6.7952525804393415,2.793004173562082,0.13904914840761087,0.58239597,0.37609767,0.736265205,-7.172199999999999,8.02676,15.580459999999999,68.0
1774823331.4880104,1.33514404296875e-05,2026-03-29T22:28:51.488,2026-03-29T18:28:51.488,-24448.364999999998,-42419.52,-78660.22499999999,-49468.814999999995,-9775.619999999999,-17031.645,6909.705,-46039.905,-3.270818767855665,11.27089383871321,10.814030274667495,-1.1928416284340382,0.3812222614910435,3.232389814319478,3.4813359296139783,-2.40256957744341,0.58239597,0.37609767,0.736265205,-7.172199999999999,8.02676,15.580459999999999,68.0
1774823331.4921575,0.004147052764892578,2026-03-29T22:28:51.492,2026-03-29T18:28:51.492,-24443.37,-42408.585,-78646.36499999999,-49470.39,-9779.039999999999,-17035.829999999998,6912.855,-46043.729999999996,-2.4880692618107116,6.882849586913782,2.6217101362938675,-9.853382827544031,-6.235221162432433,-1.8428866839833107,2.552088151957037,-3.949329760893248,0.58239597,0.37609767,0.736265205,-7.172199999999999,8.02676,15.580459999999999,68.0
1774823331.4921887,3.123283386230469e-05,2026-03-29T22:28:51.492,2026-03-29T18:28:51.492,-24436.53,-42392.7,-78646.00499999999,-49474.439999999995,-9787.949999999999,-17044.425,6906.42,-46050.479999999996,-0.565942761610522,-0.6335275773611968,-6.620847031943098,-13.834682512614703,-9.867005884832576,-5.955712658665452,0.4641878122575301,-3.8244247417089046,0.58239597,0.37609767,0.736265205,-7.172199999999999,8.02676,15.580459999999999,68.0
1774823331.497394,0.005205392837524414,2026-03-29T22:28:51.497,2026-03-29T18:28:51.497,-24432.39,-42389.145,-78640.65,-49462.47,-9783.404999999999,-17048.34,6900.21,-46054.305,1.549957914619396,-7.826475310154252,-12.611918599364756,-11.11958891514559,-8.69125603345652,-7.139925453299037,-1.7999746514859325,-2.0702990311659715,0.58239597,0.37609767,0.736265205,-7.172199999999999,8.02676,15.580459999999999,68.0
1774823331.4974186,2.4557113647460938e-05,2026-03-29T22:28:51.497,2026-03-29T18:28:51.497,-24424.245,-42394.185,-78644.11499999999,-49442.265,-9763.38,-17032.545,6908.264999999999,-46051.92,2.852731585080268,-11.402382608440579,-12.650474277769067,-2.9548643721368535,-3.2444897019092442,-4.882577359632523,-3.2003395314917107,0.5629186048550435,0.58239597,0.37609767,0.736265205,-7.172199999999999,8.02676,15.580459999999999,68.0
1774823331.5000353,0.0026166439056396484,2026-03-29T22:28:51.500,2026-03-29T18:28:51.500,-24413.04,-42398.369999999995,-78640.785,-49435.064999999995,-9764.505,-17039.295,6903.719999999999,-46045.89,2.7563581545063647,-9.745750225044691,-6.8578357648767,6.732579539923788,3.832015694574032,-0.34159878467134785,-3.11759669615379,2.9433243914975664,0.58239597,0.37609767,0.736265205,-7.172199999999999,8.02676,15.580459999999999,68.0
1774823331.500076,4.076957702636719e-05,2026-03-29T22:28:51.500,2026-03-29T18:28:51.500,-24430.454999999998,-42435.18,-78646.275,-49425.435,-9751.005,-17020.665,6914.34,-46043.595,1.361541343991437,-3.6580495815750886,1.9446925171514218,13.242116033066132,9.086905207462816,4.253025130860588,-1.6240091202332303,4.054003018905843,0.58239597,0.37609767,0.736265205,-7.172199999999999,8.02676,15.580459999999999,68.0
1774823331.5043964,0.004320383071899414,2026-03-29T22:28:51.504,2026-03-29T18:28:51.504,-24468.254999999997,-42445.53,-78650.64,-49428.45,-9744.615,-17002.17,6920.505,-46048.545,-0.6165672619801104,4.0262020676966745,9.613227130165166,13.394929492891498,9.952703880022517,6.702857084973482,0.5700239404579274,3.4378745027894078,0.573912105,0.37866114,0.7303448100000001,-11.1398,7.828379999999999,15.62624,68.0
1774823331.5044725,7.605552673339844e-05,2026-03-29T22:28:51.504,2026-03-29T18:28:51.504,-24453.315,-42395.67,-78648.56999999999,-49457.295,-9782.19,-17041.995,6897.195,-46049.805,-2.2131984640868767,9.76383594035838,12.639533214478035,7.090897096572416,6.002850605482227,5.899457663046597,2.4575613982654905,1.3906059590425113,0.573912105,0.37866114,0.7303448100000001,-11.1398,7.828379999999999,15.62624,68.0
1774823331.5080616,0.003589153289794922,2026-03-29T22:28:51.508,2026-03-29T18:28:51.508,-24423.57,-42383.205,-78650.595,-49462.604999999996,-9788.085,-17048.835,6893.91,-46042.56,-2.6854251409985115,10.947416817530582,9.76153620820074,-2.6379169706568533,-0.8448586182639753,2.3252665416959943,3.199057649320522,-1.1830292198941033,0.573912105,0.37866114,0.7303448100000001,-11.1398,7.828379999999999,15.62624,68.0
1774823331.5080843,2.2649765014648438e-05,2026-03-29T22:28:51.508,2026-03-29T18:28:51.508,-24426.855,-42399.27,-78656.44499999999,-49469.715,-9787.32,-17048.43,6897.195,-46042.965,-1.8589077025792904,7.10215638785942,2.484815325990718,-11.102157935341095,-7.272438698990592,-2.2286758815186656,2.4942619608241046,-3.179517195297698,0.573912105,0.37866114,0.7303448100000001,-11.1398,7.828379999999999,15.62624,68.0
1774823331.5118082,0.0037238597869873047,2026-03-29T22:28:51.511,2026-03-29T18:28:51.511,-24443.28,-42406.47,-78646.815,-49460.805,-9774.945,-17032.95,6903.945,-46050.345,-0.18736639000987287,0.08074178031884277,-5.697203977089837,-14.233544913507737,-10.182889053710127,-5.56591005258107,0.6983782026788576,-3.7830591187491356,0.573912105,0.37866114,0.7303448100000001,-11.1398,7.828379999999999,15.62624,68.0
1774823331.5118213,1.3113021850585938e-05,2026-03-29T22:28:51.511,2026-03-29T18:28:51.511,-24453.225,-42407.369999999995,-78641.145,-49452.21,-9777.6,-17038.125,6903.134999999999,-46062.18,1.4923374181554494,-6.82648046809499,-10.983270478353653,-10.551547889062734,-8.200259305894571,-6.1506487411834625,-1.359166062631757,-2.8070757171036465,0.573912105,0.37866114,0.7303448100000001,-11.1398,7.828379999999999,15.62624,68.0
1774823331.5164113,0.004590034484863281,2026-03-29T22:28:51.516,2026-03-29T18:28:51.516,-24447.195,-42407.46,-78642.54,-49441.59,-9761.895,-17022.555,6903.179999999999,-46064.475,2.378487534095602,-10.439969585814609,-11.035359192470537,-1.8625492767695966,-2.3186015576179604,-3.8164639087011487,-2.7601179072499615,-0.7429015226614316,0.573912105,0.37866114,0.7303448100000001,-11.1398,7.828379999999999,15.62624,68.0
1774823331.5164475,3.62396240234375e-05,2026-03-29T22:28:51.516,2026-03-29T18:28:51.516,-24437.925,-42406.02,-78645.87,-49445.145,-9760.815,-17020.305,6898.455,-46063.89,2.0868275515747223,-9.166740424520745,-6.013698393894163,7.638134318134204,4.605303988751379,0.20986546934986802,-2.9070683321018844,1.492222621849405,0.573912105,0.37866114,0.7303448100000001,-11.1398,7.828379999999999,15.62624,68.0
1774823331.5201004,0.003652811050415039,2026-03-29T22:28:51.520,2026-03-29T18:28:51.520,-24430.905,-42402.645,-78641.86499999999,-49446.99,-9761.94,-17017.245,6903.179999999999,-46063.439999999995,0.8143977481315098,-3.713081896246068,1.582324893766668,13.409722559234186,9.25278517490861,3.9526492914625355,-1.775047082780728,2.97742952027921,0.573912105,0.37866114,0.7303448100000001,-11.1398,7.828379999999999,15.62624,68.0
1774823331.5201387,3.838539123535156e-05,2026-03-29T22:28:51.520,2026-03-29T18:28:51.520,-24428.114999999998,-42391.439999999995,-78621.48,-49434.435,-9763.065,-17031.105,6903.36,-46063.17,-0.7834123023701232,3.289771018665113,8.154120246776547,12.751502740771846,9.444831138315081,5.661343357752899,0.09898994980081689,3.179687900242478,0.573912105,0.37866114,0.7303448100000001,-11.1398,7.828379999999999,15.62624,68.0
1774823331.523955,0.003816366195678711,2026-03-29T22:28:51.523,2026-03-29T18:28:51.523,-24442.739999999998,-42393.104999999996,-78618.42,-49431.015,-9764.414999999999,-17036.1,6899.804999999999,-46069.965,-1.9291249277289289,8.554894098449774,10.711215612572602,6.0716184200111725,5.166684913114445,4.632132300808493,1.8726686815043005,2.141346306007598,0.574400385,0.365416545,0.733213455,-11.8265,10.804079999999999,13.6577,68.0
1774823331.523985,2.9802322387695312e-05,2026-03-29T22:28:51.523,2026-03-29T18:28:51.523,-24441.165,-42403.905,-78630.84,-49426.47,-9749.835,-17016.704999999998,6909.615,-46073.744999999995,-2.1003023879306664,9.69172946395574,8.23502508339222,-3.358991513133348,-1.4672843413491468,1.4906040596187153,2.777620844769754,0.39870223184868575,0.574400385,0.365416545,0.733213455,-11.8265,10.804079999999999,13.6577,68.0
1774823331.5279186,0.00393366813659668,2026-03-29T22:28:51.527,2026-03-29T18:28:51.527,-24430.995,-42399.09,-78642.135,-49446.314999999995,-9770.039999999999,-17035.515,6905.16,-46075.095,-1.2647480201929107,6.3038600293412825,2.0761046633756983,-11.02214766152676,-7.268511139173338,-2.173172462878246,2.450953354980795,-1.3027159574527927,0.574400385,0.365416545,0.733213455,-11.8265,10.804079999999999,13.6577,68.0
1774823331.5279348,1.621246337890625e-05,2026-03-29T22:28:51.527,2026-03-29T18:28:51.527,-24428.745,-42398.055,-78646.995,-49461.975,-9782.55,-17043.255,6901.785,-46078.92,0.13064377639061195,0.1224007689152167,-4.765271163714661,-13.333207867355386,-9.518122629701299,-4.609531230181487,1.0768283031098127,-2.3427409921601754,0.574400385,0.365416545,0.733213455,-11.8265,10.804079999999999,13.6577,68.0
1774823331.532136,0.004201173782348633,2026-03-29T22:28:51.532,2026-03-29T18:28:51.532,-24432.39,-42401.564999999995,-78645.19499999999,-49455.72,-9774.18,-17036.73,6899.985,-46079.369999999995,1.3978352427174963,-5.8681843599309085,-9.098548315703443,-9.327161034102408,-7.247176166894114,-4.7463938163794905,-0.7148028193192207,-2.4530738084786843,0.574400385,0.365416545,0.733213455,-11.8265,10.804079999999999,13.6577,68.0
1774823331.5321572,2.1219253540039062e-05,2026-03-29T22:28:51.532,2026-03-29T18:28:51.532,-24420.69,-42407.055,-78648.56999999999,-49449.869999999995,-9774.045,-17036.684999999998,6903.134999999999,-46076.4,1.9458705273270032,-8.874446761056433,-9.033446228482967,-1.0529738773423178,-1.648036511658766,-2.657760953781288,-2.13784531971557,-1.7513986032355344,0.574400385,0.365416545,0.733213455,-11.8265,10.804079999999999,13.6577,68.0
1774823331.536141,0.003983736038208008,2026-03-29T22:28:51.536,2026-03-29T18:28:51.536,-24414.795,-42413.715,-78647.48999999999,-49438.935,-9767.385,-17030.52,6897.42,-46074.6,1.5532333760632326,-7.607677230507396,-4.804268966978107,7.479511237868186,4.553860817984355,0.5386873502180457,-2.594924852308009,-0.6053834631051885,0.574400385,0.365416545,0.733213455,-11.8265,10.804079999999999,13.6577,68.0
1774823331.5361586,1.7642974853515625e-05,2026-03-29T22:28:51.536,2026-03-29T18:28:51.536,-24444.765,-42427.125,-78633.98999999999,-49410.63,-9739.215,-17008.425,6898.59,-46084.365,0.4502938424533109,-2.8436742308400107,1.431253569655145,12.25642150033327,8.435753507677644,3.2727492164876333,-1.926617081775386,0.5709356098360707,0.574400385,0.365416545,0.733213455,-11.8265,10.804079999999999,13.6577,68.0
1774823331.539744,0.003585338592529297,2026-03-29T22:28:51.539,2026-03-29T18:28:51.539,-24455.52,-42413.895,-78626.43,-49406.67,-9743.625,-17023.86,6903.315,-46092.284999999996,-0.8143208882036569,3.018810137630935,6.6833141170353105,11.159191897173066,8.261926067375155,4.2912636867977545,-0.46205113179139373,1.4724000172215597,0.574400385,0.365416545,0.733213455,-11.8265,10.804079999999999,13.6577,68.0
1774823331.539767,2.3126602172851562e-05,2026-03-29T22:28:51.539,2026-03-29T18:28:51.539,-24438.195,-42383.25,-78624.54,-49418.055,-9743.805,-17019.27,6892.335,-46092.24,-1.646605828728241,7.160634724100693,8.563567725740114,4.9027161837311874,4.258039715891528,3.229712495518204,1.1423075945892067,1.9468740429152998,0.574400385,0.365416545,0.733213455,-11.8265,10.804079999999999,13.6577,68.0
1774823331.5439057,0.0041387081146240234,2026-03-29T22:28:51.543,2026-03-29T18:28:51.543,-24413.445,-42372.045,-78627.95999999999,-49455.674999999996,-9761.535,-17018.864999999998,6896.429999999999,-46087.155,-1.6833801398979251,7.70466561057995,6.373561025785502,-3.4016359964961085,-1.5683805758531182,0.7271970431182887,2.197450894424546,1.9471611991402369,0.58276218,0.357726135,0.732847245,-18.159399999999998,13.94764,20.12794,68.0
1774823331.543936,3.0279159545898438e-05,2026-03-29T22:28:51.543,2026-03-29T18:28:51.543,-24407.864999999998,-42371.865,-78622.515,-49478.985,-9795.24,-17044.92,6896.5199999999995,-46085.715,-0.9447027467148412,4.57595119505571,1.3508814015369461,-9.800806687806505,-6.438753304525118,-1.9404682221906504,2.2780066023833974,1.4666228552036338,0.58276218,0.357726135,0.732847245,-18.159399999999998,13.94764,20.12794,68.0
1774823331.5510013,0.007065296173095703,2026-03-29T22:28:51.551,2026-03-29T18:28:51.551,-24429.42,-42386.805,-78617.83499999999,-49462.83,-9786.195,-17034.03,6896.925,-46094.13,0.19793968150429708,-0.5395975098335137,-4.006363475354164,-11.392005618896324,-8.134350031957993,-3.504625740542734,1.3926233307003453,0.5316968833625085,0.58276218,0.357726135,0.732847245,-18.159399999999998,13.94764,20.12794,68.0
1774823331.5510216,2.0265579223632812e-05,2026-03-29T22:28:51.551,2026-03-29T18:28:51.551,-24439.14,-42405.659999999996,-78631.605,-49452.479999999996,-9777.69,-17033.489999999998,6903.585,-46099.53,1.209667892900872,-5.0864269584506046,-7.176984452827028,-7.641647682837188,-6.007149090560317,-3.3020730449577553,-0.039206128571445564,-0.7341209635463938,0.58276218,0.357726135,0.732847245,-18.159399999999998,13.94764,20.12794,68.0
1774823331.553522,0.0025005340576171875,2026-03-29T22:28:51.553,2026-03-29T18:28:51.553,-24434.235,-42409.755,-78635.16,-49435.965,-9757.935,-17018.145,6905.025,-46100.564999999995,1.640692990052442,-6.915556266732975,-6.805202916910748,-0.5315783435916095,-1.210662473904329,-1.5483302337361902,-1.3854841587397333,-2.0337684121364528,0.58276218,0.357726135,0.732847245,-18.159399999999998,13.94764,20.12794,68.0
1774823331.5535383,1.621246337890625e-05,2026-03-29T22:28:51.553,2026-03-29T18:28:51.553,-24431.04,-42412.005,-78647.67,-49439.43,-9760.275,-17024.579999999998,6900.884999999999,-46096.604999999996,1.3208110494747072,-5.307783600903125,-3.2788437507109838,6.484043662985291,3.920306863085301,0.8214341383974976,-2.082026656030677,-2.901706036922199,0.58276218,0.357726135,0.732847245,-18.159399999999998,13.94764,20.12794,68.0
1774823331.556115,0.002576589584350586,2026-03-29T22:28:51.556,2026-03-29T18:28:51.556,-24431.04,-42403.77,-78653.25,-49449.375,-9772.65,-17041.95,6893.955,-46096.515,0.41898770595141493,-1.2524128748238659,1.548891102864273,10.163378646763665,7.009089596320013,2.6403388563495924,-1.870102183071368,-2.8501380990558336,0.58276218,0.357726135,0.732847245,-18.159399999999998,13.94764,20.12794,68.0
1774823331.5561452,3.0279159545898438e-05,2026-03-29T22:28:51.556,2026-03-29T18:28:51.556,-24438.87,-42416.415,-78652.935,-49452.165,-9771.119999999999,-17030.16,6904.62,-46099.17,-0.6476412632855284,3.124990846258717,5.320220940213625,8.978201757685426,6.738070943537902,3.0756331596391266,-0.8906890185779173,-1.6242401552161538,0.58276218,0.357726135,0.732847245,-18.159399999999998,13.94764,20.12794,68.0
1774823331.566811,0.0106658935546875,2026-03-29T22:28:51.566,2026-03-29T18:28:51.566,-24432.48,-42407.64,-78654.42,-49475.61,-9787.859999999999,-17037.63,6903.2699999999995,-46099.215,-1.4056943916611173,5.667054595607293,6.323267055607005,3.7354519107335835,3.4014596207737746,2.0018619826719215,0.39841139072252757,0.5609821549751619,0.58276218,0.357726135,0.732847245,-18.159399999999998,13.94764,20.12794,68.0
1774823331.5668275,1.6450881958007812e-05,2026-03-29T22:28:51.566,2026-03-29T18:28:51.566,-24427.62,-42403.32,-78652.575,-49473.54,-9785.699999999999,-17036.73,6905.429999999999,-46102.5,-1.5307601549992729,5.250411292125994,4.270965553338999,-2.925532809523949,-1.3160930140550031,0.01878571571165066,1.437394367939797,2.9635805014044756,0.58276218,0.357726135,0.732847245,-18.159399999999998,13.94764,20.12794,68.0
1774823331.5668454,1.7881393432617188e-05,2026-03-29T22:28:51.566,2026-03-29T18:28:51.566,-24436.665,-42418.845,-78662.47499999999,-49465.979999999996,-9776.25,-17028.989999999998,6905.34,-46107.225,-0.9799119798729305,2.284132652896935,0.3526814435809683,-7.861732040667439,-5.188671215357605,-1.8724152692153941,1.8103521831406335,4.535030924712122,0.58178562,0.35571198,0.72765927,-22.02018,13.52036,20.87568,68.0
1774823331.566854,8.58306884765625e-06,2026-03-29T22:28:51.566,2026-03-29T18:28:51.566,-24422.535,-42421.365,-78666.345,-49458.15,-9771.84,-17025.434999999998,6905.969999999999,-46103.13,-0.0013644577687927314,-1.5820736958737605,-3.428347303203566,-8.911680368105735,-6.498052510899555,-2.7633501453897225,1.412977294314772,4.3736769072856685,0.58178562,0.35571198,0.72765927,-22.02018,13.52036,20.87568,68.0
1774823331.5687265,0.0018725395202636719,2026-03-29T22:28:51.568,2026-03-29T18:28:51.568,-24403.635,-42432.165,-78688.215,-49463.82,-9774.765,-17028.0,6900.705,-46093.005,0.9767043063992018,-4.355996773067208,-5.272504963024687,-5.834439142071508,-4.788726816275397,-2.263494779428933,0.47350122414922213,2.217575185472828,0.58178562,0.35571198,0.72765927,-22.02018,13.52036,20.87568,68.0
1774823331.5687375,1.0967254638671875e-05,2026-03-29T22:28:51.568,2026-03-29T18:28:51.568,-24403.905,-42435.314999999995,-78679.44,-49454.549999999996,-9769.005,-17030.385,6895.035,-46099.125,1.5288829026184432,-4.725231671862763,-4.441835094601626,-0.2990766306291984,-1.0016345601735084,-0.6626150530109588,-0.5722920847974451,-1.2850063275982886,0.58178562,0.35571198,0.72765927,-22.02018,13.52036,20.87568,68.0
1774823331.576719,0.007981538772583008,2026-03-29T22:28:51.576,2026-03-29T18:28:51.576,-24430.05,-42431.76,-78665.355,-49455.18,-9775.215,-17041.005,6892.785,-46113.75,1.4117892330552155,-2.6797056637184777,-1.5482491304015424,5.008729903034817,3.035077725849661,1.2316341845261733,-1.2859143518879723,-4.720789096887588,0.58178562,0.35571198,0.72765927,-22.02018,13.52036,20.87568,68.0
1774823331.576738,1.9073486328125e-05,2026-03-29T22:28:51.576,2026-03-29T18:28:51.576,-24441.254999999997,-42393.15,-78636.19499999999,-49449.78,-9777.105,-17040.015,6892.605,-46121.31,0.6680119907463277,0.5625406749167811,1.8372848354208666,7.6890092247270125,5.485538037645192,2.4914643103019953,-1.4135250163441608,-6.475831964902799,0.58178562,0.35571198,0.72765927,-22.02018,13.52036,20.87568,68.0
1774823331.576763,2.47955322265625e-05,2026-03-29T22:28:51.576,2026-03-29T18:28:51.576,-24414.75,-42370.74,-78626.655,-49444.47,-9773.595,-17037.809999999998,6897.195,-46119.689999999995,-0.3875567759239592,3.2533792645505075,4.022757230197474,6.707341001940149,5.333816345037389,2.5098228456307683,-0.9738235091522022,-5.497703317904932,0.58178562,0.35571198,0.72765927,-22.02018,13.52036,20.87568,68.0
1774823331.5767694,6.4373016357421875e-06,2026-03-29T22:28:51.576,2026-03-29T18:28:51.576,-24406.739999999998,-42376.77,-78621.48,-49441.545,-9762.029999999999,-17019.72,6907.005,-46119.24,-1.2958897639332692,4.046172125349947,4.038880297336888,2.7695240473322955,2.790582513921876,1.2808148344483554,-0.2168019208463349,-1.8934422480390383,0.58178562,0.35571198,0.72765927,-22.02018,13.52036,20.87568,68.0
1774823331.5801997,0.0034303665161132812,2026-03-29T22:28:51.580,2026-03-29T18:28:51.580,-24420.42,-42372.27,-78589.53,-49423.77,-9743.625,-16998.345,6910.65,-46128.15,-1.6477091394503167,2.6679058635255255,2.067933662237651,-2.1290737646403417,-0.875101705338087,-0.6040548660928096,0.5140933867472376,2.966521094268931,0.58178562,0.35571198,0.72765927,-22.02018,13.52036,20.87568,68.0
1774823331.5802228,2.3126602172851562e-05,2026-03-29T22:28:51.580,2026-03-29T18:28:51.580,-24430.5,-42363.945,-78562.89,-49392.494999999995,-9725.445,-16987.905,6909.4349999999995,-46138.005,-1.2649376089155637,-0.003908357692387448,-0.7321492508578741,-5.709029114258809,-3.96480738309107,-2.236196343977579,0.9421088462534546,6.957295032578077,0.58178562,0.35571198,0.72765927,-22.02018,13.52036,20.87568,68.0
1774823331.5997524,0.01952958106994629,2026-03-29T22:28:51.599,2026-03-29T18:28:51.599,-24427.53,-42371.055,-78598.845,-49426.02,-9769.455,-17043.614999999998,6898.365,-46140.93,-0.2912415469160821,-2.469735348218684,-2.883009475678357,-6.462565498693632,-5.130169652684207,-2.8156221707813858,0.9629598119778061,8.140309983613136,0.57641454,0.35217195,0.731260335,-20.784119999999998,13.55088,22.52376,68.0
1774823331.5997758,2.3365020751953125e-05,2026-03-29T22:28:51.599,2026-03-29T18:28:51.599,-24439.004999999997,-42411.555,-78650.73,-49444.875,-9778.59,-17051.94,6900.929999999999,-46141.29,0.8544758296643657,-3.434581940648688,-3.3587908198691467,-4.273090041118158,-3.9486920842020874,-2.0279721180235635,0.6547885732518326,5.714184106413896,0.57641454,0.35217195,0.731260335,-20.784119999999998,13.55088,22.52376,68.0
1774823331.5998101,3.4332275390625e-05,2026-03-29T22:28:51.599,2026-03-29T18:28:51.599,-24424.875,-42394.905,-78638.805,-49431.645,-9770.984999999999,-17043.3,6893.82,-46135.799999999996,1.6519202375801778,-2.482332034173435,-2.0750717141574264,-0.3531633053130129,-1.0571901707095084,-0.20183478295952872,0.203132240012327,0.5043893831879352,0.57641454,0.35217195,0.731260335,-20.784119999999998,13.55088,22.52376,68.0
1774823331.5998204,1.0251998901367188e-05,2026-03-29T22:28:51.599,2026-03-29T18:28:51.599,-24417.54,-42382.034999999996,-78620.94,-49418.505,-9751.545,-17019.27,6894.495,-46138.049999999996,1.7126124251414374,-0.24806463202019416,0.13987945171771213,3.4119159564839605,2.185770642835883,1.8273210204035941,-0.2070925966060417,-5.2931215600529455,0.57641454,0.35217195,0.731260335,-20.784119999999998,13.55088,22.52376,68.0
1774823331.599831,1.0728836059570312e-05,2026-03-29T22:28:51.599,2026-03-29T18:28:51.599,-24415.92,-42385.905,-78628.31999999999,-49438.799999999996,-9761.039999999999,-17026.425,6892.74,-46140.345,0.9700190456268681,1.9795581673558484,2.044769219819844,5.365205973850016,4.3314310849452,3.090672645316262,-0.4711906666656506,-9.051286841305688,0.57641454,0.35217195,0.731260335,-20.784119999999998,13.55088,22.52376,68.0
1774823331.59984,8.821487426757812e-06,2026-03-29T22:28:51.599,2026-03-29T18:28:51.599,-24422.355,-42404.805,-78654.33,-49466.97,-9783.72,-17047.395,6897.509999999999,-46142.685,-0.2666489709166207,2.986865272081323,2.66658740983973,4.795795559697095,4.475873157950062,2.9342815594292557,-0.5793888505436146,-8.92663595716743,0.57641454,0.35217195,0.731260335,-20.784119999999998,13.55088,22.52376,68.0
1774823331.599851,1.0967254638671875e-05,2026-03-29T22:28:51.599,2026-03-29T18:28:51.599,-24417.405,-42408.63,-78657.25499999999,-49467.509999999995,-9778.815,-17045.415,6903.585,-46142.955,-1.4333011846468084,2.2884746897317654,1.7946741465544558,2.1686735178629104,2.6266551099874094,1.3411586867869247,-0.5729528679296665,-4.7761822120074955,0.57641454,0.35217195,0.731260335,-20.784119999999998,13.55088,22.52376,68.0
1774823331.5998595,8.58306884765625e-06,2026-03-29T22:28:51.599,2026-03-29T18:28:51.599,-24421.995,-42413.445,-78644.565,-49448.835,-9770.805,-17043.84,6894.134999999999,-46146.42,-1.9644453347296051,0.35612867378717444,0.037006125732601126,-1.188522978183748,-0.33939894363960293,-1.0250510623344498,-0.4829844151519087,1.6864978250906333,0.57641454,0.35217195,0.731260335,-20.784119999999998,13.55088,22.52376,68.0
1774823331.59987,1.049041748046875e-05,2026-03-29T22:28:51.599,2026-03-29T18:28:51.599,-24439.68,-42430.994999999995,-78651.405,-49436.28,-9761.039999999999,-17030.34,6902.6849999999995,-46149.345,-1.5678483917937276,-1.6830760955209627,-1.5661265050073963,-3.748930005422586,-3.087520803748261,-3.08914516730299,-0.2998949490574201,7.611571684064415,0.57641454,0.35217195,0.731260335,-20.784119999999998,13.55088,22.52376,68.0
1774823331.5998785,8.58306884765625e-06,2026-03-29T22:28:51.599,2026-03-29T18:28:51.599,-24439.5,-42416.28,-78652.395,-49446.81,-9766.529999999999,-17020.98,6916.32,-46159.38,-0.38699606699224326,-2.693480645119204,-2.138513799111761,-4.471706243575076,-4.414454447120328,-3.8413485287604066,0.003250133131556488,10.30203924452747,0.57641454,0.35217195,0.731260335,-20.784119999999998,13.55088,22.52376,68.0
1774823331.6064243,0.0065457820892333984,2026-03-29T22:28:51.606,2026-03-29T18:28:51.606,-24419.879999999997,-42402.284999999996,-78653.43,-49462.064999999995,-9778.77,-17021.114999999998,6910.38,-46157.354999999996,1.0393376916801673,-2.156200278844719,-1.4396713628307758,-3.206465121900475,-3.7615496224923453,-2.8164450415754643,0.410900781460227,8.473645054292907,0.572325195,0.34619052,0.744565965,-17.89998,14.55804,24.309179999999998,68.0
1774823331.6064413,1.6927719116210938e-05,2026-03-29T22:28:51.606,2026-03-29T18:28:51.606,-24416.73,-42405.84,-78648.705,-49466.115,-9779.67,-17021.79,6912.09,-46156.275,2.017752215078271,-0.43124796594453046,0.040058484023339676,-0.6708813571291562,-1.440177034204681,-0.35401023967464507,0.8165941164017622,2.881137544431001,0.572325195,0.34619052,0.744565965,-17.89998,14.55804,24.309179999999998,68.0
1774823331.6130867,0.0066454410552978516,2026-03-29T22:28:51.613,2026-03-29T18:28:51.613,-24425.954999999998,-42395.174999999996,-78621.56999999999,-49441.634999999995,-9755.145,-17000.145,6913.259999999999,-46165.77,2.0367075151164573,1.4746851884794836,1.395747550040066,1.9421841053724185,1.5159091991910898,2.4975067140612204,1.03350826580682,-4.002671862667326,0.572325195,0.34619052,0.744565965,-17.89998,14.55804,24.309179999999998,68.0
1774823331.6131065,1.9788742065429688e-05,2026-03-29T22:28:51.613,2026-03-29T18:28:51.613,-24427.395,-42382.485,-78608.7,-49422.33,-9739.8,-16991.505,6915.96,-46175.445,1.03609038043766,2.489969217993423,1.8419129148764553,3.518418878838012,3.8017294574861458,4.416747330347955,0.8776889850576883,-9.116263131782784,0.572325195,0.34619052,0.744565965,-17.89998,14.55804,24.309179999999998,68.0
1774823331.6131208,1.430511474609375e-05,2026-03-29T22:28:51.613,2026-03-29T18:28:51.613,-24419.52,-42386.354999999996,-78619.36499999999,-49430.88,-9747.765,-16998.704999999998,6912.945,-46175.85,-0.5328802009784385,2.0763455024904163,1.1567152948786443,3.4833969994090923,4.403790871953398,4.410160498790687,0.2883390761130268,-10.215958141270022,0.572325195,0.34619052,0.744565965,-17.89998,14.55804,24.309179999999998,68.0
1774823331.6131253,4.5299530029296875e-06,2026-03-29T22:28:51.613,2026-03-29T18:28:51.613,-24423.39,-42408.9,-78643.98,-49460.174999999996,-9786.779999999999,-17040.6,6897.33,-46173.915,-1.9043403483513535,0.5116508835216514,-0.21117998067787297,1.9884276508581236,3.0388663837868375,2.3099291102813955,-0.5853398713606653,-6.892063176373101,0.572325195,0.34619052,0.744565965,-17.89998,14.55804,24.309179999999998,68.0
1774823331.6163309,0.003205537796020508,2026-03-29T22:28:51.616,2026-03-29T18:28:51.616,-24421.59,-42414.479999999996,-78651.72,-49454.64,-9779.715,-17036.145,6897.599999999999,-46168.29,-2.369257480719034,-1.2908010959237306,-1.4237715838510676,-0.22405681785792583,0.2843650876551616,-1.074358773871115,-1.3972618991226602,-0.7171076580111826,0.572325195,0.34619052,0.744565965,-17.89998,14.55804,24.309179999999998,68.0
1774823331.61635,1.9073486328125e-05,2026-03-29T22:28:51.616,2026-03-29T18:28:51.616,-24402.285,-42414.57,-78679.665,-49478.4,-9800.685,-17055.27,6894.224999999999,-46162.215,-1.642771941946923,-2.312422907316926,-1.7527316122275136,-2.1825895877424175,-2.6586078843348493,-4.253030325515493,-1.7372757478918208,5.528020223101114,0.572325195,0.34619052,0.744565965,-17.89998,14.55804,24.309179999999998,68.0
1774823331.6202178,0.0038678646087646484,2026-03-29T22:28:51.620,2026-03-29T18:28:51.620,-24399.495,-42407.595,-78663.375,-49466.115,-9782.505,-17035.155,6897.735,-46165.455,-0.036865550202000434,-2.003562591408848,-1.005386941864464,-3.102809807651601,-4.476659900955081,-5.702559337403949,-1.335385339260365,9.159123662092325,0.572325195,0.34619052,0.744565965,-17.89998,14.55804,24.309179999999998,68.0
1774823331.6202404,2.2649765014648438e-05,2026-03-29T22:28:51.620,2026-03-29T18:28:51.620,-24429.825,-42415.424999999996,-78626.205,-49425.57,-9737.595,-16991.954999999998,6916.679999999999,-46183.905,1.664897992258367,-0.5791154950921585,0.36709412416598663,-2.685256044770401,-4.319071017278467,-4.585626974665085,-0.23687543600611075,8.789189018120297,0.572325195,0.34619052,0.744565965,-17.89998,14.55804,24.309179999999998,68.0
1774823331.6246688,0.004428386688232422,2026-03-29T22:28:51.624,2026-03-29T18:28:51.624,-24423.48,-42409.53,-78654.735,-49463.189999999995,-9790.695,-17059.86,6895.259999999999,-46182.96,2.585596766031687,1.1234771333412215,1.5390240540519613,-1.1914345666730415,-2.190363886884728,-1.2090317932527717,1.1553976253393188,4.863019500341128,0.5786118,0.34289463,0.7560405450000001,-15.717799999999999,17.71686,26.82708,68.0
1774823331.6246877,1.8835067749023438e-05,2026-03-29T22:28:51.624,2026-03-29T18:28:51.624,-24402.87,-42376.409999999996,-78651.315,-49476.284999999996,-9805.005,-17073.675,6887.61,-46180.305,2.205521790814365,2.1336269190373365,1.798799087456101,0.7064012432276425,1.0183895742016225,3.022624196607899,2.2201082378873496,-0.686572846217186,0.5786118,0.34289463,0.7560405450000001,-15.717799999999999,17.71686,26.82708,68.0
1774823331.6281788,0.0034911632537841797,2026-03-29T22:28:51.628,2026-03-29T18:28:51.628,-24397.29,-42373.08,-78631.065,-49442.939999999995,-9758.789999999999,-17018.145,6902.46,-46179.18,0.6540995960345226,1.9005125337737596,0.9720306296952932,2.220296671240947,3.8908177742339127,6.180519946708458,2.395315416927839,-5.434952267116311,0.5786118,0.34289463,0.7560405450000001,-15.717799999999999,17.71686,26.82708,68.0
1774823331.6282115,3.266334533691406e-05,2026-03-29T22:28:51.628,2026-03-29T18:28:51.628,-24408.675,-42390.405,-78636.59999999999,-49428.18,-9743.355,-17005.905,6905.384999999999,-46185.93,-1.3199741569493055,0.595356012861079,-0.46833166913005525,2.7612344939455697,5.099624986801281,6.684718495308331,1.4707363398849258,-7.5856148799958465,0.5786118,0.34289463,0.7560405450000001,-15.717799999999999,17.71686,26.82708,68.0
1774823331.6321745,0.003962993621826172,2026-03-29T22:28:51.632,2026-03-29T18:28:51.632,-24427.395,-42400.08,-78645.19499999999,-49431.24,-9755.19,-17025.75,6902.009999999999,-46193.895,-2.704928950568025,-1.003482557080546,-1.6722237405495182,2.155009890900245,4.013419514165859,4.084726794450393,-0.2560191231539979,-6.667551285720215,0.5786118,0.34289463,0.7560405450000001,-15.717799999999999,17.71686,26.82708,68.0
1774823331.6321974,2.288818359375e-05,2026-03-29T22:28:51.632,2026-03-29T18:28:51.632,-24430.545,-42387.479999999996,-78631.245,-49424.4,-9764.414999999999,-17036.954999999998,6897.96,-46202.49,-2.74139688330958,-1.9695134013984954,-1.909725356022195,0.687950550470602,1.0214334301660137,-0.6345034566711233,-2.058957302801357,-3.5250938933724805,0.5786118,0.34289463,0.7560405450000001,-15.717799999999999,17.71686,26.82708,68.0
1774823331.6364095,0.004212141036987305,2026-03-29T22:28:51.636,2026-03-29T18:28:51.636,-24421.815,-42397.47,-78640.155,-49434.21,-9763.38,-17033.67,6894.8099999999995,-46199.025,-1.335663285740236,-1.76332833410724,-1.0075276546290513,-1.0231132101847642,-2.589424705465644,-5.407481614315708,-3.0887737793175996,0.2972807018562022,0.5786118,0.34289463,0.7560405450000001,-15.717799999999999,17.71686,26.82708,68.0
1774823331.6364377,2.8133392333984375e-05,2026-03-29T22:28:51.636,2026-03-29T18:28:51.636,-24424.29,-42408.81,-78654.915,-49454.505,-9759.779999999999,-17022.329999999998,6892.11,-46192.5,0.8530136877419884,-0.5361839121723454,0.5328779812458905,-2.280548741364777,-5.177671819323433,-7.987472149163389,-2.775680019844983,3.3738263930959067,0.5786118,0.34289463,0.7560405450000001,-15.717799999999999,17.71686,26.82708,68.0
1774823331.64008,0.0036423206329345703,2026-03-29T22:28:51.640,2026-03-29T18:28:51.640,-24437.204999999998,-42411.42,-78646.41,-49458.284999999996,-9772.83,-17038.575,6900.705,-46194.119999999995,2.7162539097149776,0.9696169246601235,1.8123734629071877,-2.579942767963898,-5.487331910902708,-7.001648588102374,-1.137731962728933,4.9650316930874805,0.5786118,0.34289463,0.7560405450000001,-15.717799999999999,17.71686,26.82708,68.0
1774823331.640094,1.4066696166992188e-05,2026-03-29T22:28:51.640,2026-03-29T18:28:51.640,-24425.415,-42396.39,-78625.8,-49452.21,-9774.72,-17038.079999999998,6911.594999999999,-46197.225,3.2542320068012303,1.8617194531513321,2.0546934722961128,-1.8067028551749593,-3.25432076737506,-2.667571532436103,1.169771707346323,5.083584657714379,0.5786118,0.34289463,0.7560405450000001,-15.717799999999999,17.71686,26.82708,68.0
1774823331.6444848,0.004390716552734375,2026-03-29T22:28:51.644,2026-03-29T18:28:51.644,-24411.87,-42394.905,-78627.645,-49462.244999999995,-9777.555,-17030.114999999998,6904.71,-46198.215,2.1078697920442586,1.6217884361054262,1.071736312932429,-0.2814225903773083,0.6128138663908131,3.1982082588503222,3.1135906847284938,4.137596312161602,0.58386081,0.34985262,0.75878712,-20.311059999999998,21.9744,31.832359999999998,68.0
1774823331.644499,1.430511474609375e-05,2026-03-29T22:28:51.644,2026-03-29T18:28:51.644,-24427.485,-42410.295,-78637.05,-49458.825,-9781.515,-17033.67,6895.755,-46206.765,-0.21629233789078298,0.4074182647690834,-0.6016131078969362,1.3655536023607409,4.3905879889519115,7.934619714350872,3.7497913060872525,2.480486742397948,0.58386081,0.34985262,0.75878712,-20.311059999999998,21.9744,31.832359999999998,68.0
1774823331.6479604,0.0034613609313964844,2026-03-29T22:28:51.647,2026-03-29T18:28:51.647,-24421.86,-42398.595,-78623.28,-49434.21,-9756.494999999999,-17016.885,6900.165,-46208.115,-2.5641018375330797,-1.0438680485244667,-1.9943922515183086,2.4460444236341385,6.303308721925826,9.244724617574695,2.6856375467845304,0.21819708387161918,0.58386081,0.34985262,0.75878712,-20.311059999999998,21.9744,31.832359999999998,68.0
1774823331.6479695,9.059906005859375e-06,2026-03-29T22:28:51.647,2026-03-29T18:28:51.647,-24426.765,-42402.6,-78629.48999999999,-49439.025,-9751.32,-17009.55,6906.87,-46208.564999999995,-3.704231685801995,-1.852739668512243,-2.2561403771087005,2.496710184418414,5.356293247329658,6.309250135468664,0.3085053055695664,-2.592564080333268,0.58386081,0.34985262,0.75878712,-20.311059999999998,21.9744,31.832359999999998,68.0
1774823331.6521964,0.0042269229888916016,2026-03-29T22:28:51.652,2026-03-29T18:28:51.652,-24433.875,-42397.244999999995,-78631.56,-49464.134999999995,-9774.539999999999,-17029.26,6902.325,-46213.965,-2.9700646977037866,-1.522333168028101,-1.1675216354890183,1.4788129357669761,1.8489524351060627,0.2649225690156229,-2.347213093414749,-5.5351727241648705,0.58386081,0.34985262,0.75878712,-20.311059999999998,21.9744,31.832359999999998,68.0
1774823331.6522064,1.0013580322265625e-05,2026-03-29T22:28:51.652,2026-03-29T18:28:51.652,-24416.145,-42381.63,-78629.67,-49471.515,-9793.845,-17055.045,6893.6849999999995,-46216.08,-0.639566052863172,-0.2401385484503157,0.6968895456740485,-0.1920865890320983,-2.6958769318364646,-6.221013086422889,-4.054426342668281,-7.59464683317939,0.58386081,0.34985262,0.75878712,-20.311059999999998,21.9744,31.832359999999998,68.0
1774823331.6558244,0.003618001937866211,2026-03-29T22:28:51.655,2026-03-29T18:28:51.655,-24415.875,-42387.705,-78629.175,-49452.615,-9778.32,-17049.42,6892.29,-46215.9,2.159837313907124,1.2240082993840702,2.265714154331689,-1.8083350197821573,-6.187672429150313,-10.129948225049782,-3.9675114657911736,-7.411196599506126,0.58386081,0.34985262,0.75878712,-20.311059999999998,21.9744,31.832359999999998,68.0
1774823331.6558535,2.9087066650390625e-05,2026-03-29T22:28:51.655,2026-03-29T18:28:51.655,-24409.395,-42393.51,-78625.89,-49435.604999999996,-9756.09,-17030.07,6900.12,-46215.314999999995,3.9957120555323584,1.9702517358135143,2.5766692342745685,-2.6655360992437878,-6.9300685661487345,-9.503047856683082,-2.0444046800646625,-4.034496961241993,0.58386081,0.34985262,0.75878712,-20.311059999999998,21.9744,31.832359999999998,68.0
1774823331.6600988,0.004245281219482422,2026-03-29T22:28:51.660,2026-03-29T18:28:51.660,-24403.905,-42396.39,-78635.205,-49446.494999999995,-9766.08,-17035.47,6900.75,-46214.1,3.8618466531467477,1.5099564426231336,1.3527418184728357,-2.370105173057287,-4.446171545263293,-4.421833703826635,0.895605994876425,2.200062635461593,0.58386081,0.34985262,0.75878712,-20.311059999999998,21.9744,31.832359999999998,68.0
1774823331.660116,1.71661376953125e-05,2026-03-29T22:28:51.660,2026-03-29T18:28:51.660,-24412.454999999998,-42402.645,-78632.81999999999,-49440.375,-9757.44,-17015.085,6905.07,-46215.09,1.7232482364828927,0.07574018125554306,-0.7899614886861086,-1.0241924979221366,0.2352227379353919,2.9327875138914306,3.523471388732588,9.263307281032182,0.58386081,0.34985262,0.75878712,-20.311059999999998,21.9744,31.832359999999998,68.0
1774823331.666842,0.00672602653503418,2026-03-29T22:28:51.666,2026-03-29T18:28:51.666,-24414.39,-42407.775,-78641.64,-49439.115,-9755.19,-17018.595,6908.445,-46212.075,-1.4181835955155495,-1.491735783830272,-2.645290850847514,0.8012298846028075,4.997973335210713,9.216359743279725,4.609429095322082,13.942601254448912,0.578672835,0.34973055000000003,0.755308125,-29.34498,22.127,35.174299999999995,68.0
1774823331.6668725,3.0517578125e-05,2026-03-29T22:28:51.666,2026-03-29T18:28:51.666,-24440.985,-42422.265,-78659.64,-49454.369999999995,-9763.92,-17026.245,6901.11,-46224.0,-3.993503633344611,-2.227483357343168,-3.0850799286307655,2.304476477140074,7.596340598508448,11.450907168069794,3.6066158589648176,13.249915420265447,0.578672835,0.34973055000000003,0.755308125,-29.34498,22.127,35.174299999999995,68.0
1774823331.666898,2.5510787963867188e-05,2026-03-29T22:28:51.666,2026-03-29T18:28:51.666,-24434.864999999998,-42416.055,-78665.67,-49468.095,-9777.51,-17036.145,6904.485,-46231.38,-4.6516947921352445,-1.6221335305256999,-1.7263876047546087,2.805536426623967,6.718442610116674,8.445227258373391,0.9285075763852272,6.1368201461499,0.578672835,0.34973055000000003,0.755308125,-29.34498,22.127,35.174299999999995,68.0
1774823331.6669097,1.1682510375976562e-05,2026-03-29T22:28:51.666,2026-03-29T18:28:51.666,-24415.785,-42410.88,-78658.155,-49462.695,-9765.494999999999,-17014.095,6908.985,-46224.9,-2.9660983203570894,0.04399510821566989,0.788993587152102,2.0576388417610727,2.6495381397787257,1.4238364005992639,-2.2216107754020595,-5.411016579260935,0.578672835,0.34973055000000003,0.755308125,-29.34498,22.127,35.174299999999995,68.0
1774823331.6721303,0.005220651626586914,2026-03-29T22:28:51.672,2026-03-29T18:28:51.672,-24404.445,-42399.99,-78635.655,-49454.955,-9768.105,-17025.84,6899.175,-46219.409999999996,0.3066690723247107,1.8237826397060564,3.089749831265206,0.3731187136730671,-2.801148267850725,-6.465612101583237,-4.399002193130749,-16.68126068718802,0.578672835,0.34973055000000003,0.755308125,-29.34498,22.127,35.174299999999995,68.0
1774823331.6721437,1.33514404296875e-05,2026-03-29T22:28:51.672,2026-03-29T18:28:51.672,-24402.69,-42394.409999999996,-78627.375,-49455.99,-9774.675,-17039.655,6894.63,-46218.869999999995,3.566806214314982,2.633428550205429,3.8132487217329483,-1.5026022677331825,-7.105631323889043,-11.57239924312654,-4.590208211722986,-22.09238064885391,0.578672835,0.34973055000000003,0.755308125,-29.34498,22.127,35.174299999999995,68.0
1774823331.686367,0.014223337173461914,2026-03-29T22:28:51.686,2026-03-29T18:28:51.686,-24409.754999999997,-42378.119999999995,-78615.765,-49443.075,-9765.18,-17033.805,6897.0599999999995,-46226.34,5.157721502355988,1.8967412821148435,2.3928249331037477,-2.72079722918609,-8.196244572629837,-11.445869100069569,-2.6921520610408,-17.907572242960676,0.578672835,0.34973055000000003,0.755308125,-29.34498,22.127,35.174299999999995,68.0
1774823331.6863873,2.0265579223632812e-05,2026-03-29T22:28:51.686,2026-03-29T18:28:51.686,-24407.055,-42375.735,-78626.11499999999,-49446.09,-9766.125,-17034.3,6900.705,-46233.36,4.210116675304311,-0.07238908363783032,-0.5530415350479485,-2.7172343751876844,-5.465656749940961,-6.020791146399384,0.432409018569324,-4.505128496197416,0.578672835,0.34973055000000003,0.755308125,-29.34498,22.127,35.174299999999995,68.0
1774823331.686406,1.8596649169921875e-05,2026-03-29T22:28:51.686,2026-03-29T18:28:51.686,-24409.98,-42388.335,-78630.3,-49446.314999999995,-9760.41,-17021.88,6902.55,-46238.04,1.112239828095104,-2.1919746242034086,-3.4791764381869172,-1.4789288402000913,-0.10077618461389384,2.292845428378073,3.3530116208406486,13.086638661896812,0.578672835,0.34973055000000003,0.755308125,-29.34498,22.127,35.174299999999995,68.0
1774823331.6864123,6.4373016357421875e-06,2026-03-29T22:28:51.686,2026-03-29T18:28:51.686,-24415.829999999998,-42388.695,-78617.565,-49430.564999999995,-9743.76,-17001.765,6911.505,-46242.63,-2.646709173406329,-3.1985423842588983,-4.718225474053845,0.4389368297995763,5.431730161091929,9.686618862689093,4.736762428771712,26.96669457622399,0.578672835,0.34973055000000003,0.755308125,-29.34498,22.127,35.174299999999995,68.0
1774823331.6864207,8.344650268554688e-06,2026-03-29T22:28:51.686,2026-03-29T18:28:51.686,-24399.54,-42383.07,-78631.155,-49435.244999999995,-9753.84,-17017.605,6910.469999999999,-46240.965,-5.198744629764197,-2.383638325533835,-3.414433159500844,2.1609884929944028,8.52668202515078,12.71351758789176,3.9664763519689865,29.89022196341815,0.56799171,0.331359015,0.752866725,-24.309179999999998,21.15036,32.48854,68.0
1774823331.6864264,5.7220458984375e-06,2026-03-29T22:28:51.686,2026-03-29T18:28:51.686,-24391.17,-42397.604999999996,-78656.805,-49442.04,-9762.705,-17036.954999999998,6898.679999999999,-46240.695,-5.231912469566439,-0.05807734225217526,-0.06988192992856734,2.894431348571389,7.6773227435755,9.91079726507061,1.420274590647685,18.983706765052382,0.56799171,0.331359015,0.752866725,-24.309179999999998,21.15036,32.48854,68.0
1774823331.688458,0.002031564712524414,2026-03-29T22:28:51.688,2026-03-29T18:28:51.688,-24416.055,-42411.195,-78641.055,-49429.755,-9753.255,-17037.18,6892.11,-46248.21,-2.666832172256258,2.546749208552069,3.629932371540775,2.299830321977726,3.2158661632377057,2.514477273412367,-1.7162392240752349,-2.2358479612963476,0.56799171,0.331359015,0.752866725,-24.309179999999998,21.15036,32.48854,68.0
1774823331.6884696,1.1682510375976562e-05,2026-03-29T22:28:51.688,2026-03-29T18:28:51.688,-24430.995,-42403.86,-78616.98,-49429.125,-9751.994999999999,-17035.695,6894.585,-46251.494999999995,1.2752741787358823,3.9233345974551463,5.663313009406012,0.6537263672238541,-2.809777717823992,-6.087188984272069,-4.011038522043736,-24.790879084617835,0.56799171,0.331359015,0.752866725,-24.309179999999998,21.15036,32.48854,68.0
1774823331.6920645,0.0035948753356933594,2026-03-29T22:28:51.692,2026-03-29T18:28:51.692,-24432.885,-42370.29,-78598.53,-49444.064999999995,-9765.315,-17042.805,6887.295,-46256.805,4.6605234180228035,3.1439622424945166,4.767122917423321,-1.2774714050615967,-7.581880051296003,-11.919408816186209,-4.450281663446576,-38.01668303889445,0.56799171,0.331359015,0.752866725,-24.309179999999998,21.15036,32.48854,68.0
1774823331.6920805,1.5974044799804688e-05,2026-03-29T22:28:51.692,2026-03-29T18:28:51.692,-24411.915,-42378.93,-78615.045,-49450.409999999996,-9775.529999999999,-17042.94,6892.11,-46256.805,5.800558915383125,0.44885926846313057,1.189804985149378,-2.596162230210087,-8.842124199334785,-12.276208433469808,-2.8928225355923463,-34.60828971430476,0.56799171,0.331359015,0.752866725,-24.309179999999998,21.15036,32.48854,68.0
1774823331.6967056,0.004625082015991211,2026-03-29T22:28:51.696,2026-03-29T18:28:51.696,-24401.52,-42381.854999999996,-78617.25,-49447.395,-9780.255,-17044.875,6894.945,-46256.58,4.102002102988936,-2.7919498419857063,-3.3346882070085537,-2.696195421562436,-5.971837421576958,-6.9908612867561635,-0.10751579995118198,-14.549619000595731,0.56799171,0.331359015,0.752866725,-24.309179999999998,21.15036,32.48854,68.0
1774823331.6967306,2.5033950805664062e-05,2026-03-29T22:28:51.696,2026-03-29T18:28:51.696,-24396.165,-42396.975,-78645.465,-49461.345,-9784.664999999999,-17047.53,6896.655,-46253.115,0.37623821400584395,-4.76821615442928,-6.427853241246819,-1.5479908628838261,-0.30102844224498204,1.4821042939700593,2.611185075670157,14.153006387958717,0.56799171,0.331359015,0.752866725,-24.309179999999998,21.15036,32.48854,68.0
1774823331.7003293,0.0035986900329589844,2026-03-29T22:28:51.700,2026-03-29T18:28:51.700,-24416.73,-42414.119999999995,-78652.125,-49452.479999999996,-9756.9,-17017.875,6910.155,-46258.74,-3.5530438166597222,-4.225997218466805,-6.31424223421431,0.291047635537764,5.51076351717197,9.215718361940947,4.055005940434795,38.61084979905484,0.56799171,0.331359015,0.752866725,-24.309179999999998,21.15036,32.48854,68.0
1774823331.7003605,3.123283386230469e-05,2026-03-29T22:28:51.700,2026-03-29T18:28:51.700,-24427.35,-42397.155,-78622.515,-49444.604999999996,-9747.045,-17010.0,6913.9349999999995,-46268.369999999995,-5.752914641271068,-1.2281487287457258,-2.8218463474572304,1.9462941798283915,8.732582335364901,12.648630763497373,3.647012727671813,46.86913408243501,0.56799171,0.331359015,0.752866725,-24.309179999999998,21.15036,32.48854,68.0
1774823331.7044723,0.004111766815185547,2026-03-29T22:28:51.704,2026-03-29T18:28:51.704,-24414.614999999998,-42375.735,-78608.7,-49422.509999999995,-9727.515,-16991.64,6908.355,-46273.185,-5.143225838599679,2.7689989290574273,2.4214918695243988,2.6456963273135563,7.859095647894914,10.243858759998304,1.670063395935059,33.76287303899549,0.56750343,0.306090525,0.75402639,-14.69538,22.584799999999998,33.12946,68.0
1774823331.7045014,2.9087066650390625e-05,2026-03-29T22:28:51.704,2026-03-29T18:28:51.704,-24394.68,-42370.604999999996,-78617.52,-49440.375,-9745.65,-17009.505,6910.605,-46270.395,-2.0337278878142784,5.617019030324783,6.747997507652415,2.0864433031284553,3.324099635279949,3.186863089255363,-0.9108455495216901,3.9358493227426616,0.56750343,0.306090525,0.75402639,-14.69538,22.584799999999998,33.12946,68.0
1774823331.7081625,0.0036611557006835938,2026-03-29T22:28:51.708,2026-03-29T18:28:51.708,-24395.219999999998,-42373.17,-78621.795,-49459.5,-9780.525,-17047.89,6900.57,-46272.465,2.0341374171179627,5.61950378267521,7.811021605558274,0.5713855592961624,-2.712648320368521,-5.199030210401106,-2.9265844140192128,-29.6756509380076,0.56750343,0.306090525,0.75402639,-14.69538,22.584799999999998,33.12946,68.0
1774823331.7081845,2.193450927734375e-05,2026-03-29T22:28:51.708,2026-03-29T18:28:51.708,-24397.875,-42383.7,-78632.19,-49466.79,-9789.525,-17051.85,6899.3099999999995,-46273.14,5.059983604941413,2.513299356770222,4.85065916623117,-1.1489791382340333,-7.401661417438032,-11.031516330371323,-3.542254296968468,-51.48139674436679,0.56750343,0.306090525,0.75402639,-14.69538,22.584799999999998,33.12946,68.0
1774823331.7133136,0.005129098892211914,2026-03-29T22:28:51.713,2026-03-29T18:28:51.713,-24394.905,-42404.67,-78660.09,-49467.24,-9777.914999999999,-17040.87,6905.16,-46270.845,5.580853600903382,-2.2696839719821393,-0.8163146228815293,-2.2486918114284795,-8.562427651722473,-11.686072951792958,-2.603631442758007,-50.529703780710335,0.56750343,0.306090525,0.75402639,-14.69538,22.584799999999998,33.12946,68.0
1774823331.7133396,2.5987625122070312e-05,2026-03-29T22:28:51.713,2026-03-29T18:28:51.713,-24398.774999999998,-42404.985,-78657.39,-49456.619999999995,-9768.645,-17036.954999999998,6906.465,-46276.56,3.389372060544882,-6.256141679828593,-6.3811755282768,-2.2279173383892923,-5.71037213865648,-6.991355533029683,-0.6475007507975425,-26.014390551114122,0.56750343,0.306090525,0.75402639,-14.69538,22.584799999999998,33.12946,68.0
1774823331.716486,0.0031464099884033203,2026-03-29T22:28:51.716,2026-03-29T18:28:51.716,-24418.62,-42410.61,-78651.405,-49457.61,-9756.494999999999,-17018.954999999998,6909.344999999999,-46285.604999999996,-0.38390072774774175,-7.205227675662833,-8.943864785297587,-1.1464816867034455,-0.26220378929959226,0.7482048021119754,1.3999179272063145,11.77910000950262,0.56750343,0.306090525,0.75402639,-14.69538,22.584799999999998,33.12946,68.0
1774823331.7165039,1.7881393432617188e-05,2026-03-29T22:28:51.716,2026-03-29T18:28:51.716,-24425.504999999997,-42401.25,-78647.94,-49470.03,-9771.48,-17033.445,6895.485,-46294.064999999995,-3.8568421975442293,-4.347747828868724,-7.026819994373789,0.4227253261348955,5.169245131400548,7.888476910451613,2.6690299523693475,45.796776887038696,0.56750343,0.306090525,0.75402639,-14.69538,22.584799999999998,33.12946,68.0
1774823331.7206042,0.004100322723388672,2026-03-29T22:28:51.720,2026-03-29T18:28:51.720,-24419.16,-42388.02,-78639.3,-49463.865,-9767.925,-17026.695,6894.585,-46293.84,-5.3456715938142585,1.0871894249186542,-1.4100723700371367,1.6920693957198543,8.03900487070429,11.177931090248524,2.7189538135211997,59.99100146439513,0.56750343,0.306090525,0.75402639,-14.69538,22.584799999999998,33.12946,68.0
1774823331.7206318,2.765655517578125e-05,2026-03-29T22:28:51.720,2026-03-29T18:28:51.720,-24404.805,-42373.305,-78627.555,-49459.14,-9763.965,-17016.975,6894.8099999999995,-46290.104999999996,-4.194270485976385,6.390836992474477,5.1782781088677075,2.055766437625357,7.076249762375675,9.254974243153658,1.6748655965371593,46.96650561894845,0.56750343,0.306090525,0.75402639,-14.69538,22.584799999999998,33.12946,68.0
1774823331.724066,0.0034341812133789062,2026-03-29T22:28:51.724,2026-03-29T18:28:51.724,-24399.54,-42368.534999999996,-78614.415,-49447.799999999996,-9761.265,-17022.735,6892.469999999999,-46288.845,-1.0686111101413358,8.72563193427675,9.398360931006094,1.384498640328241,2.8545721834183957,3.2128081555405497,0.09786271360440518,11.818981110219996,0.57287451,0.304137405,0.759458505,-14.5733,25.11796,37.11232,68.0
1774823331.7240882,2.2172927856445312e-05,2026-03-29T22:28:51.724,2026-03-29T18:28:51.724,-24408.629999999997,-42381.045,-78630.705,-49455.45,-9773.279999999999,-17039.61,6886.08,-46292.174999999996,2.4186115178159753,6.63332624355202,9.001706015133442,0.07235864973535576,-2.5334859399272873,-4.003263428603167,-1.3166619036171139,-29.823663568216848,0.57287451,0.304137405,0.759458505,-14.5733,25.11796,37.11232,68.0
1774823331.72852,0.004431724548339844,2026-03-29T22:28:51.728,2026-03-29T18:28:51.728,-24413.85,-42380.1,-78623.325,-49438.305,-9755.414999999999,-17024.85,6891.03,-46300.95,4.545379166808993,0.9019278911958812,4.027741453645439,-1.18192980475567,-6.518564587483015,-9.040418571397604,-2.0498191239360484,-58.82663602938742,0.57287451,0.304137405,0.759458505,-14.5733,25.11796,37.11232,68.0
1774823331.7285364,1.6450881958007812e-05,2026-03-29T22:28:51.728,2026-03-29T18:28:51.728,-24398.415,-42391.53,-78637.275,-49453.29,-9771.164999999999,-17037.09,6889.86,-46302.39,4.342834601886623,-5.708724341418279,-3.1430723083352654,-1.7422215802317191,-7.291888072012905,-9.71195989171437,-1.9380239923748273,-61.447375003544934,0.57287451,0.304137405,0.759458505,-14.5733,25.11796,37.11232,68.0
1774823331.7323785,0.0038421154022216797,2026-03-29T22:28:51.732,2026-03-29T18:28:51.732,-24388.155,-42401.205,-78663.465,-49470.57,-9776.16,-17032.815,6901.92,-46296.045,2.0455787059420203,-9.801576344915194,-8.940240563904593,-1.359377991795821,-4.636243314926038,-5.953831633133024,-1.165099472933475,-35.920282728805844,0.57287451,0.304137405,0.759458505,-14.5733,25.11796,37.11232,68.0
1774823331.7324097,3.123283386230469e-05,2026-03-29T22:28:51.732,2026-03-29T18:28:51.732,-24384.42,-42396.975,-78663.69,-49456.17,-9761.895,-17020.89,6913.98,-46298.295,-1.0838125793710747,-9.088624873848254,-10.396378193514472,-0.28669826609642657,0.036164366735417744,0.2580603187292295,-0.11179075050640276,6.462454600670796,0.57287451,0.304137405,0.759458505,-14.5733,25.11796,37.11232,68.0
1774823331.7363179,0.0039081573486328125,2026-03-29T22:28:51.736,2026-03-29T18:28:51.736,-24419.475,-42412.545,-78662.97,-49442.985,-9746.82,-17010.09,6910.335,-46307.475,-3.4425804714372217,-3.649743959256033,-6.67466939961864,0.8693870417905541,4.4282980001390175,5.939558223046669,0.8346926520968221,46.403580983483266,0.57287451,0.304137405,0.759458505,-14.5733,25.11796,37.11232,68.0
1774823331.7363465,2.86102294921875e-05,2026-03-29T22:28:51.736,2026-03-29T18:28:51.736,-24428.024999999998,-42409.799999999996,-78660.81,-49433.58,-9729.63,-16994.25,6902.865,-46308.195,-3.9156127885455994,3.981552466209841,0.4599700749694298,1.480681500983741,6.495005477226368,8.542627476804906,1.4143400581080607,65.50019456220339,0.57287451,0.304137405,0.759458505,-14.5733,25.11796,37.11232,68.0
1774823331.7436063,0.007259845733642578,2026-03-29T22:28:51.743,2026-03-29T18:28:51.743,-24416.864999999998,-42403.185,-78653.11499999999,-49434.255,-9722.205,-16986.465,6912.9,-46400.715,-2.412790251885179,10.006518072371204,7.488028376260452,1.2335778329477616,5.405722253458527,7.107952186138802,1.5301950588507016,54.83334825464402,0.57287451,0.304137405,0.759458505,-14.5733,25.11796,37.11232,68.0
1774823331.7436433,3.695487976074219e-05,2026-03-29T22:28:51.743,2026-03-29T18:28:51.743,-24392.07,-42376.814999999995,-78628.455,-49454.415,-9742.005,-17000.864999999998,6926.985,-47001.06,0.14775217874619023,11.262274738124836,10.889623547759095,0.2921213257205134,1.8749038269300093,2.5994151841394735,1.210502623173968,19.18719387859791,0.57287451,0.304137405,0.759458505,-14.5733,25.11796,37.11232,68.0
1774823331.7436786,3.528594970703125e-05,2026-03-29T22:28:51.743,2026-03-29T18:28:51.743,-24366.195,-42358.14,-78603.39,-49453.29,-9751.77,-17009.73,6931.755,-47544.57,2.3756759589174936,6.878759745730699,8.923058317728724,-0.7978876086585784,-2.269569233457587,-2.684907009035937,0.5553217621601553,-25.123411399437636,0.57287451,0.316832685,0.763486815,-20.433139999999998,25.682579999999998,40.19484,68.0
1774823331.7436981,1.9550323486328125e-05,2026-03-29T22:28:51.743,2026-03-29T18:28:51.743,-24367.905,-42370.515,-78599.16,-49417.604999999996,-9735.39,-16997.445,6940.3949999999995,-47849.4,3.1594517543744707,-1.1762958756080653,2.52149394879414,-1.4114629979687479,-5.0311712600758876,-6.283431645096551,-0.2873705705485496,-57.81831291634552,0.57287451,0.316832685,0.763486815,-20.433139999999998,25.682579999999998,40.19484,68.0
1774823331.7488253,0.0051271915435791016,2026-03-29T22:28:51.748,2026-03-29T18:28:51.748,-24368.489999999998,-42375.915,-78604.65,-49400.325,-9736.605,-17015.13,6927.795,-48059.549999999996,2.2280791346356845,-8.988197156931522,-5.156602782603081,-1.1906810186944063,-5.214585353403242,-6.726639566842297,-1.1154807974818808,-64.05680766668749,0.57287451,0.316832685,0.763486815,-20.433139999999998,25.682579999999998,40.19484,68.0
1774823331.748848,2.2649765014648438e-05,2026-03-29T22:28:51.748,2026-03-29T18:28:51.748,-24372.27,-42385.59,-78615.405,-49407.93,-9737.055,-17017.38,6918.12,-48203.64,0.236473606790583,-12.615205562941343,-10.303816745864053,-0.24700988170215735,-2.9455124595435676,-4.130455447856586,-1.6757344510932053,-41.26333396490651,0.57287451,0.316832685,0.763486815,-20.433139999999998,25.682579999999998,40.19484,68.0
1774823331.7521896,0.0033416748046875,2026-03-29T22:28:51.752,2026-03-29T18:28:51.752,-24370.695,-42359.13,-78599.43,-49415.085,-9739.17,-17009.864999999998,6920.594999999999,-48304.439999999995,-1.647200786496439,-10.087504187970907,-10.372020707577178,0.8923777301641218,0.48698478064346906,0.00855953577829676,-1.718744985043932,-0.19334341709029668,0.57287451,0.316832685,0.763486815,-20.433139999999998,25.682579999999998,40.19484,68.0
1774823331.7522109,2.1219253540039062e-05,2026-03-29T22:28:51.752,2026-03-29T18:28:51.752,-24374.52,-42326.955,-78578.37,-49420.979999999996,-9735.074999999999,-16997.085,6926.804999999999,-48384.36,-2.406641318495336,-2.466000854115329,-5.346616911283913,1.5696503314292327,3.345062968980258,3.6491989494873467,-1.1110535224914424,40.20226078422498,0.57287451,0.316832685,0.763486815,-20.433139999999998,25.682579999999998,40.19484,68.0
1774823331.7582903,0.006079435348510742,2026-03-29T22:28:51.758,2026-03-29T18:28:51.758,-24379.785,-42325.155,-78558.61499999999,-49408.2,-9718.74,-16978.095,6937.965,-48456.314999999995,-1.7233416007081008,6.6048765994537995,2.2567356085831656,1.3620238156139015,4.323906915579282,5.215037369427769,0.04649305663362077,61.633758444871916,0.57287451,0.316832685,0.763486815,-20.433139999999998,25.682579999999998,40.19484,68.0
1774823331.7583084,1.811981201171875e-05,2026-03-29T22:28:51.758,2026-03-29T18:28:51.758,-24388.695,-42348.24,-78580.75499999999,-49427.28,-9743.175,-17002.62,6929.82,-48512.88,-0.1108145022942445,12.661337793652086,8.666008888284043,0.329765904026033,3.1520561039822956,4.2761525050935285,1.3771964682170115,54.85921711410333,0.57287451,0.316832685,0.763486815,-20.433139999999998,25.682579999999998,40.19484,68.0
1774823331.7601173,0.0018088817596435547,2026-03-29T22:28:51.760,2026-03-29T18:28:51.760,-24389.954999999998,-42352.155,-78585.93,-49424.939999999995,-9745.065,-17009.19,6920.6849999999995,-48562.424999999996,1.419768123923505,12.637364185592205,10.74589169384024,-0.9937540599080343,0.6315751819634113,1.6085860508150553,2.326696970259978,23.70672793120344,0.57287451,0.316832685,0.763486815,-20.433139999999998,25.682579999999998,40.19484,68.0
1774823331.7601302,1.2874603271484375e-05,2026-03-29T22:28:51.760,2026-03-29T18:28:51.760,-24390.54,-42354.45,-78581.79,-49411.979999999996,-9727.38,-16989.39,6924.285,-48604.905,1.9594496137040538,6.423668845224235,7.549984188010255,-1.8746446815961209,-1.8599189009419792,-1.329189067426605,2.3925527740505754,-17.034440108583553,0.57287451,0.316832685,0.763486815,-20.433139999999998,25.682579999999998,40.19484,68.0
1774823331.7644062,0.0042760372161865234,2026-03-29T22:28:51.764,2026-03-29T18:28:51.764,-24387.03,-42359.04,-78592.14,-49433.67,-9750.6,-17012.565,6919.65,-48624.165,1.2223807241909919,-3.028231176773153,0.7548093794609121,-1.7757338049311195,-3.1123360241705336,-3.1801943161457187,1.3911125509999032,-48.709809492660646,0.56689308,0.32043375,0.767148915,-24.04976,26.659219999999998,41.415639999999996,68.0
1774823331.764428,2.1696090698242188e-05,2026-03-29T22:28:51.764,2026-03-29T18:28:51.764,-24386.625,-42370.784999999996,-78597.855,-49430.655,-9747.225,-17013.465,6918.57,-48623.85,-0.304349857369187,-11.129726665336214,-6.225408067908649,-0.6670889296194401,-2.6740513367941157,-3.3163917532217106,-0.3802533633744887,-57.443008005379106,0.56689308,0.32043375,0.767148915,-24.04976,26.659219999999998,41.415639999999996,68.0
1774823331.7697856,0.0053577423095703125,2026-03-29T22:28:51.769,2026-03-29T18:28:51.769,-24401.16,-42392.744999999995,-78613.245,-49408.74,-9715.68,-16981.559999999998,6924.554999999999,-48626.64,-1.6600674494677876,-13.910061337403233,-9.97370682231571,0.9239160698032035,-1.0003179943363556,-2.018722395291882,-2.1998631131234196,-40.274785388826096,0.56689308,0.32043375,0.767148915,-24.04976,26.659219999999998,41.415639999999996,68.0
1774823331.7698169,3.123283386230469e-05,2026-03-29T22:28:51.769,2026-03-29T18:28:51.769,-24401.114999999998,-42380.235,-78610.455,-49414.905,-9726.21,-16996.095,6917.849999999999,-48635.505,-1.982531902548043,-9.981675187267777,-8.764803876587484,2.1639508288281806,0.8807218809425214,-0.18024731917010256,-3.211097181188116,-6.055079727961633,0.56689308,0.32043375,0.767148915,-24.04976,26.659219999999998,41.415639999999996,68.0
1774823331.7725437,0.0027267932891845703,2026-03-29T22:28:51.772,2026-03-29T18:28:51.772,-24395.085,-42380.055,-78631.65,-49446.99,-9752.805,-17020.079999999998,6912.8099999999995,-48640.095,-1.0228847331179518,-1.2338091541669927,-3.368535094071039,2.346802304761516,1.9691144225473924,1.248370831367664,-2.831230448463599,29.108417317684232,0.56689308,0.32043375,0.767148915,-24.04976,26.659219999999998,41.415639999999996,68.0
1774823331.772565,2.1219253540039062e-05,2026-03-29T22:28:51.772,2026-03-29T18:28:51.772,-24377.129999999997,-42349.59,-78603.345,-49444.74,-9765.27,-17033.445,6904.98,-48645.494999999995,0.6932080875869328,8.093733223245072,3.416668722391913,1.2846280184520678,1.8205755121416747,1.7451263951371043,-1.0821521716904607,49.50546350161992,0.56689308,0.32043375,0.767148915,-24.04976,26.659219999999998,41.415639999999996,68.0
1774823331.7767684,0.0042035579681396484,2026-03-29T22:28:51.776,2026-03-29T18:28:51.776,-24352.469999999998,-42317.729999999996,-78575.67,-49436.685,-9765.945,-17042.445,6902.054999999999,-48643.74,2.1546520539758314,13.495037017365211,8.226562655699635,-0.5553145070850651,0.7234557244917179,1.3873916083958588,1.3424176572366417,46.910102770764176,0.56689308,0.32043375,0.767148915,-24.04976,26.659219999999998,41.415639999999996,68.0
1774823331.7767918,2.3365020751953125e-05,2026-03-29T22:28:51.776,2026-03-29T18:28:51.776,-24366.105,-42343.424999999996,-78597.18,-49445.685,-9764.595,-17038.98,6906.195,-48641.805,2.445070959992086,12.402595731044126,8.820723205532243,-2.2562583895582113,-0.5430107922065858,0.6639178637515172,3.343539420824169,23.87191280841131,0.56689308,0.32043375,0.767148915,-24.04976,26.659219999999998,41.415639999999996,68.0
1774823331.7855856,0.008793830871582031,2026-03-29T22:28:51.785,2026-03-29T18:28:51.785,-24392.7,-42381.314999999995,-78623.415,-49442.985,-9748.44,-17015.805,6912.945,-48644.955,1.2868077632871457,5.420262012814866,5.1406177835216385,-2.9098262892082776,-1.20361955236668,0.09096351359465497,3.920153668648639,-8.087498248646144,0.56689308,0.32043375,0.767148915,-24.04976,26.659219999999998,41.415639999999996,68.0
1774823331.785606,2.0265579223632812e-05,2026-03-29T22:28:51.785,2026-03-29T18:28:51.785,-24393.915,-42390.54,-78634.215,-49436.775,-9734.445,-16996.32,6917.759999999999,-48645.0,-0.7640248148299552,-4.013843999327226,-0.7707563558496394,-2.097376682914664,-0.9393235958222131,-0.11197033968160242,2.6760367587357923,-34.24245738518441,0.56689308,0.32043375,0.767148915,-24.04976,26.659219999999998,41.415639999999996,68.0
1774823331.78564,3.409385681152344e-05,2026-03-29T22:28:51.785,2026-03-29T18:28:51.785,-24401.835,-42394.545,-78636.105,-49444.83,-9745.605,-17006.399999999998,6913.304999999999,-48649.275,-2.593532792885962,-11.346056706999391,-5.896627828355392,-0.14138471040368567,-0.04075112729716784,-0.09573343950729618,0.07131406264315969,-43.502502895635864,0.56994483,0.305236035,0.7728251700000001,-22.34064,30.504739999999998,46.115719999999996,68.0
1774823331.785648,8.106231689453125e-06,2026-03-29T22:28:51.785,2026-03-29T18:28:51.785,-24397.605,-42394.814999999995,-78639.705,-49455.945,-9764.865,-17031.465,6906.96,-48647.205,-3.136316536021341,-13.137191093866445,-7.802005834894994,2.0184378180804265,0.810757631774842,-0.18629410292085014,-2.7337502613881592,-33.12186835660018,0.56994483,0.305236035,0.7728251700000001,-22.34064,30.504739999999998,46.115719999999996,68.0
1774823331.7905195,0.004871368408203125,2026-03-29T22:28:51.790,2026-03-29T18:28:51.790,-24395.399999999998,-42403.005,-78643.575,-49449.825,-9748.44,-17010.765,6915.33,-48639.465,-1.9817437838071768,-8.697114875280041,-5.807964112715001,3.2795288568293772,0.9908711959056586,-0.5751686974313985,-4.398567824738402,-9.279503158212348,0.56994483,0.305236035,0.7728251700000001,-22.34064,30.504739999999998,46.115719999999996,68.0
1774823331.7905345,1.5020370483398438e-05,2026-03-29T22:28:51.790,2026-03-29T18:28:51.790,-24400.305,-42405.975,-78649.47,-49456.575,-9757.215,-17023.005,6907.455,-48638.744999999995,0.35963752228711476,-0.33661850554630907,-1.2099591280447248,2.9407908394106927,0.335247733289284,-1.1183587774376549,-4.05138659016109,16.421439192744213,0.56994483,0.305236035,0.7728251700000001,-22.34064,30.504739999999998,46.115719999999996,68.0
1774823331.7923572,0.0018227100372314453,2026-03-29T22:28:51.792,2026-03-29T18:28:51.792,-24396.254999999997,-42382.125,-78627.825,-49445.955,-9762.93,-17038.665,6893.91,-48635.549999999996,2.690375556840234,7.847016826227815,3.514894904442237,1.0876805940801804,-0.745594901803275,-1.391737362158504,-1.7496006033557325,32.60916192206454,0.56994483,0.305236035,0.7728251700000001,-22.34064,30.504739999999998,46.115719999999996,68.0
1774823331.7923687,1.1444091796875e-05,2026-03-29T22:28:51.792,2026-03-29T18:28:51.792,-24405.795,-42370.74,-78611.12999999999,-49435.424999999996,-9760.904999999999,-17031.69,6896.925,-48631.409999999996,3.7495896522421894,12.008181117900673,6.043876933992092,-1.4114963009638162,-1.5116006508066662,-0.980327027879498,1.4932194568415913,33.19142599863915,0.56994483,0.305236035,0.7728251700000001,-22.34064,30.504739999999998,46.115719999999996,68.0
1774823331.7963595,0.003990888595581055,2026-03-29T22:28:51.796,2026-03-29T18:28:51.796,-24396.03,-42362.595,-78607.08,-49431.465,-9752.67,-17021.565,6901.38,-48613.86,2.896676386249033,10.387630203761256,5.366927873379099,-3.314850011949409,-1.3567662208066795,0.18172339080649988,4.153965352900158,19.54963648366773,0.56994483,0.305236035,0.7728251700000001,-22.34064,30.504739999999998,46.115719999999996,68.0
1774823331.796375,1.5497207641601562e-05,2026-03-29T22:28:51.796,2026-03-29T18:28:51.796,-24394.5,-42382.979999999996,-78630.525,-49442.715,-9747.18,-17015.04,6903.719999999999,-48588.479999999996,0.4840367897152494,4.055419519616549,2.1820143235580516,-3.6282059811256313,-0.21525859713206208,1.6536093728004653,4.9234092706817005,-0.8507674253601304,0.56994483,0.305236035,0.7728251700000001,-22.34064,30.504739999999998,46.115719999999996,68.0
1774823331.8004208,0.004045724868774414,2026-03-29T22:28:51.800,2026-03-29T18:28:51.800,-24388.739999999998,-42394.77,-78652.485,-49465.755,-9769.815,-17039.34,6893.235,-48554.009999999995,-2.292962440051582,-3.751170844780781,-1.622519118901398,-2.126178544157346,1.3409258433589675,2.6491278926301134,3.359017578026169,-18.44212759080626,0.56994483,0.305236035,0.7728251700000001,-22.34064,30.504739999999998,46.115719999999996,68.0
1774823331.8004444,2.3603439331054688e-05,2026-03-29T22:28:51.800,2026-03-29T18:28:51.800,-24383.565,-42392.205,-78644.25,-49465.034999999996,-9775.98,-17048.204999999998,6874.83,-48524.534999999996,-4.002640488771221,-9.301115259933132,-4.059407530667567,0.5006002716668501,2.391093492608694,2.461276513007014,0.13787503849239172,-26.040027584002658,0.56994483,0.305236035,0.7728251700000001,-22.34064,30.504739999999998,46.115719999999996,68.0
1774823331.8042269,0.003782510757446289,2026-03-29T22:28:51.804,2026-03-29T18:28:51.804,-24400.665,-42393.104999999996,-78629.84999999999,-49445.28,-9756.494999999999,-17028.09,6870.87,-48505.409999999996,-3.7264590219712814,-10.18192037907983,-4.087712388548057,2.963284208113396,2.1947266762476536,0.9198402560212092,-3.233727828099726,-21.730082401331416,0.579283185,0.292784895,0.7796610900000001,-21.65394,33.78564,50.98366,68.0
1774823331.80424,1.3113021850585938e-05,2026-03-29T22:28:51.804,2026-03-29T18:28:51.804,-24408.045,-42381.99,-78607.62,-49431.24,-9750.645,-17014.05,6880.59,-48491.189999999995,-1.5545206679142445,-6.357146845355235,-2.0589561421747566,4.011768153342287,0.6627545800082584,-1.3982731902522172,-5.130926919012826,-9.024959580269043,0.579283185,0.292784895,0.7796610900000001,-21.65394,33.78564,50.98366,68.0
1774823331.8083987,0.004158735275268555,2026-03-29T22:28:51.808,2026-03-29T18:28:51.808,-24392.655,-42358.365,-78591.78,-49425.479999999996,-9736.199999999999,-16990.785,6894.63,-48460.77,1.4408623233733584,-0.001245775509771482,0.6277891597538525,3.0743829593097547,-1.5119372377102147,-3.3706205881571067,-4.602844568591015,5.442741882827206,0.579283185,0.292784895,0.7796610900000001,-21.65394,33.78564,50.98366,68.0
1774823331.8084297,3.0994415283203125e-05,2026-03-29T22:28:51.808,2026-03-29T18:28:51.808,-24382.62,-42350.895,-78595.605,-49431.509999999995,-9736.605,-16989.03,6900.884999999999,-48420.945,3.747561302210562,5.721374652411476,2.4098584400813112,0.5710907344050825,-3.16970425097188,-3.8811289967261615,-1.8561214930052616,15.312404807721478,0.579283185,0.292784895,0.7796610900000001,-21.65394,33.78564,50.98366,68.0
1774823331.8124344,0.004004716873168945,2026-03-29T22:28:51.812,2026-03-29T18:28:51.812,-24384.059999999998,-42375.104999999996,-78629.04,-49448.43,-9749.34,-17006.625,6908.58,-48370.095,4.192225003074417,8.254061023950744,2.4520685531691306,-2.271750713946748,-3.3008630501588265,-2.4474207915506114,1.8193478598352697,17.262411131393666,0.579283185,0.292784895,0.7796610900000001,-21.65394,33.78564,50.98366,68.0
1774823331.8124602,2.574920654296875e-05,2026-03-29T22:28:51.812,2026-03-29T18:28:51.812,-24386.895,-42387.615,-78632.055,-49441.95,-9742.59,-17002.845,6923.115,-48323.52,2.54801134067017,6.8061284696699165,1.0436006216464413,-4.025266672618415,-1.636908299553649,0.42628225763887734,4.659890752582605,11.964868156897657,0.579283185,0.292784895,0.7796610900000001,-21.65394,33.78564,50.98366,68.0
1774823331.8176844,0.0052242279052734375,2026-03-29T22:28:51.817,2026-03-29T18:28:51.817,-24402.6,-42400.845,-78635.52,-49450.275,-9754.335,-17016.39,6932.79,-48283.424999999996,-0.34764417693563116,2.539157851981891,-0.690615921608688,-3.7822024905892038,1.1207507988331395,3.4019153889895146,5.282862940463743,3.063094388750865,0.579283185,0.292784895,0.7796610900000001,-21.65394,33.78564,50.98366,68.0
1774823331.817714,2.956390380859375e-05,2026-03-29T22:28:51.817,2026-03-29T18:28:51.817,-24406.829999999998,-42393.06,-78632.01,-49458.465,-9772.47,-17038.98,6918.974999999999,-48249.405,-3.0271187770459487,-2.2187192619685865,-1.5517506549175955,-1.6320572136505425,3.5930993553783988,4.936160120148102,3.3684525662821287,-5.028088618511397,0.579283185,0.292784895,0.7796610900000001,-21.65394,33.78564,50.98366,68.0
1774823331.821318,0.0036039352416992188,2026-03-29T22:28:51.821,2026-03-29T18:28:51.821,-24397.785,-42398.865,-78659.055,-49474.305,-9786.42,-17051.175,6901.2,-48212.1,-4.150435364883971,-5.240263606230307,-1.0250069904095078,1.3637792228341126,4.416949359855828,4.086977858855715,-0.17167669106583283,-9.25703256042485,0.579283185,0.292784895,0.7796610900000001,-21.65394,33.78564,50.98366,68.0
1774823331.821334,1.5974044799804688e-05,2026-03-29T22:28:51.821,2026-03-29T18:28:51.821,-24404.489999999998,-42416.505,-78670.215,-49455.27,-9764.145,-17033.94,6903.09,-48184.47,-3.1898347866685026,-5.459789473136682,0.4225909920095603,3.6962310836522554,2.9891867071302585,1.0744868847043971,-3.6294187852840505,-8.99444618886359,0.579283185,0.292784895,0.7796610900000001,-21.65394,33.78564,50.98366,68.0
1774823331.8245683,0.003234386444091797,2026-03-29T22:28:51.824,2026-03-29T18:28:51.824,-24406.829999999998,-42412.32,-78652.845,-49435.695,-9756.09,-17034.12,6898.41,-48159.72,-0.6854431581452939,-3.3135866801793203,1.673418530302249,4.1733267622811665,-0.1412301741322118,-2.7299824185707773,-5.3307167586302215,-5.707359457268894,0.577574205,0.29736252,0.7864359750000001,-22.157519999999998,32.824259999999995,48.526799999999994,68.0
1774823331.8245888,2.0503997802734375e-05,2026-03-29T22:28:51.824,2026-03-29T18:28:51.824,-24385.14,-42397.695,-78645.33,-49418.595,-9744.66,-17024.579999999998,6898.679999999999,-48116.52,2.055121249250713,-0.2740791054753246,1.7063800173287182,2.536246501990525,-3.4725037094958195,-5.429165198948536,-4.4546078491958445,-1.689584202220683,0.577574205,0.29736252,0.7864359750000001,-22.157519999999998,32.824259999999995,48.526799999999994,68.0
1774823331.8287096,0.004120826721191406,2026-03-29T22:28:51.828,2026-03-29T18:28:51.828,-24363.405,-42394.365,-78663.33,-49463.775,-9780.705,-17059.14,6902.37,-48073.005,3.647255158435883,2.0751694643959664,0.2947764721435331,-0.3944499726200352,-5.2753329045537285,-5.553820292690534,-1.436118167348338,1.3013955694703623,0.577574205,0.29736252,0.7864359750000001,-22.157519999999998,32.824259999999995,48.526799999999994,68.0
1774823331.8287425,3.2901763916015625e-05,2026-03-29T22:28:51.828,2026-03-29T18:28:51.828,-24353.055,-42404.805,-78672.23999999999,-49506.21,-9814.725,-17086.364999999998,6893.46,-48032.145,3.342238960927526,2.87041974112774,-1.7845085613338025,-3.1268891171984006,-4.491770014355921,-2.862311241749425,2.247685392335024,2.7542319174857006,0.577574205,0.29736252,0.7864359750000001,-22.157519999999998,32.824259999999995,48.526799999999994,68.0
1774823331.834224,0.0054814815521240234,2026-03-29T22:28:51.834,2026-03-29T18:28:51.834,-24416.91,-42407.685,-78657.12,-49490.955,-9793.035,-17051.309999999998,6901.335,-48019.365,1.390014442546694,2.2662551267059157,-3.179947122402038,-4.258867545688157,-1.3399840160180954,1.4485898293308848,4.803912413724478,3.2055575055145136,0.577574205,0.29736252,0.7864359750000001,-22.157519999999998,32.824259999999995,48.526799999999994,68.0
1774823331.834254,3.0040740966796875e-05,2026-03-29T22:28:51.834,2026-03-29T18:28:51.834,-24440.265,-42379.064999999995,-78614.685,-49435.47,-9744.164999999999,-17004.195,6902.55,-48020.04,-1.1285065752349204,1.110215268458281,-2.7956372691522033,-3.2031345415462944,2.714316529212616,5.272003437835067,5.003429294641492,3.442796097747437,0.577574205,0.29736252,0.7864359750000001,-22.157519999999998,32.824259999999995,48.526799999999994,68.0
1774823331.836744,0.0024900436401367188,2026-03-29T22:28:51.836,2026-03-29T18:28:51.836,-24415.605,-42352.875,-78571.53,-49407.479999999996,-9714.779999999999,-16970.67,6907.995,-48003.165,-2.8962922551419767,0.26951300785397825,-0.5303072444525301,-0.49966773000749914,5.6430339262426745,6.627059632746468,2.7789113717097016,3.7285634193928643,0.577574205,0.29736252,0.7864359750000001,-22.157519999999998,32.824259999999995,48.526799999999994,68.0
1774823331.836769,2.5033950805664062e-05,2026-03-29T22:28:51.836,2026-03-29T18:28:51.836,-24393.825,-42351.345,-78575.895,-49422.869999999995,-9740.654999999999,-16997.355,6911.82,-47979.045,-3.0560679949167273,0.06258588012097532,2.537839844226197,2.4539898141772722,5.875416245204568,4.690176357194961,-0.752870247364942,3.5752148145928864,0.577574205,0.29736252,0.7864359750000001,-22.157519999999998,32.824259999999995,48.526799999999994,68.0
1774823331.8403077,0.0035386085510253906,2026-03-29T22:28:51.840,2026-03-29T18:28:51.840,-24392.475,-42358.275,-78589.70999999999,-49439.88,-9760.005,-17014.32,6907.094999999999,-47967.435,-1.6366685512472159,0.1437117548385315,4.675792526145403,4.122517815854615,3.1373090456649786,0.2826243434442766,-3.8518633212477567,2.191699468756207,0.577574205,0.29736252,0.7864359750000001,-22.157519999999998,32.824259999999995,48.526799999999994,68.0
1774823331.8403275,1.9788742065429688e-05,2026-03-29T22:28:51.840,2026-03-29T18:28:51.840,-24405.75,-42382.215,-78613.515,-49453.515,-9766.035,-17021.655,6906.96,-47964.555,0.5066396459847567,-0.12062051967819863,4.469829568293702,3.6332878906345796,-1.337012983970616,-4.4683722555412695,-5.0165939463237965,-0.7325228396246479,0.577574205,0.29736252,0.7864359750000001,-22.157519999999998,32.824259999999995,48.526799999999994,68.0
1774823331.8504243,0.01009678840637207,2026-03-29T22:28:51.850,2026-03-29T18:28:51.850,-24399.405,-42365.475,-78600.105,-49448.25,-9767.385,-17026.92,6901.605,-47959.784999999996,2.1885480898339513,-1.0654805302195427,1.704360099687981,1.2394503344991603,-5.361908137784607,-7.160315467626511,-3.7178219226804945,-4.472238152210418,0.564878925,0.31188885,0.7910136,-30.32162,31.954439999999998,43.2621,68.0
1774823331.8504405,1.621246337890625e-05,2026-03-29T22:28:51.850,2026-03-29T18:28:51.850,-24388.92,-42355.755,-78592.635,-49437.36,-9757.664999999999,-17019.18,6898.139999999999,-47954.34,2.5450278054430737,-2.3490919465486884,-2.3807939747207407,-1.8025434949681962,-6.8745987979031815,-6.336328400771899,-0.6425353855607101,-7.3754819837470675,0.564878925,0.31188885,0.7910136,-30.32162,31.954439999999998,43.2621,68.0
1774823331.8504765,3.600120544433594e-05,2026-03-29T22:28:51.850,2026-03-29T18:28:51.850,-24382.125,-42355.979999999996,-78596.01,-49430.655,-9746.595,-17009.19,6903.945,-47944.53,1.4831136340664632,-3.0683280545404186,-5.655111646436973,-3.885489387453416,-4.995544703010772,-2.2730530677644416,2.6658786277243425,-7.662983401247192,0.564878925,0.31188885,0.7910136,-30.32162,31.954439999999998,43.2621,68.0
1774823331.8504808,4.291534423828125e-06,2026-03-29T22:28:51.850,2026-03-29T18:28:51.850,-24385.5,-42381.81,-78629.12999999999,-49441.725,-9747.225,-17008.605,6907.41,-47934.45,-0.3073953267570564,-2.334231903015058,-6.223234696044074,-3.898120340091317,-0.5285457459432181,3.089901728678069,4.5839523648778275,-4.500033062686954,0.564878925,0.31188885,0.7910136,-30.32162,31.954439999999998,43.2621,68.0
1774823331.855085,0.0046041011810302734,2026-03-29T22:28:51.855,2026-03-29T18:28:51.855,-24392.114999999998,-42415.784999999996,-78679.44,-49459.905,-9751.455,-17006.535,6911.594999999999,-47917.08,-1.7715755695694297,0.039813460389048955,-3.511745843801401,-1.8212023527392631,4.37911097194982,7.077372824400489,4.2093053846562185,1.291181422178486,0.564878925,0.31188885,0.7910136,-30.32162,31.954439999999998,43.2621,68.0
1774823331.8551323,4.744529724121094e-05,2026-03-29T22:28:51.855,2026-03-29T18:28:51.855,-24391.44,-42408.54,-78681.42,-49464.54,-9755.55,-17010.945,6906.105,-47894.67,-2.0930284282648985,3.1954183895173855,1.3010041232885965,1.2475954941421645,7.274986987092423,7.618421085793289,1.788971083109946,7.359732683305716,0.564878925,0.31188885,0.7910136,-30.32162,31.954439999999998,43.2621,68.0
1774823331.8551557,2.3365020751953125e-05,2026-03-29T22:28:51.855,2026-03-29T18:28:51.855,-24392.204999999998,-42396.255,-78658.92,-49445.909999999996,-9742.859999999999,-17012.295,6898.815,-47870.82,-1.144191062116824,5.517624148462237,5.798904543675556,3.6640008323538567,6.633341241038163,4.324771861831962,-1.4302823458983065,10.831861821387518,0.564878925,0.31188885,0.7910136,-30.32162,31.954439999999998,43.2621,68.0
