unix_time_s,dt_s,UTC,LOCAL,EMG1_Raw,EMG2_Raw,EMG3_Raw,EMG4_Raw,EMG5_Raw,EMG6_Raw,EMG7_Raw,EMG8_Raw,EMG1_Filtered,EMG2_Filtered,EMG3_Filtered,EMG4_Filtered,EMG5_Filtered,EMG6_Filtered,EMG7_Filtered,EMG8_Filtered,Accel1_Raw,Accel2_Raw,Accel3_Raw,Gyro1_Raw,Gyro2_Raw,Gyro3_Raw,Battery
1774822062.0839608,,2026-03-29T22:07:42.083,2026-03-29T18:07:42.083,-32124.735,-49365.45,-84641.94,-50001.795,-14583.24,-19880.82,5153.085,-58636.979999999996,-0.4726888117039131,-0.18501276137109066,-0.17521701531943512,0.3305740970667242,0.32996474032650375,0.13189417134385775,-1.1489044966489135,-0.7581064871599781,0.14306604,-0.866391825,0.47399781,-1.23606,-0.5341,1.17502,72.0
1774822062.0839765,1.5735626220703125e-05,2026-03-29T22:07:42.083,2026-03-29T18:07:42.083,-32135.085,-49375.845,-84650.58,-50006.159999999996,-14591.205,-19891.44,5124.87,-58645.979999999996,-1.1188656047043042,0.1251716861673768,1.1178614681748749,2.218512107728907,0.5903801199458545,0.1622006811829962,-5.336758636008108,-0.7649522933232651,0.14306604,-0.866391825,0.47399781,-1.23606,-0.5341,1.17502,72.0
1774822062.0839927,1.621246337890625e-05,2026-03-29T22:07:42.083,2026-03-29T18:07:42.083,-32135.085,-49375.665,-84649.77,-50008.59,-14592.779999999999,-19892.655,5116.41,-58645.305,-1.2191313924796914,0.42014410662271917,1.9613071079701145,3.0734544522012146,0.5628391686482221,0.1323637674279626,-7.048729864233517,-0.3750721887407849,0.14306604,-0.866391825,0.47399781,-1.23606,-0.5341,1.17502,72.0
1774822062.0839984,5.7220458984375e-06,2026-03-29T22:07:42.083,2026-03-29T18:07:42.083,-32129.864999999998,-49369.994999999995,-84638.06999999999,-50009.67,-14597.055,-19890.675,5123.429999999999,-58632.479999999996,-0.6577431542388744,0.5797840695014648,1.936911333749433,2.457534828826557,0.23174056615720723,0.052483047389048,-5.435109594406863,0.3130711229086824,0.14306604,-0.866391825,0.47399781,-1.23606,-0.5341,1.17502,72.0
1774822062.0840054,6.9141387939453125e-06,2026-03-29T22:07:42.084,2026-03-29T18:07:42.084,-32133.375,-49372.965,-84642.795,-50010.659999999996,-14594.984999999999,-19889.055,5123.79,-58634.82,0.3293838850730672,0.5197308743625798,1.011599063745403,0.6431572113985596,-0.2557843340097876,-0.04770736483544443,-1.2263779613307537,1.0069814417901721,0.14306604,-0.866391825,0.47399781,-1.23606,-0.5341,1.17502,72.0
1774822062.0840101,4.76837158203125e-06,2026-03-29T22:07:42.084,2026-03-29T18:07:42.084,-32130.855,-49371.479999999996,-84640.815,-50005.439999999995,-14589.09,-19885.815,5127.12,-58634.055,1.2542043688820925,0.23726127958389773,-0.4235493541679366,-1.505290674544629,-0.6535130246497222,-0.12764628998336755,3.598386455837614,1.3458530642620246,0.14306604,-0.866391825,0.47399781,-1.23606,-0.5341,1.17502,72.0
1774822062.0942273,0.01021718978881836,2026-03-29T22:07:42.094,2026-03-29T18:07:42.094,-32134.545,-49377.689999999995,-84651.03,-50009.354999999996,-14591.07,-19891.079999999998,5125.455,-58640.085,1.6183992097021096,-0.17209096071429666,-1.7160185913816324,-2.9452741726658203,-0.7399158109002619,-0.15180366937371081,6.748246653028907,1.0872210819076429,0.14306604,-0.866391825,0.47399781,-1.23606,-0.5341,1.17502,72.0
1774822062.0942483,2.09808349609375e-05,2026-03-29T22:07:42.094,2026-03-29T18:07:42.094,-32138.19,-49380.435,-84653.01,-50017.185,-14597.865,-19898.145,5122.53,-58647.329999999994,1.1772803342049383,-0.5428332692561108,-2.250405685148723,-2.9666870552418,-0.44025571559093696,-0.10693687075568534,6.716056259573923,0.25811738269727014,0.14306604,-0.866391825,0.47399781,-1.23606,-0.5341,1.17502,72.0
1774822062.0942717,2.3365020751953125e-05,2026-03-29T22:07:42.094,2026-03-29T18:07:42.094,-32136.254999999997,-49377.645,-84651.84,-50022.09,-14601.06,-19897.649999999998,5124.554999999999,-58645.619999999995,0.08746039988742184,-0.7071510429630232,-1.7456495220542223,-1.547231463331972,0.11957942965201407,-0.011867595826484157,3.5053442490553186,-0.817451953932544,0.14306604,-0.866391825,0.47399781,-1.23606,-0.5341,1.17502,72.0
1774822062.094278,6.4373016357421875e-06,2026-03-29T22:07:42.094,2026-03-29T18:07:42.094,-32131.71,-49372.74,-84650.625,-50017.365,-14596.47,-19893.149999999998,5127.48,-58643.369999999995,-1.1459982315338675,-0.5739436211368049,-0.4056625836324726,0.6273973480272456,0.6629118905682212,0.08764395688649548,-1.3648149889242354,-1.6450745425978877,0.14306604,-0.866391825,0.47399781,-1.23606,-0.5341,1.17502,72.0
1774822062.0993412,0.005063056945800781,2026-03-29T22:07:42.099,2026-03-29T18:07:42.099,-32131.485,-49371.435,-84649.275,-50010.659999999996,-14591.789999999999,-19890.495,5128.335,-58642.604999999996,-1.9066827749989737,-0.18060484931310913,1.1583573411564023,2.4945511719453886,0.8979592493398164,0.13956705943360753,-5.5828446672319645,-1.7910644395261943,0.137267715,-0.86474388,0.47186158500000003,-4.41014,-1.23606,1.55652,72.0
1774822062.099358,1.6927719116210938e-05,2026-03-29T22:07:42.099,2026-03-29T18:07:42.099,-32131.485,-49371.75,-84649.77,-50009.805,-14590.619999999999,-19888.469999999998,5131.304999999999,-58642.38,-1.7754273795735327,0.31228903111230394,2.2074486058740703,3.137340192914492,0.6734312914447322,0.11328595022690553,-7.149412576559027,-1.1082394171340217,0.137267715,-0.86474388,0.47186158500000003,-4.41014,-1.23606,1.55652,72.0
1774822062.0995893,0.00023126602172851562,2026-03-29T22:07:42.099,2026-03-29T18:07:42.099,-32131.98,-49373.28,-84649.815,-50008.77,-14589.539999999999,-19887.255,5125.815,-58641.57,-0.7554827039583114,0.6871138782688849,2.2284133568226525,2.2405789682446478,0.07168790402648924,0.01960767006375616,-5.332306921090499,0.1608461192978227,0.137267715,-0.86474388,0.47186158500000003,-4.41014,-1.23606,1.55652,72.0
1774822062.099596,6.67572021484375e-06,2026-03-29T22:07:42.099,2026-03-29T18:07:42.099,-32135.535,-49376.34,-84654.405,-50013.45,-14591.654999999999,-19889.82,5116.32,-58645.89,0.7047964980547942,0.7687528885484787,1.1904605035943476,0.2509214775707997,-0.616043064561949,-0.09008190780086392,-1.0119806740504627,1.466882177513068,0.137267715,-0.86474388,0.47186158500000003,-4.41014,-1.23606,1.55652,72.0
1774822062.1042795,0.004683494567871094,2026-03-29T22:07:42.104,2026-03-29T18:07:42.104,-32132.43,-49374.314999999995,-84654.54,-50022.72,-14597.055,-19891.665,5119.83,-58643.909999999996,1.9126067752710811,0.510404401253874,-0.4257008887663455,-1.8424769789759872,-1.0287932891915235,-0.14872068487123233,3.746879529227304,2.196306053711216,0.137267715,-0.86474388,0.47186158500000003,-4.41014,-1.23606,1.55652,72.0
1774822062.104308,2.8371810913085938e-05,2026-03-29T22:07:42.104,2026-03-29T18:07:42.104,-32125.094999999998,-49370.445,-84650.08499999999,-50017.994999999995,-14593.23,-19890.54,5132.745,-58637.204999999994,2.2631881300078,0.021780049159323446,-1.8493026177889884,-3.0004519340305746,-0.9237805765655924,-0.11181064398599301,6.688379404876176,1.9639314640043752,0.137267715,-0.86474388,0.47186158500000003,-4.41014,-1.23606,1.55652,72.0
1774822062.1078067,0.0034987926483154297,2026-03-29T22:07:42.107,2026-03-29T18:07:42.107,-32127.434999999998,-49376.744999999995,-84657.23999999999,-50022.45,-14597.91,-19894.23,5139.495,-58637.835,1.542820323480313,-0.4776761233205477,-2.3903601095965272,-2.654067781185453,-0.31604065399462233,0.011745838015330275,6.442393503799255,0.8140991383217093,0.137267715,-0.86474388,0.47186158500000003,-4.41014,-1.23606,1.55652,72.0
1774822062.1078308,2.4080276489257812e-05,2026-03-29T22:07:42.107,2026-03-29T18:07:42.107,-32138.954999999998,-49384.439999999995,-84664.035,-50027.13,-14602.005,-19897.965,5133.285,-58648.905,0.050260502868198255,-0.7606793308088212,-1.7802759339857839,-0.9904373658745431,0.5090613988840009,0.15616502983569372,3.1676796054355734,-0.7739967983233991,0.137267715,-0.86474388,0.47186158500000003,-4.41014,-1.23606,1.55652,72.0
1774822062.112944,0.005113124847412109,2026-03-29T22:07:42.112,2026-03-29T18:07:42.112,-32145.164999999997,-49384.395,-84659.12999999999,-50017.814999999995,-14593.68,-19892.88,5128.875,-58656.375,-1.5296736785504899,-0.7003102263278902,-0.3115073046728696,1.1420116560059959,1.1271681139548564,0.2295443211120966,-1.5431237289492086,-2.089967544193362,0.137267715,-0.86474388,0.47186158500000003,-4.41014,-1.23606,1.55652,72.0
1774822062.1129594,1.5497207641601562e-05,2026-03-29T22:07:42.112,2026-03-29T18:07:42.112,-32143.364999999998,-49385.655,-84659.715,-50016.689999999995,-14594.49,-19895.625,5124.96,-58653.225,-2.4455987345618224,-0.3308121232516791,1.2988739558485252,2.6632136068812473,1.1909773871800546,0.16622952295156468,-5.44220534145169,-2.5162856994538503,0.137267715,-0.86474388,0.47186158500000003,-4.41014,-1.23606,1.55652,72.0
1774822062.1163032,0.003343820571899414,2026-03-29T22:07:42.116,2026-03-29T18:07:42.116,-32141.07,-49385.61,-84664.70999999999,-50020.74,-14597.955,-19898.505,5123.205,-58650.479999999996,-2.240674399888552,0.17004120699759534,2.25999022484639,2.809697357401936,0.6219444325543357,-0.02711935335431395,-6.706208437045428,-1.821975839866322,0.13574184,-0.867490455,0.471617445,-3.55558,-1.2971,4.16598,72.0
1774822062.11633,2.6702880859375e-05,2026-03-29T22:07:42.116,2026-03-29T18:07:42.116,-32132.745,-49375.35,-84651.345,-50022.99,-14601.105,-19897.605,5125.005,-58643.189999999995,-0.9800719591702252,0.5686643375276457,2.1005817963391524,1.5226935937000083,-0.3266858908124866,-0.2607678619316886,-4.794773030358166,-0.28450809122172505,0.13574184,-0.867490455,0.471617445,-3.55558,-1.2971,4.16598,72.0
1774822062.122218,0.0058879852294921875,2026-03-29T22:07:42.122,2026-03-29T18:07:42.122,-32128.739999999998,-49373.28,-84650.625,-50022.585,-14600.07,-19896.524999999998,5127.885,-58638.869999999995,0.7684166297092133,0.6893430413940766,0.9073380905238677,-0.523049195219552,-1.1789691241918097,-0.3993853882759677,-0.6808500488587909,1.4233136238005546,0.13574184,-0.867490455,0.471617445,-3.55558,-1.2971,4.16598,72.0
1774822062.1222444,2.6464462280273438e-05,2026-03-29T22:07:42.122,2026-03-29T18:07:42.122,-32135.219999999998,-49379.13,-84657.645,-50024.43,-14598.225,-19894.454999999998,5128.155,-58647.78,2.195431712381323,0.4964794704079953,-0.71538659669606,-2.266479847429117,-1.47237430775258,-0.3342236297159997,3.6449912176317945,2.5340838505243752,0.13574184,-0.867490455,0.471617445,-3.55558,-1.2971,4.16598,72.0
1774822062.132569,0.010324716567993164,2026-03-29T22:07:42.132,2026-03-29T18:07:42.132,-32140.71,-49379.22,-84657.555,-50020.515,-14593.769999999999,-19891.98,5129.19,-58656.645,2.6303200601226555,0.1045550223668831,-1.9486205637400538,-2.807232253447075,-1.004850525967756,-0.05356980262493439,6.143367394213996,2.5367429719241303,0.13574184,-0.867490455,0.471617445,-3.55558,-1.2971,4.16598,72.0
1774822062.132588,1.8835067749023438e-05,2026-03-29T22:07:42.132,2026-03-29T18:07:42.132,-32138.864999999998,-49379.715,-84658.545,-50021.369999999995,-14594.31,-19894.14,5129.01,-58654.845,1.8594647267359974,-0.2871438174175142,-2.173956486424216,-1.8717002300774213,0.037563875246785575,0.3302378990490875,5.693670152011857,1.4144971100120753,0.13574184,-0.867490455,0.471617445,-3.55558,-1.2971,4.16598,72.0
1774822062.132606,1.811981201171875e-05,2026-03-29T22:07:42.132,2026-03-29T18:07:42.132,-32138.594999999998,-49378.545,-84655.08,-50022.0,-14595.48,-19895.805,5124.825,-58655.88,0.23018852587679414,-0.4988386749092289,-1.2897327598167616,0.04336355442805033,1.1491180859552426,0.6207899190551696,2.5983022471908166,-0.3422120069533251,0.13574184,-0.867490455,0.471617445,-3.55558,-1.2971,4.16598,72.0
1774822062.132612,5.9604644775390625e-06,2026-03-29T22:07:42.132,2026-03-29T18:07:42.132,-32138.145,-49376.07,-84653.45999999999,-50020.83,-14595.57,-19896.84,5113.845,-58657.005,-1.5099260071830376,-0.4579348236027568,0.23582561546037506,1.9268823612518837,1.7469960076088116,0.6334367681750416,-1.6041368520612713,-1.9551706771909498,0.13574184,-0.867490455,0.471617445,-3.55558,-1.2971,4.16598,72.0
1774822062.1326196,7.62939453125e-06,2026-03-29T22:07:42.132,2026-03-29T18:07:42.132,-32136.75,-49376.205,-84654.45,-50015.79,-14593.23,-19897.469999999998,5104.845,-58655.295,-2.5620797018442616,-0.2249804577161111,1.605440397072022,2.779864165206304,1.4728914200376835,0.302019067197358,-4.906735438364239,-2.7096454895875968,0.13574184,-0.867490455,0.471617445,-3.55558,-1.2971,4.16598,72.0
1774822062.1326244,4.76837158203125e-06,2026-03-29T22:07:42.132,2026-03-29T18:07:42.132,-32137.379999999997,-49379.58,-84656.25,-50013.63,-14595.21,-19901.565,5096.295,-58653.27,-2.4480587584393807,0.05244889403142462,2.106426960343479,2.14078769909434,0.39893515435219257,-0.26195382767997677,-5.798370414296736,-2.275960115302124,0.13574184,-0.867490455,0.471617445,-3.55558,-1.2971,4.16598,72.0
1774822062.1360192,0.0033948421478271484,2026-03-29T22:07:42.136,2026-03-29T18:07:42.136,-32132.385,-49374.585,-84645.36,-50004.494999999995,-14585.894999999999,-19890.675,5116.635,-58644.945,-1.2295247865938461,0.22866756472810038,1.4837611864027274,0.33540081333470173,-0.9771345772188939,-0.7986987266012446,-3.9580104157103064,-0.8546395980384223,0.140075325,-0.87194601,0.47448609,-4.36436,-0.19838,6.11926,72.0
1774822062.13604,2.0742416381835938e-05,2026-03-29T22:07:42.136,2026-03-29T18:07:42.136,-32138.145,-49376.655,-84649.59,-50021.505,-14596.83,-19892.925,5144.085,-58647.24,0.526572695147186,0.2397462422819722,0.07654097975116275,-1.6839747251638464,-1.9600797731754216,-1.016164321561749,-0.35874450855055057,0.9190910201438995,0.140075325,-0.87194601,0.47448609,-4.36436,-0.19838,6.11926,72.0
1774822062.141337,0.005296945571899414,2026-03-29T22:07:42.141,2026-03-29T18:07:42.141,-32138.504999999997,-49378.59,-84664.53,-50033.744999999995,-14601.644999999999,-19896.524999999998,5144.58,-58653.585,2.016743187544556,0.12945935569330405,-1.3575764924424816,-2.83225499432519,-2.0050898410367273,-0.7425413919741304,3.2447231776088548,2.2646816700634655,0.140075325,-0.87194601,0.47448609,-4.36436,-0.19838,6.11926,72.0
1774822062.1413507,1.3828277587890625e-05,2026-03-29T22:07:42.141,2026-03-29T18:07:42.141,-32132.52,-49379.31,-84668.76,-50033.52,-14602.904999999999,-19899.719999999998,5137.5599999999995,-58648.14,2.5743543603511467,0.00891704428984508,-2.042346003451505,-2.465408158163543,-1.0125375019844733,-0.03781283956393897,5.175860099424004,2.6052519159745198,0.140075325,-0.87194601,0.47448609,-4.36436,-0.19838,6.11926,72.0
1774822062.1447637,0.003412961959838867,2026-03-29T22:07:42.144,2026-03-29T18:07:42.144,-32129.504999999997,-49381.47,-84672.54,-50029.875,-14600.925,-19899.719999999998,5127.345,-58645.439999999995,1.9716905346820959,-0.023149331779726848,-1.599098269911779,-0.7341594544746459,0.5873042137495682,0.8019026881988615,4.619861250929683,1.817831419819991,0.140075325,-0.87194601,0.47448609,-4.36436,-0.19838,6.11926,72.0
1774822062.1447897,2.5987625122070312e-05,2026-03-29T22:07:42.144,2026-03-29T18:07:42.144,-32128.199999999997,-49375.935,-84661.47,-50017.68,-14591.519999999999,-19892.114999999998,5126.355,-58646.07,0.5121846053912757,0.05098676922317233,-0.25757979598514946,1.4737449121452761,2.017779474803933,1.3648043775683567,1.9629481371286324,0.2751927879241646,0.140075325,-0.87194601,0.47448609,-4.36436,-0.19838,6.11926,72.0
1774822062.1599123,0.015122652053833008,2026-03-29T22:07:42.159,2026-03-29T18:07:42.159,-32143.004999999997,-49366.979999999996,-84642.25499999999,-50008.634999999995,-14581.574999999999,-19879.38,5134.41,-58666.409999999996,-1.1239950772780205,0.15448616328291392,1.2560719925662542,2.9829058933960644,2.5307965703278814,1.3218215905329602,-1.4513431277470914,-1.3332335147978398,0.140075325,-0.87194601,0.47448609,-4.36436,-0.19838,6.11926,72.0
1774822062.159941,2.86102294921875e-05,2026-03-29T22:07:42.159,2026-03-29T18:07:42.159,-32141.745,-49367.924999999996,-84648.59999999999,-50015.159999999996,-14584.41,-19881.09,5134.7699999999995,-58663.259999999995,-2.2018198577811963,0.16811249726402744,2.1023723885817938,2.9457039803826213,1.7927894962600013,0.6086874091091792,-4.003075432511942,-2.314206908754467,0.140075325,-0.87194601,0.47448609,-4.36436,-0.19838,6.11926,72.0
1774822062.1599703,2.9325485229492188e-05,2026-03-29T22:07:42.159,2026-03-29T18:07:42.159,-32136.885,-49370.625,-84653.64,-50017.5,-14586.75,-19884.735,5130.72,-58658.715,-2.2663860629683255,0.01758675340409868,1.784060234490522,1.3051212694572045,0.08435600502508658,-0.5057556043299526,-4.568043928508943,-2.2733751394791497,0.140075325,-0.87194601,0.47448609,-4.36436,-0.19838,6.11926,72.0
1774822062.1599824,1.2159347534179688e-05,2026-03-29T22:07:42.159,2026-03-29T18:07:42.159,-32135.489999999998,-49372.74,-84656.565,-50017.77,-14588.955,-19888.649999999998,5128.785,-58658.354999999996,-1.3363441065840649,-0.2590748024527845,0.430617092029633,-1.1430203426873131,-1.800367962539509,-1.5145439837655268,-3.011269109813389,-1.274147163234797,0.140075325,-0.87194601,0.47448609,-4.36436,-0.19838,6.11926,72.0
1774822062.1599972,1.4781951904296875e-05,2026-03-29T22:07:42.159,2026-03-29T18:07:42.159,-32137.649999999998,-49378.095,-84663.27,-50025.195,-14598.0,-19897.11,5124.014999999999,-58660.02,0.1269779736376476,-0.5116445317850024,-1.2480412210477652,-3.1345333810080427,-2.9220226057404473,-1.9011278962150389,-0.18621252218947268,0.21112773315927882,0.143615355,-0.8760963900000001,0.475645755,-5.73776,-0.57988,7.35532,72.0
1774822062.160008,1.0728836059570312e-05,2026-03-29T22:07:42.160,2026-03-29T18:07:42.160,-32133.914999999997,-49376.835,-84664.44,-50031.27,-14602.32,-19899.0,5125.005,-58656.96,1.4500450322098866,-0.554741705057248,-2.326162093525409,-3.582594104503696,-2.6613091415258423,-1.3992916813699228,2.528027824007457,1.5263006670886476,0.143615355,-0.8760963900000001,0.475645755,-5.73776,-0.57988,7.35532,72.0
1774822062.1673765,0.007368564605712891,2026-03-29T22:07:42.167,2026-03-29T18:07:42.167,-32130.539999999997,-49369.545,-84657.23999999999,-50023.08,-14593.68,-19890.989999999998,5129.37,-58654.53,2.0614372097923117,-0.28392517442771215,-2.1605961881740314,-2.157190783307334,-1.0515904127876925,-0.15519142343304304,3.9025268773060513,2.124881827409036,0.143615355,-0.8760963900000001,0.475645755,-5.73776,-0.57988,7.35532,72.0
1774822062.1674068,3.0279159545898438e-05,2026-03-29T22:07:42.167,2026-03-29T18:07:42.167,-32136.12,-49368.24,-84650.94,-50013.494999999995,-14585.085,-19884.465,5134.41,-58659.03,1.741606208397079,0.23654859565519304,-0.7590036321591471,0.5058704387075917,1.1965854009875763,1.3010580688947517,3.414811722950714,1.7992567381347104,0.143615355,-0.8760963900000001,0.475645755,-5.73776,-0.57988,7.35532,72.0
1774822062.1674273,2.0503997802734375e-05,2026-03-29T22:07:42.167,2026-03-29T18:07:42.167,-32139.27,-49373.955,-84658.455,-50017.365,-14588.369999999999,-19887.3,5139.72,-58658.67,0.6977382636957578,0.7736712226883765,1.18751371625879,3.0892034881124117,3.008800333787647,2.27916093937618,1.4338901072952717,0.7488623712487752,0.143615355,-0.8760963900000001,0.475645755,-5.73776,-0.57988,7.35532,72.0
1774822062.167436,8.58306884765625e-06,2026-03-29T22:07:42.167,2026-03-29T18:07:42.167,-32142.914999999997,-49381.83,-84668.625,-50018.895,-14590.439999999999,-19891.26,5130.495,-58661.64,-0.5593450981190663,1.0281417819013272,2.6414469914101666,4.243732493180787,3.459732932020256,2.2543534870386965,-1.0230224940966668,-0.5327147795293073,0.143615355,-0.8760963900000001,0.475645755,-5.73776,-0.57988,7.35532,72.0
1774822062.1674533,1.7404556274414062e-05,2026-03-29T22:07:42.167,2026-03-29T18:07:42.167,-32149.17,-49387.725,-84674.06999999999,-50021.595,-14593.68,-19894.005,5119.11,-58667.13,-1.4665492656495005,0.7952897612108982,2.762668819481582,3.2838828314211606,2.240692675666677,1.1417704630664745,-2.8125488609631755,-1.4906416882576308,0.143615355,-0.8760963900000001,0.475645755,-5.73776,-0.57988,7.35532,72.0
1774822062.1674616,8.344650268554688e-06,2026-03-29T22:07:42.167,2026-03-29T18:07:42.167,-32145.39,-49377.555,-84661.605,-50029.2,-14597.189999999999,-19893.149999999998,5120.505,-58665.24,-1.6639790491484179,0.09992387245116464,1.377221382619584,0.5730011779902843,-0.15289766741173128,-0.6215962417276144,-3.1980097495982864,-1.7516604362159702,0.143615355,-0.8760963900000001,0.475645755,-5.73776,-0.57988,7.35532,72.0
1774822062.172328,0.004866361618041992,2026-03-29T22:07:42.172,2026-03-29T18:07:42.172,-32141.204999999998,-49372.2,-84660.12,-50033.97,-14603.265,-19897.559999999998,5121.405,-58664.384999999995,-1.1373895822246711,-0.7762046266961229,-0.8846630164021166,-2.610474656290626,-2.6209749749795614,-2.244446486690552,-2.1443457794590453,-1.269748643760966,0.143615355,-0.8760963900000001,0.475645755,-5.73776,-0.57988,7.35532,72.0
1774822062.1723466,1.8596649169921875e-05,2026-03-29T22:07:42.172,2026-03-29T18:07:42.172,-32138.954999999998,-49372.244999999995,-84659.67,-50024.295,-14595.84,-19892.745,5126.264999999999,-58664.025,-0.19164823408307155,-1.4057072911246393,-2.873635165865348,-4.678644567790113,-3.9657800021027927,-2.9362045389758666,-0.2619062527713137,-0.3179342025906503,0.143615355,-0.8760963900000001,0.475645755,-5.73776,-0.57988,7.35532,72.0
1774822062.1788085,0.0064618587493896484,2026-03-29T22:07:42.178,2026-03-29T18:07:42.178,-32139.629999999997,-49374.405,-84662.37,-50024.7,-14596.154999999999,-19894.005,5129.865,-58664.115,0.717955920220327,-1.423435385070924,-3.5013076759173027,-4.523099019273573,-3.4717183328132992,-2.2901183194152845,1.538016488638321,0.6582019178449527,0.147277455,-0.879087105,0.472471935,-5.29522,-2.60946,6.6381,72.0
1774822062.1788344,2.5987625122070312e-05,2026-03-29T22:07:42.178,2026-03-29T18:07:42.178,-32139.09,-49375.17,-84662.415,-50023.17,-14595.795,-19893.87,5129.37,-58661.729999999996,1.2058905817283965,-0.7300327946416229,-2.3239173190132205,-2.0959778239840845,-1.2776186260260198,-0.5093298220493009,2.4849370841893106,1.2495210879150007,0.147277455,-0.879087105,0.472471935,-5.29522,-2.60946,6.6381,72.0
1774822062.1819751,0.003140687942504883,2026-03-29T22:07:42.181,2026-03-29T18:07:42.181,-32136.39,-49373.955,-84661.02,-50022.36,-14594.984999999999,-19893.465,5128.785,-58657.454999999994,1.1213305233428423,0.4195360332470393,0.17922156207006945,1.5169318714646134,1.6492951102220392,1.6455204247176405,2.273697972161125,1.256940940776613,0.147277455,-0.879087105,0.472471935,-5.29522,-2.60946,6.6381,72.0
1774822062.1820087,3.361701965332031e-05,2026-03-29T22:07:42.182,2026-03-29T18:07:42.182,-32139.989999999998,-49374.99,-84658.815,-50023.935,-14596.92,-19892.655,5124.33,-58659.075,0.5868572259709445,1.5037469409036475,2.7967612769967896,4.586623704281685,3.9419355440865456,3.1811200840307197,1.1380968269342335,0.7553451502686601,0.147277455,-0.879087105,0.472471935,-5.29522,-2.60946,6.6381,72.0
1774822062.1869812,0.0049724578857421875,2026-03-29T22:07:42.186,2026-03-29T18:07:42.186,-32143.68,-49373.595,-84652.155,-50017.455,-14591.789999999999,-19888.739999999998,5119.2,-58663.439999999995,-0.09377298547830701,1.9721644353438947,4.172188867289826,5.570883664921401,4.473283797482048,3.3299919839764414,-0.3258905918757906,0.028961117448529337,0.147277455,-0.879087105,0.472471935,-5.29522,-2.60946,6.6381,72.0
1774822062.1870017,2.0503997802734375e-05,2026-03-29T22:07:42.187,2026-03-29T18:07:42.187,-32145.12,-49377.42,-84658.77,-50022.18,-14595.074999999999,-19892.835,5120.91,-58663.755,-0.6007647977182531,1.5242819789515332,3.5017785973209654,3.8839416837189016,2.9072221002142324,1.9305416406084144,-1.4706569898214092,-0.5805595554564524,0.147277455,-0.879087105,0.472471935,-5.29522,-2.60946,6.6381,72.0
1774822062.1882288,0.0012271404266357422,2026-03-29T22:07:42.188,2026-03-29T18:07:42.188,-32146.289999999997,-49383.045,-84666.465,-50021.549999999996,-14595.255,-19898.505,5121.9,-58666.454999999994,-0.7491904159769807,0.28842380306297644,0.9862098365652752,0.2233585721933293,-0.10794332241255554,-0.45840604620580155,-1.8802834981600967,-0.8353417153747403,0.147277455,-0.879087105,0.472471935,-5.29522,-2.60946,6.6381,72.0
1774822062.18825,2.1219253540039062e-05,2026-03-29T22:07:42.188,2026-03-29T18:07:42.188,-32151.555,-49388.13,-84671.86499999999,-50021.775,-14597.279999999999,-19902.555,5119.74,-58672.17,-0.5544238059938454,-1.2014234194079143,-2.2117538930142375,-3.7212446118301847,-3.208886165375102,-2.7788278513719153,-1.50445283915163,-0.6958228880210678,0.147277455,-0.879087105,0.472471935,-5.29522,-2.60946,6.6381,72.0
1774822062.1923735,0.0041234493255615234,2026-03-29T22:07:42.192,2026-03-29T18:07:42.192,-32151.914999999997,-49384.305,-84665.87999999999,-50029.92,-14600.07,-19898.864999999998,5121.495,-58671.225,-0.19028105362095898,-2.2371554365276114,-4.507736622705258,-6.054323969655146,-4.936925999105603,-3.94385001169681,-0.611277937048316,-0.3103236027007193,0.147277455,-0.879087105,0.472471935,-5.29522,-2.60946,6.6381,72.0
1774822062.192452,7.843971252441406e-05,2026-03-29T22:07:42.192,2026-03-29T18:07:42.192,-32146.695,-49377.509999999995,-84662.09999999999,-50033.07,-14601.644999999999,-19896.795,5124.33,-58667.534999999996,0.12614796226289818,-2.275834354393195,-4.681815685637908,-5.5865987710433185,-4.424599484057474,-3.347185003900294,0.3832214545028204,0.08520613581650986,0.147277455,-0.879087105,0.472471935,-5.29522,-2.60946,6.6381,72.0
1774822062.2074287,0.014976739883422852,2026-03-29T22:07:42.207,2026-03-29T18:07:42.207,-32152.995,-49388.31,-84674.745,-50025.78,-14596.515,-19896.84,5122.304999999999,-58670.82,0.25518599744336423,-1.222903347958911,-2.5194619874725097,-2.433456601786812,-1.8255522719727355,-1.172509699362073,1.1069876339327425,0.2992604069932267,0.15454062,-0.88647234,0.469298115,-3.7386999999999997,-3.44876,9.11022,72.0
1774822062.2074485,1.9788742065429688e-05,2026-03-29T22:07:42.207,2026-03-29T18:07:42.207,-32153.039999999997,-49390.65,-84673.665,-50016.689999999995,-14589.314999999999,-19895.265,5113.304999999999,-58669.829999999994,0.19662612719619374,0.48799500362852327,1.0268960925900272,1.998686410105326,1.7232570596242052,1.6529535252061458,1.3576412881380449,0.27870720819841177,0.15454062,-0.88647234,0.469298115,-3.7386999999999997,-3.44876,9.11022,72.0
1774822062.2074635,1.5020370483398438e-05,2026-03-29T22:07:42.207,2026-03-29T18:07:42.207,-32141.789999999997,-49371.884999999995,-84650.04,-50008.005,-14586.345,-19893.059999999998,5108.3099999999995,-58663.259999999995,0.0656661836232817,2.072898179624866,4.259994160817192,5.647150077106747,4.602666351372282,3.855335883881765,1.1284293868563378,0.11828267124880701,0.15454062,-0.88647234,0.469298115,-3.7386999999999997,-3.44876,9.11022,72.0
1774822062.2074685,5.0067901611328125e-06,2026-03-29T22:07:42.207,2026-03-29T18:07:42.207,-32139.27,-49367.79,-84649.72499999999,-50014.979999999996,-14590.664999999999,-19892.745,5113.755,-58662.18,0.0038911327037590444,2.7607024674364604,5.555354212469314,6.758780543525303,5.452956246763803,4.390800730352517,0.5572046316448547,-0.014189297194922039,0.15454062,-0.88647234,0.469298115,-3.7386999999999997,-3.44876,9.11022,72.0
1774822062.2074742,5.7220458984375e-06,2026-03-29T22:07:42.207,2026-03-29T18:07:42.207,-32138.37,-49368.24,-84648.465,-50017.994999999995,-14588.46,-19881.855,5138.505,-58659.479999999996,0.08105704032412786,2.1716103988683715,4.178072548228028,4.731815415600689,3.8148805846186535,2.9397606137683616,-0.15090344882188025,0.008550966928836784,0.15454062,-0.88647234,0.469298115,-3.7386999999999997,-3.44876,9.11022,72.0
1774822062.207478,3.814697265625e-06,2026-03-29T22:07:42.207,2026-03-29T18:07:42.207,-32143.05,-49374.765,-84660.75,-50030.369999999995,-14598.494999999999,-19888.335,5140.53,-58663.665,0.24624223546619103,0.5235895617937736,0.6875460517524458,0.4296247118926764,0.3681979096544895,0.08469308245974322,-0.7856688126393448,0.18680877637343662,0.15454062,-0.88647234,0.469298115,-3.7386999999999997,-3.44876,9.11022,72.0
1774822062.2136629,0.006184816360473633,2026-03-29T22:07:42.213,2026-03-29T18:07:42.213,-32142.015,-49373.865,-84658.905,-50026.095,-14597.144999999999,-19891.215,5125.1849999999995,-58665.104999999996,0.3574472943213488,-1.4442790549222582,-3.288568665039471,-4.193021359507456,-3.35284436962166,-2.9233040320573056,-1.1680547325480248,0.3861671550447533,0.15454062,-0.88647234,0.469298115,-3.7386999999999997,-3.44876,9.11022,72.0
1774822062.213695,3.218650817871094e-05,2026-03-29T22:07:42.213,2026-03-29T18:07:42.213,-32140.664999999997,-49371.705,-84649.815,-50016.33,-14590.89,-19887.39,5125.41,-58662.854999999996,0.27337554675836095,-2.807108296633396,-5.820619164713534,-6.986305822417002,-5.64662427471421,-4.715781608178031,-1.1756496830676828,0.4165092155953875,0.15454062,-0.88647234,0.469298115,-3.7386999999999997,-3.44876,9.11022,72.0
1774822062.2137225,2.7418136596679688e-05,2026-03-29T22:07:42.213,2026-03-29T18:07:42.213,-32144.715,-49379.265,-84663.09,-50025.015,-14594.445,-19889.73,5138.55,-58666.77,-0.045503413675349595,-2.8942982765608565,-5.619404266494812,-6.609566463045375,-5.4241708465447305,-4.4316833822007435,-0.7744332503587923,0.15648438315417598,0.15454062,-0.88647234,0.469298115,-3.7386999999999997,-3.44876,9.11022,72.0
1774822062.2137356,1.3113021850585938e-05,2026-03-29T22:07:42.213,2026-03-29T18:07:42.213,-32149.35,-49387.68,-84676.905,-50028.299999999996,-14596.875,-19892.295,5136.84,-58669.695,-0.48746330318264924,-1.6225278338402835,-2.6917115900978286,-3.1723048607676896,-2.7236843303328446,-2.1293036680471977,-0.053536287389793255,-0.34738783068791423,0.15454062,-0.88647234,0.469298115,-3.7386999999999997,-3.44876,9.11022,72.0
1774822062.216185,0.002449512481689453,2026-03-29T22:07:42.216,2026-03-29T18:07:42.216,-32142.6,-49379.715,-84659.84999999999,-50011.695,-14585.49,-19882.53,5128.785,-58659.615,-0.8267585576831944,0.4451132051358918,1.6243331582424652,1.793485695991431,1.2825319631556622,1.2110561669303292,0.7645060270369309,-0.8699449714127316,0.16137654,-0.8876320050000001,0.47009157,-1.38866,-4.6543,10.78882,72.0
1774822062.2162168,3.170967102050781e-05,2026-03-29T22:07:42.216,2026-03-29T18:07:42.216,-32143.77,-49373.909999999996,-84646.75499999999,-50013.945,-14588.279999999999,-19884.375,5124.87,-58662.27,-0.83606983031127,2.3513065722081508,5.2780078848933245,6.024460152183045,4.801033534042933,4.106965965203825,1.3702622737065686,-1.1041837117521505,0.16137654,-0.8876320050000001,0.47009157,-1.38866,-4.6543,10.78882,72.0
1774822062.2212036,0.004986763000488281,2026-03-29T22:07:42.221,2026-03-29T18:07:42.221,-32139.719999999998,-49367.07,-84643.29,-50017.095,-14588.865,-19885.274999999998,5124.915,-58663.485,-0.41911804456140656,3.193762492211456,6.489482353059983,7.564889562812377,6.223732122402025,5.235261268573195,1.4780404953705393,-0.825900917291821,0.16137654,-0.8876320050000001,0.47009157,-1.38866,-4.6543,10.78882,72.0
1774822062.2212265,2.288818359375e-05,2026-03-29T22:07:42.221,2026-03-29T18:07:42.221,-32135.94,-49369.049999999996,-84653.28,-50021.64,-14591.34,-19888.155,5132.025,-58660.965,0.30851130166913987,2.557949101456803,4.622232128844123,5.673308215033179,4.86369506452832,4.03829231009356,0.9648611482563723,-0.042745945629281065,0.16137654,-0.8876320050000001,0.47009157,-1.38866,-4.6543,10.78882,72.0
1774822062.228129,0.006902456283569336,2026-03-29T22:07:42.228,2026-03-29T18:07:42.228,-32139.855,-49380.479999999996,-84670.65,-50033.384999999995,-14601.734999999999,-19898.325,5137.47,-58660.695,1.0418972788873508,0.7231609014996271,0.5141860505849393,1.1754753770364947,1.283291522060262,0.9964954119847118,-0.0319401248897056,0.958878530065002,0.16137654,-0.8876320050000001,0.47009157,-1.38866,-4.6543,10.78882,72.0
1774822062.2281497,2.0742416381835938e-05,2026-03-29T22:07:42.228,2026-03-29T18:07:42.228,-32137.649999999998,-49382.549999999996,-84672.98999999999,-50034.689999999995,-14604.119999999999,-19899.899999999998,5130.945,-58657.185,1.414545749589749,-1.4614987150153413,-3.903605839016397,-3.9027035665026437,-2.940627933210273,-2.564818368973476,-1.1261381032846318,1.7119755373187084,0.16137654,-0.8876320050000001,0.47009157,-1.38866,-4.6543,10.78882,72.0
1774822062.228164,1.430511474609375e-05,2026-03-29T22:07:42.228,2026-03-29T18:07:42.228,-32134.32,-49377.915,-84669.97499999999,-50037.435,-14602.949999999999,-19896.795,5126.264999999999,-58656.825,1.1778805118268465,-2.975563051169407,-6.524814321925103,-7.2559950519912535,-5.915313400256334,-5.056546590105372,-1.8250014807536805,1.7825680929084826,0.16137654,-0.8876320050000001,0.47009157,-1.38866,-4.6543,10.78882,72.0
1774822062.2281697,5.7220458984375e-06,2026-03-29T22:07:42.228,2026-03-29T18:07:42.228,-32138.414999999997,-49372.2,-84659.31,-50031.765,-14597.01,-19889.64,5129.595,-58666.32,0.3459575017616655,-3.110569822358219,-6.081334561470396,-7.352238255003866,-6.283238714252817,-5.338369544160572,-1.7544365841086007,1.0029382306345844,0.16137654,-0.8876320050000001,0.47009157,-1.38866,-4.6543,10.78882,72.0
1774822062.233296,0.005126237869262695,2026-03-29T22:07:42.233,2026-03-29T18:07:42.233,-32139.09,-49372.92,-84658.455,-50028.345,-14594.939999999999,-19886.805,5130.945,-58665.555,-0.7729868391439889,-1.8062900349040447,-2.7605449141714336,-4.133424979014495,-3.8418958741237135,-3.2417873017130443,-0.8622221021441225,-0.3955047772460287,0.16137654,-0.8876320050000001,0.47009157,-1.38866,-4.6543,10.78882,72.0
1774822062.23331,1.4066696166992188e-05,2026-03-29T22:07:42.233,2026-03-29T18:07:42.233,-32146.785,-49372.83,-84650.355,-50019.03,-14583.644999999999,-19875.87,5136.75,-58672.845,-1.6878624263349753,0.32195701077074484,1.8759519269237148,0.955623780149069,0.350726644509584,0.336795963142614,0.5121725729433367,-1.8340204630251509,0.16137654,-0.8876320050000001,0.47009157,-1.38866,-4.6543,10.78882,72.0
1774822062.237762,0.0044519901275634766,2026-03-29T22:07:42.237,2026-03-29T18:07:42.237,-32153.129999999997,-49378.77,-84659.805,-50024.835,-14586.345,-19879.245,5137.695,-58681.485,-1.9402589912826045,2.2775297357833173,5.63584593493887,5.62317158039593,4.437953132766899,3.8220330997871277,1.757973098344303,-2.6230813841819223,0.162658275,-0.876767775,0.46838259,-5.84458,-4.7306,11.04824,72.0
1774822062.237793,3.0994415283203125e-05,2026-03-29T22:07:42.237,2026-03-29T18:07:42.237,-32143.995,-49374.36,-84657.23999999999,-50023.619999999995,-14590.664999999999,-19884.42,5134.905,-58672.439999999995,-1.3297276009296544,3.155745148273179,6.743762838141694,7.770100106539528,6.590577654211876,5.657298610004505,2.2663797968854724,-2.2888316397717268,0.162658275,-0.876767775,0.46838259,-5.84458,-4.7306,11.04824,72.0
1774822062.2409341,0.003141164779663086,2026-03-29T22:07:42.240,2026-03-29T18:07:42.240,-32143.094999999998,-49373.505,-84659.175,-50022.674999999996,-14590.26,-19886.265,5133.105,-58670.415,-0.03981808167443293,2.568431436070826,4.687374723002196,6.438407080778094,5.828242583868755,5.0033302164992755,1.7333599518040217,-0.836585594656339,0.162658275,-0.876767775,0.46838259,-5.84458,-4.7306,11.04824,72.0
1774822062.2409573,2.3126602172851562e-05,2026-03-29T22:07:42.240,2026-03-29T18:07:42.240,-32146.469999999998,-49377.689999999995,-84661.965,-50024.924999999996,-14590.845,-19886.085,5127.389999999999,-58671.314999999995,1.4066391239242162,0.8176944103283628,0.4551300877794488,2.23832502208659,2.466192339620967,2.122849429221675,0.3388630043514433,1.1887132272484178,0.162658275,-0.876767775,0.46838259,-5.84458,-4.7306,11.04824,72.0
1774822062.245878,0.0049207210540771484,2026-03-29T22:07:42.245,2026-03-29T18:07:42.245,-32149.574999999997,-49380.93,-84666.555,-50029.244999999995,-14592.465,-19886.085,5117.04,-58677.615,2.358767656640203,-1.2599555331687782,-3.9451384961112512,-2.9360647158434188,-2.016295006840231,-1.7254990237167909,-1.3017748959995308,2.900028285118542,0.162658275,-0.876767775,0.46838259,-5.84458,-4.7306,11.04824,72.0
1774822062.2459075,2.956390380859375e-05,2026-03-29T22:07:42.245,2026-03-29T18:07:42.245,-32150.295,-49383.18,-84671.91,-50032.395,-14595.255,-19890.18,5112.495,-58680.045,2.330587552593871,-2.698462903859683,-6.449551830474313,-6.76821622764326,-5.630444037652409,-4.840895167784314,-2.4097040451093994,3.456364562341969,0.162658275,-0.876767775,0.46838259,-5.84458,-4.7306,11.04824,72.0
1774822062.2481883,0.002280712127685547,2026-03-29T22:07:42.248,2026-03-29T18:07:42.248,-32145.57,-49379.174999999996,-84669.525,-50030.28,-14593.23,-19889.28,5115.0599999999995,-58677.345,1.2439633216330837,-2.8577537732071416,-5.916398872492501,-7.56277448133973,-6.764508366405697,-5.836607311481099,-2.4172436758818394,2.472123365796733,0.162658275,-0.876767775,0.46838259,-5.84458,-4.7306,11.04824,72.0
1774822062.2482193,3.0994415283203125e-05,2026-03-29T22:07:42.248,2026-03-29T18:07:42.248,-32137.785,-49369.5,-84656.295,-50022.674999999996,-14588.865,-19883.204999999998,5130.8099999999995,-58669.335,-0.49799001840302987,-1.7121708540409102,-2.6509059179150642,-4.998639150483066,-4.905501480667007,-4.260582471313979,-1.2626300447112904,0.24986186408284317,0.162658275,-0.876767775,0.46838259,-5.84458,-4.7306,11.04824,72.0
1774822062.2525897,0.004370450973510742,2026-03-29T22:07:42.252,2026-03-29T18:07:42.252,-32140.44,-49372.47,-84660.84,-50026.86,-14591.43,-19883.07,5143.41,-58669.244999999995,-2.1563611426700766,0.1599079207431435,1.766665770775922,-0.25573991316037414,-0.8717050803189563,-0.8011744430687417,0.5498046512565548,-2.2947470937255408,0.162658275,-0.876767775,0.46838259,-5.84458,-4.7306,11.04824,72.0
1774822062.2526107,2.09808349609375e-05,2026-03-29T22:07:42.252,2026-03-29T18:07:42.252,-32139.315,-49371.479999999996,-84661.245,-50023.71,-14584.635,-19875.375,5152.455,-58670.055,-2.9706397117359176,1.8699603909408873,5.254030289742679,4.532914721989939,3.5497750277490003,3.0159462126817274,2.168771021717306,-4.009249279589861,0.162658275,-0.876767775,0.46838259,-5.84458,-4.7306,11.04824,72.0
1774822062.256518,0.003907203674316406,2026-03-29T22:07:42.256,2026-03-29T18:07:42.256,-32135.85,-49366.89,-84655.44,-50013.99,-14577.48,-19872.315,5149.304999999999,-58670.145,-2.5079634209744124,2.646508422036314,6.219208141432563,7.2474722632313355,6.3991322374189945,5.505314282054556,2.799681632339341,-4.028266331257637,0.1611324,-0.86779563,0.46411014,-9.766399999999999,-5.82932,12.31482,72.0
1774822062.2565408,2.288818359375e-05,2026-03-29T22:07:42.256,2026-03-29T18:07:42.256,-32134.995,-49366.755,-84654.72,-50005.755,-14571.675,-19870.92,5140.575,-58671.405,-0.8869310860645637,2.1876658728516576,4.2943294684450635,6.725194803604282,6.417320592682513,5.57080659325302,2.09937858800712,-2.20599723077272,0.1611324,-0.86779563,0.46411014,-9.766399999999999,-5.82932,12.31482,72.0
1774822062.2606802,0.004139423370361328,2026-03-29T22:07:42.260,2026-03-29T18:07:42.260,-32136.48,-49373.729999999996,-84663.405,-50003.235,-14565.824999999999,-19867.274999999998,5132.745,-58670.82,1.2375715476863298,0.7757771101095762,0.4693492590898631,3.2594831437343275,3.6055437684874585,3.1912714319401365,0.3636274908597346,0.7574142710853187,0.1611324,-0.86779563,0.46411014,-9.766399999999999,-5.82932,12.31482,72.0
1774822062.2607162,3.600120544433594e-05,2026-03-29T22:07:42.260,2026-03-29T18:07:42.260,-32143.274999999998,-49382.46,-84669.12,-50013.854999999996,-14576.939999999999,-19878.12,5126.58,-58672.845,2.938314905563706,-0.8878080702125859,-3.4190506952159985,-1.5605867193288014,-0.7793617571283984,-0.5739253603069193,-1.5951210447434618,3.5800832174936117,0.1611324,-0.86779563,0.46411014,-9.766399999999999,-5.82932,12.31482,72.0
1774822062.2670057,0.006289482116699219,2026-03-29T22:07:42.267,2026-03-29T18:07:42.267,-32132.385,-49373.1,-84659.985,-50028.884999999995,-14591.295,-19884.6,5138.1449999999995,-58660.515,3.4226586347260763,-2.034036060407304,-5.5787153577028,-5.584257557199485,-4.7900425110362725,-4.060197553499623,-2.8304637165390547,4.9564223172743,0.1611324,-0.86779563,0.46411014,-9.766399999999999,-5.82932,12.31482,72.0
1774822062.2670288,2.3126602172851562e-05,2026-03-29T22:07:42.267,2026-03-29T18:07:42.267,-32129.414999999997,-49378.95,-84681.18,-50055.479999999996,-14613.705,-19902.285,5123.835,-58656.689999999995,2.4030698907650274,-2.1861921700944213,-5.09673250847458,-7.065413129275069,-6.658934413824112,-5.739150913192348,-2.7235094765055177,4.164686552794586,0.1611324,-0.86779563,0.46411014,-9.766399999999999,-5.82932,12.31482,72.0
1774822062.2689652,0.0019364356994628906,2026-03-29T22:07:42.268,2026-03-29T18:07:42.268,-32145.254999999997,-49385.205,-84680.28,-50040.72,-14599.619999999999,-19893.645,5116.1849999999995,-58677.704999999994,0.25754916731971744,-1.3579558549754507,-2.3247379557599377,-5.424234990682326,-5.582487366586116,-4.893473221718019,-1.2959565869988234,1.439602095144453,0.1611324,-0.86779563,0.46411014,-9.766399999999999,-5.82932,12.31482,72.0
1774822062.2689874,2.2172927856445312e-05,2026-03-29T22:07:42.268,2026-03-29T18:07:42.268,-32153.76,-49378.229999999996,-84663.09,-50021.955,-14582.789999999999,-19880.46,5127.165,-58689.9,-2.106372412343467,-0.007337956294107501,1.3474138377836544,-1.4702251048682846,-2.0689471321183803,-1.9250400346364833,0.7848592941016835,-2.0804871829172633,0.1611324,-0.86779563,0.46411014,-9.766399999999999,-5.82932,12.31482,72.0
1774822062.272682,0.0036945343017578125,2026-03-29T22:07:42.272,2026-03-29T18:07:42.272,-32159.835,-49377.104999999996,-84653.055,-50015.159999999996,-14578.38,-19878.75,5122.575,-58697.865,-3.637620094239762,1.2130684091601618,4.193122808079968,2.997126197721459,2.30209499595591,1.8370046509981808,2.5191774963959794,-4.831729226971831,0.1611324,-0.86779563,0.46411014,-9.766399999999999,-5.82932,12.31482,72.0
1774822062.2727115,2.956390380859375e-05,2026-03-29T22:07:42.272,2026-03-29T18:07:42.272,-32150.204999999998,-49374.045,-84656.79,-50023.17,-14581.89,-19878.255,5129.775,-58689.314999999995,-3.612640907264521,1.7745846322496392,4.969583712474316,6.0131359280606125,5.594641489143674,4.736285820060148,3.058350350158086,-5.526373496732874,0.1611324,-0.86779563,0.46411014,-9.766399999999999,-5.82932,12.31482,72.0
1774822062.2897248,0.0170133113861084,2026-03-29T22:07:42.289,2026-03-29T18:07:42.289,-32147.19,-49374.72,-84662.145,-50029.155,-14584.5,-19877.445,5132.25,-58686.345,-1.9788474180656852,1.5027050727756248,3.463367109465206,6.317649019091941,6.380120959110875,5.524336675791849,2.123078492476538,-3.760035381141824,0.1574703,-0.86437767,0.462095985,-11.216099999999999,-7.15694,11.88754,72.0
1774822062.2897604,3.552436828613281e-05,2026-03-29T22:07:42.289,2026-03-29T18:07:42.289,-32147.324999999997,-49376.159999999996,-84660.885,-50024.025,-14580.18,-19874.88,5131.62,-58684.68,0.593352424611419,0.6182010990893104,0.5201719877018544,3.882123342348738,4.36177220086567,3.9018514246475338,0.14879118057679877,-0.23604846384580627,0.1574703,-0.86437767,0.462095985,-11.216099999999999,-7.15694,11.88754,72.0
1774822062.2897887,2.8371810913085938e-05,2026-03-29T22:07:42.289,2026-03-29T18:07:42.289,-32140.305,-49371.435,-84656.655,-50018.939999999995,-14575.545,-19870.155,5135.175,-58678.29,2.986324846161473,-0.4112210346846681,-2.421944254015587,-0.12663784945771228,0.48441141493481454,0.6295843982896279,-1.917615004755447,3.5141879338149296,0.1574703,-0.86437767,0.462095985,-11.216099999999999,-7.15694,11.88754,72.0
1774822062.2898004,1.1682510375976562e-05,2026-03-29T22:07:42.289,2026-03-29T18:07:42.289,-32138.1,-49371.39,-84659.84999999999,-50021.325,-14578.154999999999,-19874.024999999998,5140.125,-58674.915,4.12527472219676,-1.117224324767974,-4.041340876099707,-3.907409940595746,-3.50999434454677,-2.8308171556559056,-3.0742203868448934,5.804165177465051,0.1574703,-0.86437767,0.462095985,-11.216099999999999,-7.15694,11.88754,72.0
1774822062.2898152,1.4781951904296875e-05,2026-03-29T22:07:42.289,2026-03-29T18:07:42.289,-32141.655,-49374.945,-84666.06,-50030.595,-14584.59,-19880.37,5141.61,-58677.479999999996,3.4658212213319715,-1.2456354909055747,-3.7313931067238593,-5.839663982135105,-5.871066799003834,-4.975453506375892,-2.7522568596898376,5.559446093519058,0.1574703,-0.86437767,0.462095985,-11.216099999999999,-7.15694,11.88754,72.0
1774822062.2898269,1.1682510375976562e-05,2026-03-29T22:07:42.289,2026-03-29T18:07:42.289,-32144.039999999997,-49377.24,-84664.215,-50027.445,-14584.904999999999,-19884.555,5128.38,-58680.405,1.2557126559824854,-0.8402987472973025,-1.8153725399247844,-5.181383296096585,-5.6131495587265166,-4.916824620056095,-1.0968294893128463,2.8260272076419914,0.1574703,-0.86437767,0.462095985,-11.216099999999999,-7.15694,11.88754,72.0
1774822062.2898407,1.3828277587890625e-05,2026-03-29T22:07:42.289,2026-03-29T18:07:42.289,-32140.71,-49374.63,-84660.165,-50023.215,-14582.385,-19886.085,5120.505,-58679.505,-1.555960160025577,-0.17310863160839654,0.6910935596267959,-2.3475621130420676,-2.9283869677039718,-2.7515573875734494,1.0988318215494062,-1.2227791082503916,0.1574703,-0.86437767,0.462095985,-11.216099999999999,-7.15694,11.88754,72.0
1774822062.2898479,7.152557373046875e-06,2026-03-29T22:07:42.289,2026-03-29T18:07:42.289,-32142.735,-49373.055,-84656.47499999999,-50024.61,-14585.22,-19888.29,5118.974999999999,-58682.384999999995,-3.7302480657914585,0.42312002962723727,2.6165606192848694,1.3316863253002018,0.9343158750564137,0.5154650455594454,2.7753884725662017,-4.796322933174247,0.1574703,-0.86437767,0.462095985,-11.216099999999999,-7.15694,11.88754,72.0
1774822062.2976048,0.007756948471069336,2026-03-29T22:07:42.297,2026-03-29T18:07:42.297,-32143.86,-49373.28,-84659.22,-50023.53,-14580.404999999999,-19879.2,5128.425,-58683.375,-4.290467997343195,0.7209983276041112,3.1864708396694748,4.238721104214089,4.254210503984997,3.4413685785753705,3.12044136389585,-6.288945934698705,0.1574703,-0.86437767,0.462095985,-11.216099999999999,-7.15694,11.88754,72.0
1774822062.2976656,6.079673767089844e-05,2026-03-29T22:07:42.297,2026-03-29T18:07:42.297,-32144.309999999998,-49378.229999999996,-84666.78,-50025.015,-14578.875,-19873.755,5129.46,-58681.619999999995,-2.9661263788249745,0.680646979768884,2.328669441064387,5.184014017195836,5.611763086242384,4.788052052408045,1.9629008976453113,-5.010358080577316,0.1574703,-0.86437767,0.462095985,-11.216099999999999,-7.15694,11.88754,72.0
1774822062.2977035,3.790855407714844e-05,2026-03-29T22:07:42.297,2026-03-29T18:07:42.297,-32147.55,-49377.284999999996,-84664.17,-50021.145,-14575.095,-19871.37,5113.17,-58687.74,-0.32442095653275926,0.42062713054735656,0.6146079327886504,3.891112763500764,4.499420701610519,4.048409202441633,-0.1432547268208835,-1.507592239961289,0.153380955,-0.866758035,0.46191288,-9.75114,-8.881319999999999,9.980039999999999,72.0
1774822062.2977216,1.811981201171875e-05,2026-03-29T22:07:42.297,2026-03-29T18:07:42.297,-32140.574999999997,-49365.765,-84653.145,-50016.555,-14571.359999999999,-19869.21,5109.929999999999,-58685.354999999996,2.475177723283088,0.11451448996407287,-1.091669740357283,1.0541210427248402,1.5053316384946038,1.6311404324536778,-2.1862846348409533,2.6730836674342835,0.153380955,-0.866758035,0.46191288,-9.75114,-8.881319999999999,9.980039999999999,72.0
1774822062.3001206,0.002398967742919922,2026-03-29T22:07:42.300,2026-03-29T18:07:42.300,-32137.875,-49365.99,-84653.19,-50015.25,-14571.18,-19870.829999999998,5116.95,-58679.595,4.196073261943983,-0.11502127642367597,-2.07088524273681,-2.0277569121082712,-1.9932464040758915,-1.3597848608829641,-3.184776337185894,5.6788877633072845,0.153380955,-0.866758035,0.46191288,-9.75114,-8.881319999999999,9.980039999999999,72.0
1774822062.3001382,1.7642974853515625e-05,2026-03-29T22:07:42.300,2026-03-29T18:07:42.300,-32143.14,-49378.994999999995,-84668.715,-50029.604999999996,-14582.789999999999,-19879.739999999998,5133.375,-58678.515,4.077730603128141,-0.24298880724734695,-2.0498449572753543,-4.048706251763254,-4.468603942067234,-3.6338391673007875,-2.6597299607984537,6.1828657036309735,0.153380955,-0.866758035,0.46191288,-9.75114,-8.881319999999999,9.980039999999999,72.0
1774822062.3110387,0.010900497436523438,2026-03-29T22:07:42.311,2026-03-29T18:07:42.311,-32147.684999999998,-49387.455,-84680.73,-50044.275,-14595.57,-19889.594999999998,5150.115,-58679.954999999994,2.1761734392447267,-0.3131672235107864,-1.241429266464397,-4.250354971411856,-4.914651117083026,-4.27414543253338,-0.8629709825720984,3.9766237095600925,0.153380955,-0.866758035,0.46191288,-9.75114,-8.881319999999999,9.980039999999999,72.0
1774822062.31106,2.1219253540039062e-05,2026-03-29T22:07:42.311,2026-03-29T18:07:42.311,-32143.545,-49381.83,-84675.19499999999,-50040.27,-14593.994999999999,-19889.64,5132.88,-58678.424999999996,-0.6628152276178432,-0.367185171915749,-0.14669156766714966,-2.6958872910061826,-3.2542224996694435,-3.104255196681659,1.3464674426326964,0.05529215139407203,0.153380955,-0.866758035,0.46191288,-9.75114,-8.881319999999999,9.980039999999999,72.0
1774822062.3110857,2.574920654296875e-05,2026-03-29T22:07:42.311,2026-03-29T18:07:42.311,-32142.375,-49373.865,-84660.435,-50020.335,-14576.355,-19875.915,5125.95,-58680.494999999995,-3.18500284238469,-0.38964499749769343,0.7401509984205427,-0.1710413311805193,-0.31750248180785295,-0.7163314967800305,2.9158806467420035,-3.8393837593754907,0.153380955,-0.866758035,0.46191288,-9.75114,-8.881319999999999,9.980039999999999,72.0
1774822062.3110924,6.67572021484375e-06,2026-03-29T22:07:42.311,2026-03-29T18:07:42.311,-32149.754999999997,-49371.84,-84650.805,-50000.85,-14556.105,-19858.545,5139.45,-58693.14,-4.289352716300566,-0.3121619757513075,1.1554623494636398,2.2106105093263935,2.572695652312357,1.8280241820879175,3.10166119217357,-6.004407132688647,0.153380955,-0.866758035,0.46191288,-9.75114,-8.881319999999999,9.980039999999999,72.0
1774822062.3190253,0.007932901382446289,2026-03-29T22:07:42.319,2026-03-29T18:07:42.319,-32147.594999999998,-49372.784999999996,-84656.11499999999,-50005.305,-14558.894999999999,-19860.84,5151.51,-58687.244999999995,-3.5149883814868774,-0.07542590358545309,1.116879795540584,3.500458304229867,4.2014880450074505,3.4730792694792036,1.820300954527612,-5.5296996349169945,0.153380955,-0.866758035,0.46191288,-9.75114,-8.881319999999999,9.980039999999999,72.0
1774822062.3190477,2.2411346435546875e-05,2026-03-29T22:07:42.319,2026-03-29T18:07:42.319,-32149.035,-49382.189999999995,-84674.7,-50023.17,-14573.654999999999,-19873.62,5147.865,-58684.005,-1.235035389478463,0.2952801444526999,0.8123915697118115,3.286700180776562,3.9732510756966364,3.605821272372893,-0.31762392370621156,-2.6824822475523984,0.153380955,-0.866758035,0.46191288,-9.75114,-8.881319999999999,9.980039999999999,72.0
1774822062.3190691,2.1457672119140625e-05,2026-03-29T22:07:42.319,2026-03-29T18:07:42.319,-32147.504999999997,-49389.479999999996,-84676.095,-50021.64,-14575.545,-19877.625,5133.87,-58679.325,1.5250474249943833,0.66049979370871,0.4299845201057013,1.8027193287425558,2.1181341260884032,2.2742389800067575,-2.3023221091402273,1.2414212274826109,0.15112266,-0.86962668,0.463804965,-10.36154,-8.805019999999999,8.454039999999999,72.0
1774822062.3190792,1.0013580322265625e-05,2026-03-29T22:07:42.319,2026-03-29T18:07:42.319,-32131.664999999997,-49382.415,-84669.25499999999,-50020.38,-14580.314999999999,-19884.195,5111.01,-58662.945,3.5554672292090124,0.8171909767096658,0.04810567155426059,-0.24115082799576698,-0.47122157748693433,0.11533400840688703,-3.2041271472244843,4.5174630819944745,0.15112266,-0.86962668,0.463804965,-10.36154,-8.805019999999999,8.454039999999999,72.0
1774822062.3213537,0.0022745132446289062,2026-03-29T22:07:42.321,2026-03-29T18:07:42.321,-32118.704999999998,-49372.244999999995,-84663.9,-50025.869999999995,-14584.14,-19882.934999999998,5120.01,-58646.655,3.9997253271693216,0.6123360520056806,-0.35123203295120836,-1.997060495632575,-2.670761808105311,-1.9505995903875972,-2.608375866976757,5.76105087786803,0.15112266,-0.86962668,0.463804965,-10.36154,-8.805019999999999,8.454039999999999,72.0
1774822062.3213837,3.0040740966796875e-05,2026-03-29T22:07:42.321,2026-03-29T18:07:42.321,-32139.719999999998,-49378.59,-84669.75,-50024.88,-14577.705,-19877.219999999998,5131.8,-58674.015,2.719412000414924,0.056065911167492495,-0.7775602183538378,-2.8279763390839574,-3.614698819566895,-3.1119293747099697,-0.802447989674726,4.5172235221337536,0.15112266,-0.86962668,0.463804965,-10.36154,-8.805019999999999,8.454039999999999,72.0
1774822062.3243773,0.0029935836791992188,2026-03-29T22:07:42.324,2026-03-29T18:07:42.324,-32149.98,-49369.545,-84643.785,-50011.515,-14563.215,-19859.76,5138.37,-58688.145,0.32899426006963345,-0.6402420783281598,-1.1320983324968417,-2.5235473762474787,-3.0295302275514717,-2.977088078760774,1.3676760520694626,1.417963790824603,0.15112266,-0.86962668,0.463804965,-10.36154,-8.805019999999999,8.454039999999999,72.0
1774822062.324398,2.0742416381835938e-05,2026-03-29T22:07:42.324,2026-03-29T18:07:42.324,-32155.875,-49373.235,-84653.28,-50026.365,-14571.945,-19863.855,5138.6849999999995,-58696.02,-2.1026288311347088,-1.1403384007654,-1.206584541356227,-1.3195468926780392,-1.2873492556574218,-1.6902831235646947,2.89760666448241,-2.141785175093261,0.15112266,-0.86962668,0.463804965,-10.36154,-8.805019999999999,8.454039999999999,72.0
1774822062.3301167,0.005718708038330078,2026-03-29T22:07:42.330,2026-03-29T18:07:42.330,-32150.204999999998,-49380.705,-84670.245,-50029.92,-14575.949999999999,-19872.45,5134.139999999999,-58690.755,-3.5372970492376004,-1.1488247520084014,-0.804098557188691,0.2526324110397556,0.8127547495357142,0.17198001799211618,3.0901763848387156,-4.642122159057745,0.15112266,-0.86962668,0.463804965,-10.36154,-8.805019999999999,8.454039999999999,72.0
1774822062.3301394,2.2649765014648438e-05,2026-03-29T22:07:42.330,2026-03-29T18:07:42.330,-32141.969999999998,-49377.375,-84668.31,-50028.345,-14576.625,-19873.89,5133.33,-58682.159999999996,-3.4158433099273426,-0.5831689804713058,0.08722594850058042,1.5982314270325513,2.4122202266908994,1.858640303300406,1.8700874398393874,-5.093580335078334,0.15112266,-0.86962668,0.463804965,-10.36154,-8.805019999999999,8.454039999999999,72.0
1774822062.3365364,0.0063970088958740234,2026-03-29T22:07:42.336,2026-03-29T18:07:42.336,-32143.23,-49376.52,-84666.105,-50029.29,-14578.109999999999,-19875.915,5130.315,-58684.185,-1.8733609916459828,0.34680656390389597,1.1901372707498068,2.272583571193996,2.939740294465118,2.740964918061176,-0.1930247915520537,-3.4241222785677055,0.15112266,-0.86962668,0.463804965,-10.36154,-8.805019999999999,8.454039999999999,72.0
1774822062.3365662,2.9802322387695312e-05,2026-03-29T22:07:42.336,2026-03-29T18:07:42.336,-32143.635,-49369.68,-84653.50499999999,-50019.39,-14568.255,-19864.755,5134.86,-58686.03,0.35997690587794073,1.2104511791507282,2.0015175681984716,2.1060081002678728,2.29954357967665,2.534695759924399,-2.155752402285839,-0.4489888009126639,0.15112266,-0.86962668,0.463804965,-10.36154,-8.805019999999999,8.454039999999999,72.0
1774822062.350574,0.014007806777954102,2026-03-29T22:07:42.350,2026-03-29T18:07:42.350,-32142.6,-49368.869999999995,-84656.385,-50025.104999999996,-14573.34,-19868.579999999998,5133.87,-58684.77,2.309313166923177,1.5584877539985298,2.0254565914794003,1.2196703519785472,0.84896597112731,1.3764678217071513,-3.134746814868269,2.532618838364152,0.150939555,-0.87170187,0.468321555,-15.168439999999999,-7.84364,9.2323,72.0
1774822062.350603,2.9087066650390625e-05,2026-03-29T22:07:42.350,2026-03-29T18:07:42.350,-32138.504999999997,-49366.35,-84652.155,-50019.255,-14569.289999999999,-19866.015,5133.285,-58678.92,3.1863757740591505,1.1596763319018788,1.0665710594502211,-0.04679390962173108,-0.793635171057149,-0.2557648554064788,-2.702453391114618,4.312132628279038,0.150939555,-0.87170187,0.468321555,-15.168439999999999,-7.84364,9.2323,72.0
1774822062.3506296,2.6464462280273438e-05,2026-03-29T22:07:42.350,2026-03-29T18:07:42.350,-32137.605,-49367.115,-84653.19,-50018.895,-14570.955,-19867.77,5132.295,-58675.814999999995,2.7079863729117326,0.14620231157767324,-0.5858738697219348,-1.256368226126617,-2.0096652260622334,-1.7348160260923788,-1.0683270871907065,4.259808750714766,0.150939555,-0.87170187,0.468321555,-15.168439999999999,-7.84364,9.2323,72.0
1774822062.350642,1.239776611328125e-05,2026-03-29T22:07:42.350,2026-03-29T18:07:42.350,-32139.18,-49373.685,-84663.405,-50021.82,-14574.465,-19874.969999999998,5129.054999999999,-58678.38,1.1732214160204724,-1.020295928040476,-2.216177344780591,-2.0067535687330564,-2.401268058597362,-2.514579750529942,1.028330852928119,2.5303447955035034,0.150939555,-0.87170187,0.468321555,-15.168439999999999,-7.84364,9.2323,72.0
1774822062.3506563,1.430511474609375e-05,2026-03-29T22:07:42.350,2026-03-29T18:07:42.350,-32139.989999999998,-49379.67,-84671.86499999999,-50025.24,-14577.164999999999,-19877.04,5127.12,-58677.884999999995,-0.7124303387778959,-1.7605062539972616,-2.9933019011252116,-2.0457555476438736,-1.9007936734697315,-2.3204970616048697,2.6567914800741477,-0.07051111672148647,0.150939555,-0.87170187,0.468321555,-15.168439999999999,-7.84364,9.2323,72.0
1774822062.3506665,1.0251998901367188e-05,2026-03-29T22:07:42.350,2026-03-29T18:07:42.350,-32135.579999999998,-49375.665,-84672.36,-50030.685,-14575.365,-19871.684999999998,5133.96,-58673.34,-2.1661569399437566,-1.669136221481136,-2.3991415812993275,-1.3489372138373432,-0.7525199145970671,-1.2406464648897089,3.107751072052344,-2.466750270622814,0.150939555,-0.87170187,0.468321555,-15.168439999999999,-7.84364,9.2323,72.0
1774822062.35068,1.3589859008789062e-05,2026-03-29T22:07:42.350,2026-03-29T18:07:42.350,-32144.579999999998,-49371.93,-84660.03,-50025.825,-14572.305,-19868.715,5132.97,-58683.915,-2.654321565649578,-0.7378874387517195,-0.5513781453983932,-0.13985599967415796,0.602813515579508,0.30943313714624715,2.197687805328445,-3.7577493218370286,0.150939555,-0.87170187,0.468321555,-15.168439999999999,-7.84364,9.2323,72.0
1774822062.3506908,1.0728836059570312e-05,2026-03-29T22:07:42.350,2026-03-29T18:07:42.350,-32147.684999999998,-49371.165,-84655.70999999999,-50019.795,-14568.345,-19866.015,5133.285,-58691.025,-2.0793634068904114,0.6131645187542991,1.7720965082130864,1.1632307220665008,1.6875234149977203,1.73662094641239,0.3366009631504025,-3.544027383769555,0.150939555,-0.87170187,0.468321555,-15.168439999999999,-7.84364,9.2323,72.0
1774822062.3545053,0.0038144588470458984,2026-03-29T22:07:42.354,2026-03-29T18:07:42.354,-32145.434999999998,-49376.384999999995,-84662.595,-50026.68,-14574.24,-19871.415,5132.16,-58687.829999999994,-0.7668770739582674,1.725199702662518,3.4583990456756575,2.074985508741963,2.138697406998114,2.4869665361957765,-1.661633927031366,-2.022816883128365,0.150939555,-0.87170187,0.468321555,-15.168439999999999,-7.84364,9.2323,72.0
1774822062.354521,1.5735626220703125e-05,2026-03-29T22:07:42.354,2026-03-29T18:07:42.354,-32146.649999999998,-49377.33,-84663.495,-50027.174999999996,-14573.205,-19869.21,5135.49,-58686.165,0.7143481773069525,2.0256012466725766,3.5998484229131007,2.217088528848764,1.8145736941829218,2.2563416687981634,-2.936278415941181,0.1496593070166944,0.150939555,-0.87170187,0.468321555,-15.168439999999999,-7.84364,9.2323,72.0
1774822062.3545473,2.6226043701171875e-05,2026-03-29T22:07:42.354,2026-03-29T18:07:42.354,-32142.105,-49373.685,-84661.47,-50024.61,-14570.234999999999,-19867.364999999998,5135.8949999999995,-58683.689999999995,1.8013217799051815,1.326182567886438,1.9835973276511143,1.4802184404508683,0.8340923126621868,1.1174476285305395,-2.9470829112637436,2.1430083261644093,0.15167197500000001,-0.8740212,0.46899294,-19.761699999999998,-7.0196,8.9271,72.0
1774822062.3545568,9.5367431640625e-06,2026-03-29T22:07:42.354,2026-03-29T18:07:42.354,-32139.629999999997,-49372.695,-84662.055,-50025.645,-14571.09,-19868.895,5133.69,-58682.97,2.144532460594745,-0.062062903392582046,-0.7336577681484246,0.10196849742688797,-0.4586287951112298,-0.4919266867479691,-1.6971538229564493,3.260063861595131,0.15167197500000001,-0.8740212,0.46899294,-19.761699999999998,-7.0196,8.9271,72.0
1774822062.3607883,0.006231546401977539,2026-03-29T22:07:42.360,2026-03-29T18:07:42.360,-32132.969999999998,-49365.585,-84655.17,-50019.705,-14565.869999999999,-19865.07,5134.095,-58678.02,1.7012530028751571,-1.466168852831952,-3.2863248453349274,-1.3913722541509752,-1.5999224186058099,-1.927074987788702,0.27716746466090314,3.1589193656292287,0.15167197500000001,-0.8740212,0.46899294,-19.761699999999998,-7.0196,8.9271,72.0
1774822062.3608043,1.5974044799804688e-05,2026-03-29T22:07:42.360,2026-03-29T18:07:42.360,-32135.85,-49368.555,-84657.59999999999,-50020.65,-14567.265,-19866.87,5138.1449999999995,-58679.865,0.7023474992964949,-2.1803853705747662,-4.396044510704349,-2.3782338755845673,-2.1599215054752627,-2.5901203612819215,2.1384718466550905,1.932623653556199,0.15167197500000001,-0.8740212,0.46899294,-19.761699999999998,-7.0196,8.9271,72.0
1774822062.364242,0.0034377574920654297,2026-03-29T22:07:42.364,2026-03-29T18:07:42.364,-32148.765,-49383.854999999996,-84673.845,-50026.5,-14574.869999999999,-19879.605,5126.715,-58690.079999999994,-0.4673319989223273,-1.8248217096190231,-3.4192442682344155,-2.4037126413476573,-1.9009535697945292,-2.182123828948871,3.1011202798122324,0.045659283754361894,0.15167197500000001,-0.8740212,0.46899294,-19.761699999999998,-7.0196,8.9271,72.0
1774822062.3642564,1.430511474609375e-05,2026-03-29T22:07:42.364,2026-03-29T18:07:42.364,-32155.469999999998,-49389.84,-84678.25499999999,-50028.93,-14577.074999999999,-19884.78,5118.12,-58697.369999999995,-1.4130127046091883,-0.5494392871426039,-0.7148082819371961,-1.397941952098971,-0.8844693214675078,-0.8456331821451122,2.757584918116852,-1.8340385911337824,0.15167197500000001,-0.8740212,0.46899294,-19.761699999999998,-7.0196,8.9271,72.0
1774822062.3683772,0.004120826721191406,2026-03-29T22:07:42.368,2026-03-29T18:07:42.368,-32149.26,-49379.04,-84664.75499999999,-50034.104999999996,-14579.144999999999,-19880.1,5125.7699999999995,-58693.229999999996,-1.8469044519080322,1.026920769222899,2.4757446558118925,0.2577982234140035,0.5246806699822048,0.8739134251731997,1.2457888878058598,-3.051491057372482,0.15167197500000001,-0.8740212,0.46899294,-19.761699999999998,-7.0196,8.9271,72.0
1774822062.3683949,1.7642974853515625e-05,2026-03-29T22:07:42.368,2026-03-29T18:07:42.368,-32142.329999999998,-49371.705,-84661.56,-50038.604999999996,-14581.755,-19878.3,5128.785,-58687.65,-1.653842134825264,2.119042405768894,4.603325786222511,1.866787529087447,1.776555172739881,2.245688027353431,-0.8083969461569085,-3.171966833963204,0.15167197500000001,-0.8740212,0.46899294,-19.761699999999998,-7.0196,8.9271,72.0
1774822062.3726647,0.004269838333129883,2026-03-29T22:07:42.372,2026-03-29T18:07:42.372,-32143.004999999997,-49372.38,-84661.47,-50030.415,-14571.72,-19867.094999999998,5130.0,-58686.165,-0.9063563941552056,2.1703380312694422,4.572645221861895,2.7114515863189443,2.3467335562955256,2.666110460899595,-2.5484512865220803,-2.126791614276225,0.15167197500000001,-0.8740212,0.46899294,-19.761699999999998,-7.0196,8.9271,72.0
1774822062.3726912,2.6464462280273438e-05,2026-03-29T22:07:42.372,2026-03-29T18:07:42.372,-32148.899999999998,-49380.255,-84669.165,-50031.854999999996,-14572.98,-19869.75,5128.38,-58690.935,0.16025164965393227,1.139720819151285,2.311298701426538,2.3814965648237503,1.9607538809515876,1.9318173313610691,-3.2397761575960686,-0.25451479277227185,0.15167197500000001,-0.8740212,0.46899294,-19.761699999999998,-7.0196,8.9271,72.0
1774822062.3766308,0.003939628601074219,2026-03-29T22:07:42.376,2026-03-29T18:07:42.376,-32145.614999999998,-49381.02,-84668.535,-50022.945,-14567.58,-19871.1,5123.07,-58690.079999999994,1.2055530823697223,-0.469047669502075,-1.151372808933783,0.9815995601888713,0.7337387916347439,0.34580034969339435,-2.575197265196084,1.7874677581063345,0.15002403,-0.879575385,0.46716189,-19.4565,-7.2332399999999994,9.903739999999999,72.0
1774822062.3766518,2.09808349609375e-05,2026-03-29T22:07:42.376,2026-03-29T18:07:42.376,-32143.364999999998,-49381.965,-84672.54,-50032.53,-14576.445,-19875.915,5133.51,-58686.165,1.8717129797978183,-1.855177623410221,-4.156000270763891,-0.8898730120599669,-0.8488806928784515,-1.4017606551147177,-0.8089938454412258,3.232560381451539,0.15002403,-0.879575385,0.46716189,-19.4565,-7.2332399999999994,9.903739999999999,72.0
1774822062.3835237,0.006871938705444336,2026-03-29T22:07:42.383,2026-03-29T18:07:42.383,-32140.754999999997,-49380.345,-84677.44499999999,-50044.185,-14583.06,-19878.57,5135.94,-58681.71,1.893104718775331,-2.3231251850675285,-5.217705563670094,-2.396196529641405,-2.1186468458284193,-2.5345065181568804,1.337880841760204,3.4824474541807082,0.15002403,-0.879575385,0.46716189,-19.4565,-7.2332399999999994,9.903739999999999,72.0
1774822062.3835616,3.790855407714844e-05,2026-03-29T22:07:42.383,2026-03-29T18:07:42.383,-32146.11,-49383.494999999995,-84678.165,-50038.515,-14577.84,-19876.995,5136.48,-58685.85,1.2025531274087102,-1.6354086845388023,-3.768857437343473,-2.8428756807011393,-2.509757295275244,-2.5410798114718656,2.9677040820234963,2.3580732462196283,0.15002403,-0.879575385,0.46716189,-19.4565,-7.2332399999999994,9.903739999999999,72.0
1774822062.3836405,7.891654968261719e-05,2026-03-29T22:07:42.383,2026-03-29T18:07:42.383,-32147.82,-49377.689999999995,-84663.0,-50030.28,-14568.164999999999,-19864.53,5139.495,-58691.07,-0.008301756287691751,-0.13510955996306698,-0.46436449891060566,-2.007118298318218,-1.819187992888992,-1.4144198066584917,3.3772036087881325,0.21722354893548887,0.15002403,-0.879575385,0.46716189,-19.4565,-7.2332399999999994,9.903739999999999,72.0
1774822062.3836725,3.1948089599609375e-05,2026-03-29T22:07:42.383,2026-03-29T18:07:42.383,-32139.0,-49365.765,-84649.00499999999,-50029.604999999996,-14571.945,-19866.239999999998,5126.804999999999,-58686.704999999994,-1.3173456363793457,1.426122951245015,3.115383991323448,-0.25558270531054456,-0.31775341159307013,0.3368856282924272,2.3591164808264673,-2.1344304710049116,0.15002403,-0.879575385,0.46716189,-19.4565,-7.2332399999999994,9.903739999999999,72.0
1774822062.388631,0.004958629608154297,2026-03-29T22:07:42.388,2026-03-29T18:07:42.388,-32136.48,-49365.0,-84649.36499999999,-50023.619999999995,-14567.4,-19865.25,5114.565,-58686.84,-2.2048044456619618,2.2679716206401537,5.228701691403098,1.6142288256749229,1.3504631245753775,1.917081979546596,0.3058267253656852,-3.734346842864688,0.15002403,-0.879575385,0.46716189,-19.4565,-7.2332399999999994,9.903739999999999,72.0
1774822062.3886511,2.002716064453125e-05,2026-03-29T22:07:42.388,2026-03-29T18:07:42.388,-32143.32,-49374.405,-84665.52,-50033.34,-14572.845,-19871.82,5120.01,-58693.14,-2.2579222275278403,1.9756480901905755,4.830354831234138,2.741364670754404,2.446241197561337,2.6093264771400997,-1.9364903765918453,-3.858316795009522,0.15002403,-0.879575385,0.46716189,-19.4565,-7.2332399999999994,9.903739999999999,72.0
1774822062.392315,0.003663778305053711,2026-03-29T22:07:42.392,2026-03-29T18:07:42.392,-32142.69,-49374.99,-84667.86,-50033.07,-14570.189999999999,-19868.355,5132.25,-58691.204999999994,-1.3680129221861212,0.7071892140861222,2.095531091444924,2.606121451915346,2.4697197752899664,2.1085949042663903,-3.4124274123502745,-2.357026463915563,0.15002403,-0.879575385,0.46716189,-19.4565,-7.2332399999999994,9.903739999999999,72.0
1774822062.3923433,2.8371810913085938e-05,2026-03-29T22:07:42.392,2026-03-29T18:07:42.392,-32144.715,-49378.32,-84671.595,-50036.354999999996,-14573.07,-19869.614999999998,5142.014999999999,-58689.854999999996,0.17631856461340586,-0.8912562498776364,-1.6558924908165158,1.2778241554770104,1.3963792220741287,0.6629922427377664,-3.4629154872140857,0.22646815535063106,0.15002403,-0.879575385,0.46716189,-19.4565,-7.2332399999999994,9.903739999999999,72.0
1774822062.3969336,0.004590272903442383,2026-03-29T22:07:42.396,2026-03-29T18:07:42.396,-32151.914999999997,-49388.265,-84682.89,-50046.93,-14584.59,-19880.325,5139.36,-58694.534999999996,1.764874145284449,-2.0171310449655016,-4.602835943322715,-0.6161803403924636,-0.30059422975460937,-1.0453808099233337,-2.0206287532150604,2.8381111023011485,0.149352645,-0.893735505,0.463866,-13.79504,-8.78976,10.69726,72.0
1774822062.3969457,1.2159347534179688e-05,2026-03-29T22:07:42.396,2026-03-29T18:07:42.396,-32144.535,-49386.465,-84683.87999999999,-50049.99,-14587.92,-19883.88,5130.764999999999,-58687.74,2.7030695366817024,-2.118751082111547,-5.317445709544555,-2.188260750724894,-1.8591053143345246,-2.2242003610250225,0.3378005376645963,4.341888869900441,0.149352645,-0.893735505,0.463866,-13.79504,-8.78976,10.69726,72.0
1774822062.40073,0.0037841796875,2026-03-29T22:07:42.400,2026-03-29T18:07:42.400,-32132.204999999998,-49380.165,-84682.44,-50049.72,-14588.55,-19885.454999999998,5131.17,-58674.329999999994,2.5207637880726534,-1.169444696567276,-3.4662301965899434,-2.7127216907381104,-2.5756879193390416,-2.344465050110628,2.617379307020867,4.022520366638309,0.149352645,-0.893735505,0.463866,-13.79504,-8.78976,10.69726,72.0
1774822062.40075,2.002716064453125e-05,2026-03-29T22:07:42.400,2026-03-29T18:07:42.400,-32132.789999999997,-49378.229999999996,-84679.245,-50046.93,-14586.57,-19883.565,5133.78,-58674.96,1.2130060618912777,0.3295746857073064,0.030812108153667823,-1.9685824723235217,-2.130545268392848,-1.3846403835243093,3.823008490343318,1.9351378199134466,0.149352645,-0.893735505,0.463866,-13.79504,-8.78976,10.69726,72.0
1774822062.4044297,0.0036797523498535156,2026-03-29T22:07:42.404,2026-03-29T18:07:42.404,-32143.32,-49373.955,-84667.59,-50031.674999999996,-14570.46,-19870.38,5140.26,-58692.329999999994,-0.7125271618538924,1.6146199944849189,3.460764104904924,-0.3373031833518466,-0.7362446536024458,0.17062445993222997,3.3956553372321805,-1.073082728993086,0.149352645,-0.893735505,0.463866,-13.79504,-8.78976,10.69726,72.0
1774822062.4044468,1.71661376953125e-05,2026-03-29T22:07:42.404,2026-03-29T18:07:42.404,-32158.71,-49377.015,-84663.315,-50021.595,-14560.289999999999,-19861.335,5147.82,-58708.259999999995,-2.426304589466157,2.052445960110666,5.165952110624471,1.3901183688953276,0.9618361040579599,1.5733454829071063,1.474429060115279,-3.7034227062712333,0.149352645,-0.893735505,0.463866,-13.79504,-8.78976,10.69726,72.0
1774822062.4085796,0.004132747650146484,2026-03-29T22:07:42.408,2026-03-29T18:07:42.408,-32158.89,-49388.265,-84678.97499999999,-50033.43,-14574.195,-19875.915,5119.425,-58705.784999999996,-3.1379737482023384,1.4568375650456222,4.355472626151646,2.39985790747308,2.1873003604441923,2.175329074504203,-1.139795127281906,-4.773245951560613,0.149352645,-0.893735505,0.463866,-13.79504,-8.78976,10.69726,72.0
1774822062.4086037,2.4080276489257812e-05,2026-03-29T22:07:42.408,2026-03-29T18:07:42.408,-32159.52,-49385.07,-84674.47499999999,-50031.99,-14573.609999999999,-19875.42,5107.7699999999995,-58709.43,-2.4687681416379674,0.1684595105715215,1.4778881301458728,2.2450090724111216,2.393934335979097,1.7334359005113964,-3.3161160748094307,-3.7591389978307084,0.149352645,-0.893735505,0.463866,-13.79504,-8.78976,10.69726,72.0
1774822062.4194095,0.010805845260620117,2026-03-29T22:07:42.419,2026-03-29T18:07:42.419,-32157.225,-49378.095,-84665.43,-50029.47,-14571.494999999999,-19872.045,5107.7699999999995,-58708.935,-0.6562217056543813,-1.1367652750789004,-2.0234629413357714,1.0486393432035073,1.5151850273249132,0.5103591632100328,-4.084690586529629,-1.0606563221918774,0.149352645,-0.893735505,0.463866,-13.79504,-8.78976,10.69726,72.0
1774822062.4194276,1.811981201171875e-05,2026-03-29T22:07:42.419,2026-03-29T18:07:42.419,-32149.26,-49373.729999999996,-84662.81999999999,-50025.42,-14567.67,-19867.68,5108.849999999999,-58700.835,1.5203507944268966,-1.8043745465336034,-4.440488433257897,-0.5747045861072971,-0.014939605771969372,-0.8723773131054605,-3.0731109129138336,2.1513322388257414,0.149352645,-0.893735505,0.463866,-13.79504,-8.78976,10.69726,72.0
1774822062.4194453,1.7642974853515625e-05,2026-03-29T22:07:42.419,2026-03-29T18:07:42.419,-32149.934999999998,-49377.78,-84670.245,-50029.875,-14570.64,-19870.335,5118.255,-58701.689999999995,3.0766383283010876,-1.5341513863225396,-4.643741275315204,-1.8334921913718547,-1.4760326144809193,-1.7497274050115637,-0.6896593611987016,4.447446429675012,0.15222129,-0.903379035,0.466002225,-9.58328,-7.59948,11.5976,72.0
1774822062.4194517,6.4373016357421875e-06,2026-03-29T22:07:42.419,2026-03-29T18:07:42.419,-32154.524999999998,-49384.53,-84676.77,-50032.439999999995,-14572.215,-19870.245,5136.75,-58704.615,3.2760064330963052,-0.5177419241632536,-2.6180728179988932,-2.1488800023914214,-2.204565030125408,-1.736591039725053,2.0380807720706113,4.7866660954333575,0.15222129,-0.903379035,0.466002225,-9.58328,-7.59948,11.5976,72.0
1774822062.41946,8.344650268554688e-06,2026-03-29T22:07:42.419,2026-03-29T18:07:42.419,-32152.995,-49384.215,-84678.345,-50036.354999999996,-14572.89,-19867.59,5139.9,-58703.445,1.9862962081219087,0.683354688624535,0.5673382590458115,-1.425808271720813,-1.900583545000122,-0.9002194250650466,3.907533575366884,2.9991911174854216,0.15222129,-0.903379035,0.466002225,-9.58328,-7.59948,11.5976,72.0
1774822062.4194717,1.1682510375976562e-05,2026-03-29T22:07:42.419,2026-03-29T18:07:42.419,-32148.765,-49374.585,-84664.70999999999,-50037.345,-14578.56,-19872.0,5130.8099999999995,-58702.365,-0.23565208624454712,1.446221375232055,3.323235397968958,-0.07613324767065084,-0.7534325834232828,0.2974080649028388,4.075731145537779,-0.12382026246993481,0.15222129,-0.903379035,0.466002225,-9.58328,-7.59948,11.5976,72.0
1774822062.426996,0.007524251937866211,2026-03-29T22:07:42.426,2026-03-29T18:07:42.426,-32147.28,-49374.27,-84662.055,-50032.485,-14575.59,-19870.649999999998,5128.605,-58700.43,-2.3840333534665943,1.4128502397364024,4.3410878425318105,1.2083222088029846,0.6673555302144742,1.2488696210813788,2.444412945294176,-3.182685806520411,0.15222129,-0.903379035,0.466002225,-9.58328,-7.59948,11.5976,72.0
1774822062.427033,3.695487976074219e-05,2026-03-29T22:07:42.427,2026-03-29T18:07:42.427,-32150.16,-49381.515,-84674.745,-50037.255,-14575.949999999999,-19873.62,5126.355,-58705.064999999995,-3.465378002471232,0.6621649222204391,3.223424370009098,1.810226665279683,1.695667882397152,1.5095880518859734,-0.2827149588705607,-4.805514951219501,0.15222129,-0.903379035,0.466002225,-9.58328,-7.59948,11.5976,72.0
1774822062.428459,0.0014259815216064453,2026-03-29T22:07:42.428,2026-03-29T18:07:42.428,-32148.899999999998,-49384.17,-84679.515,-50034.375,-14571.675,-19870.02,5126.535,-58703.67,-2.966609191166665,-0.35678964670450986,0.6358049631653941,1.4868316017826737,1.884993092749941,1.0082018509775048,-2.903681835451786,-4.274579860856895,0.15222129,-0.903379035,0.466002225,-9.58328,-7.59948,11.5976,72.0
1774822062.4284868,2.7894973754882812e-05,2026-03-29T22:07:42.428,2026-03-29T18:07:42.428,-32150.835,-49387.5,-84685.77,-50033.475,-14570.055,-19869.075,5118.705,-58706.595,-1.10530224810449,-1.0849669635357115,-2.0759646580453084,0.46808957672041956,1.2051279496604888,0.05806189288902814,-4.251831167683056,-1.8513219543479877,0.15222129,-0.903379035,0.466002225,-9.58328,-7.59948,11.5976,72.0
1774822062.4345596,0.0060727596282958984,2026-03-29T22:07:42.434,2026-03-29T18:07:42.434,-32146.379999999997,-49379.625,-84672.58499999999,-50025.24,-14562.765,-19863.585,5116.23,-58704.39,1.262865893455133,-1.1593650435413623,-3.5882770295961532,-0.687086032027955,0.03132032449026714,-0.8259708775861635,-3.7205623191195554,1.3508131960601093,0.15222129,-0.903379035,0.466002225,-9.58328,-7.59948,11.5976,72.0
1774822062.434581,2.1457672119140625e-05,2026-03-29T22:07:42.434,2026-03-29T18:07:42.434,-32150.16,-49384.395,-84677.805,-50032.35,-14572.574999999999,-19873.89,5113.98,-58708.53,3.0412651037271505,-0.5979577024605437,-3.254169301287554,-1.3922036460783538,-1.05812519401835,-1.2022926490857948,-1.5406095030292923,3.884224148373885,0.15222129,-0.903379035,0.466002225,-9.58328,-7.59948,11.5976,72.0
1774822062.4380796,0.003498554229736328,2026-03-29T22:07:42.438,2026-03-29T18:07:42.438,-32146.379999999997,-49381.515,-84675.19499999999,-50021.64,-14560.154999999999,-19861.829999999998,5134.095,-58703.13,3.4077903129369957,0.23230219307205435,-1.3824126715836569,-1.3314278995121926,-1.568062419458593,-0.9235370243899474,1.3188956827006373,4.631598344294764,0.154723725,-0.896787255,0.46844362500000003,-14.466479999999999,-7.18746,13.68822,72.0
1774822062.4381025,2.288818359375e-05,2026-03-29T22:07:42.438,2026-03-29T18:07:42.438,-32142.015,-49372.29,-84660.61499999999,-50027.354999999996,-14566.949999999999,-19861.515,5149.889999999999,-58696.92,2.2026850353771277,0.8387281866495484,0.9803906795760948,-0.6025306140791991,-1.3140387701932559,-0.19273367549947526,3.5837441646450525,3.3069667341555573,0.154723725,-0.896787255,0.46844362500000003,-14.466479999999999,-7.18746,13.68822,72.0
1774822062.4442427,0.006140232086181641,2026-03-29T22:07:42.444,2026-03-29T18:07:42.444,-32144.94,-49371.84,-84661.515,-50040.99,-14579.369999999999,-19870.38,5140.485,-58702.905,0.00213836461986536,0.8871841932896566,2.626952486903917,0.36099674937061693,-0.48529847621140104,0.5659648532785869,4.247341789033606,0.564566413966732,0.154723725,-0.896787255,0.46844362500000003,-14.466479999999999,-7.18746,13.68822,72.0
1774822062.4442627,2.002716064453125e-05,2026-03-29T22:07:42.444,2026-03-29T18:07:42.444,-32146.515,-49376.564999999995,-84665.925,-50034.015,-14570.505,-19864.98,5133.0599999999995,-58707.854999999996,-2.1580966777373876,0.38658981379025437,2.810657718936776,1.0371171490671,0.4760552508719873,0.945031176833174,3.0230109044407043,-2.3256189532622558,0.154723725,-0.896787255,0.46844362500000003,-14.466479999999999,-7.18746,13.68822,72.0
1774822062.4442823,1.9550323486328125e-05,2026-03-29T22:07:42.444,2026-03-29T18:07:42.444,-32148.539999999997,-49381.38,-84671.595,-50037.884999999995,-14574.015,-19870.335,5135.849999999999,-58707.63,-3.2758369177994586,-0.3281042991250788,1.5894872612447468,1.0943772838978745,1.1079864053654422,0.7693229609705655,0.47037209331954344,-4.07373704021161,0.154723725,-0.896787255,0.46844362500000003,-14.466479999999999,-7.18746,13.68822,72.0
1774822062.444289,6.67572021484375e-06,2026-03-29T22:07:42.444,2026-03-29T18:07:42.444,-32150.789999999997,-49386.555,-84684.06,-50039.189999999995,-14574.644999999999,-19874.835,5138.325,-58709.43,-2.854773607483281,-0.8012077744300381,-0.26849743956086036,0.5549183777935246,1.1516520582779584,0.17653218540777038,-2.2610196394584614,-3.9538235371814165,0.154723725,-0.896787255,0.46844362500000003,-14.466479999999999,-7.18746,13.68822,72.0
1774822062.4490469,0.004757881164550781,2026-03-29T22:07:42.449,2026-03-29T18:07:42.449,-32144.399999999998,-49382.775,-84682.305,-50034.42,-14569.605,-19870.335,5136.255,-58703.67,-1.129842573661024,-0.7299996782755089,-1.7418759634485084,-0.2392497830704877,0.6562879374389833,-0.47456562209435005,-3.9528846392220798,-2.1071580961413483,0.154723725,-0.896787255,0.46844362500000003,-14.466479999999999,-7.18746,13.68822,72.0
1774822062.4490852,3.838539123535156e-05,2026-03-29T22:07:42.449,2026-03-29T18:07:42.449,-32138.414999999997,-49378.59,-84674.295,-50036.265,-14572.574999999999,-19872.09,5132.835,-58697.82,1.0590664306089075,-0.14832823570712117,-2.1124276668091904,-0.8297162300512771,-0.07603891763529509,-0.8115680071079499,-3.8661816109204947,0.562474345675868,0.154723725,-0.896787255,0.46844362500000003,-14.466479999999999,-7.18746,13.68822,72.0
1774822062.4530745,0.003989219665527344,2026-03-29T22:07:42.453,2026-03-29T18:07:42.453,-32132.204999999998,-49376.655,-84678.345,-50049.945,-14583.644999999999,-19876.23,5131.889999999999,-58692.24,2.6786286575969993,0.5874553583498199,-1.3203457013167477,-0.8983182839889676,-0.6647575548681367,-0.6549546508328042,-2.067205012773103,2.834512356545027,0.154723725,-0.896787255,0.46844362500000003,-14.466479999999999,-7.18746,13.68822,72.0
1774822062.453098,2.3603439331054688e-05,2026-03-29T22:07:42.453,2026-03-29T18:07:42.453,-32136.12,-49378.005,-84679.69499999999,-50046.84,-14580.945,-19874.79,5129.505,-58695.39,2.99575484346254,1.005297457821916,0.05977124111407904,-0.43602485147216236,-0.8467355401988189,-0.1112607764466584,0.6135030793052408,3.7365793327519756,0.154723725,-0.896787255,0.46844362500000003,-14.466479999999999,-7.18746,13.68822,72.0
1774822062.4564552,0.0033571720123291016,2026-03-29T22:07:42.456,2026-03-29T18:07:42.456,-32143.949999999997,-49375.845,-84670.73999999999,-50031.63,-14568.435,-19868.985,5129.865,-58706.325,1.914684620443575,0.8007550745023686,1.1867155362601478,0.2648375167115164,-0.5934114131946489,0.49474124069596725,2.966065039744147,2.9636362195713524,0.14929161,-0.885923025,0.46923708000000003,-22.783179999999998,-8.57612,16.4808,72.0
1774822062.456478,2.288818359375e-05,2026-03-29T22:07:42.456,2026-03-29T18:07:42.456,-32151.87,-49378.545,-84667.815,-50023.845,-14563.484999999999,-19866.149999999998,5133.51,-58713.75,-3.83130774863433e-05,0.03332058774523259,1.4435472690500484,0.7852571854653971,-0.09713612558192197,0.8075760233536081,3.9507047055306233,0.9691222029681544,0.14929161,-0.885923025,0.46923708000000003,-22.783179999999998,-8.57612,16.4808,72.0
1774822062.4603393,0.0038611888885498047,2026-03-29T22:07:42.460,2026-03-29T18:07:42.460,-32160.645,-49384.935,-84674.79,-50026.77,-14565.015,-19865.475,5131.62,-58723.829999999994,-1.81623069900033,-0.8829963358427719,0.773013043429764,0.8203508866498451,0.35379631048159194,0.6424368245328639,3.1605236806829313,-1.2913107663046293,0.14929161,-0.885923025,0.46923708000000003,-22.783179999999998,-8.57612,16.4808,72.0
1774822062.4603555,1.621246337890625e-05,2026-03-29T22:07:42.460,2026-03-29T18:07:42.460,-32151.555,-49384.215,-84680.28,-50035.185,-14572.89,-19873.755,5123.25,-58716.0,-2.691160824810995,-1.399731821074357,-0.32379204751104546,0.35133385574159526,0.5360357583723494,0.08876871070306828,0.990205227937761,-2.8217194898637965,0.14929161,-0.885923025,0.46923708000000003,-22.783179999999998,-8.57612,16.4808,72.0
1774822062.47042,0.010064363479614258,2026-03-29T22:07:42.470,2026-03-29T18:07:42.470,-32149.934999999998,-49377.195,-84670.11,-50026.59,-14564.43,-19865.52,5123.07,-58716.854999999996,-2.2672010583267834,-1.1487448251239576,-1.1120632360590492,-0.34614009642591764,0.4003064272681324,-0.5402875050987348,-1.5593856322649688,-3.0279857989211063,0.14929161,-0.885923025,0.46923708000000003,-22.783179999999998,-8.57612,16.4808,72.0
1774822062.4704366,1.6689300537109375e-05,2026-03-29T22:07:42.470,2026-03-29T18:07:42.470,-32152.635,-49376.97,-84670.47,-50027.174999999996,-14559.93,-19857.87,5132.88,-58719.15,-0.8180293603034996,-0.17570801662040653,-1.0752873234959477,-0.8603612010445016,0.07592267973894354,-0.8835357874049558,-3.344337888813028,-1.9421521532873742,0.14929161,-0.885923025,0.46923708000000003,-22.783179999999998,-8.57612,16.4808,72.0
1774822062.470452,1.5497207641601562e-05,2026-03-29T22:07:42.470,2026-03-29T18:07:42.470,-32152.905,-49379.805,-84675.87,-50036.265,-14570.73,-19869.75,5134.23,-58715.82,0.9143472832895725,1.0470198519447644,-0.22966001947071352,-0.8792265411541724,-0.22187841657121155,-0.7347080012477268,-3.593316921148696,-0.14801464819666887,0.14929161,-0.885923025,0.46923708000000003,-22.783179999999998,-8.57612,16.4808,72.0
1774822062.4704578,5.7220458984375e-06,2026-03-29T22:07:42.470,2026-03-29T18:07:42.470,-32146.965,-49376.07,-84670.2,-50030.28,-14568.615,-19870.559999999998,5125.7699999999995,-58713.03,2.098845789796525,1.8506554065482719,0.8823684192582865,-0.3710467827039815,-0.32246770988015094,-0.16036965562402367,-2.2421075539637303,1.529046132895427,0.14929161,-0.885923025,0.46923708000000003,-22.783179999999998,-8.57612,16.4808,72.0
1774822062.4725535,0.0020956993103027344,2026-03-29T22:07:42.472,2026-03-29T18:07:42.472,-32155.379999999997,-49385.52,-84682.08,-50032.71,-14570.1,-19872.719999999998,5114.925,-58721.49,2.2169215246369744,1.730537402818493,1.5171472577474914,0.3912967818101689,-0.19280470864131177,0.5327110699257269,0.05845765971077473,2.4042350838141298,0.14929161,-0.885923025,0.46923708000000003,-22.783179999999998,-8.57612,16.4808,72.0
1774822062.4725835,3.0040740966796875e-05,2026-03-29T22:07:42.472,2026-03-29T18:07:42.472,-32161.59,-49390.92,-84687.84,-50031.045,-14566.455,-19867.005,5117.535,-58729.634999999995,1.2909539653229778,0.6444014072770267,1.186291502210099,0.9780288607037491,0.05630140534643849,0.9635205166213361,2.2552393538914988,2.209209913221991,0.14929161,-0.885923025,0.46923708000000003,-22.783179999999998,-8.57612,16.4808,72.0
1774822062.4768631,0.004279613494873047,2026-03-29T22:07:42.476,2026-03-29T18:07:42.476,-32153.579999999998,-49381.604999999996,-84675.95999999999,-50025.104999999996,-14559.164999999999,-19857.465,5137.514999999999,-58723.11,-0.16184179333885332,-0.921668636178775,-0.022443566334434308,1.0417975291565094,0.2480500374943397,0.8856998545614827,3.3759146511197082,1.152707077091795,0.13977015,-0.882627135,0.46398807000000003,-26.308239999999998,-10.529399999999999,16.28242,72.0
1774822062.4768963,3.314018249511719e-05,2026-03-29T22:07:42.476,2026-03-29T18:07:42.476,-32153.489999999998,-49380.255,-84671.73,-50033.564999999995,-14569.965,-19867.454999999998,5140.26,-58721.579999999994,-1.4116928564235296,-2.17243118961497,-1.4551601909743392,0.5166388809404119,0.2516463062635989,0.32518626808827433,2.9602108498597595,-0.2319316594055454,0.13977015,-0.882627135,0.46398807000000003,-26.308239999999998,-10.529399999999999,16.28242,72.0
1774822062.4804385,0.003542184829711914,2026-03-29T22:07:42.480,2026-03-29T18:07:42.480,-32151.465,-49377.33,-84672.72,-50037.57,-14571.63,-19867.77,5141.565,-58718.52,-1.8828710379616553,-2.408115217324065,-2.242556808629555,-0.3349414102980135,0.061558564366079684,-0.4291674470142408,1.2476160414524384,-1.3547668026616309,0.13977015,-0.882627135,0.46398807000000003,-26.308239999999998,-10.529399999999999,16.28242,72.0
1774822062.4804516,1.3113021850585938e-05,2026-03-29T22:07:42.480,2026-03-29T18:07:42.480,-32152.41,-49379.985,-84675.735,-50036.805,-14568.75,-19865.745,5137.605,-58720.275,-1.4201646391215461,-1.4080630619269467,-1.8043626289434478,-1.0562244144659498,-0.2011653419976744,-0.9780096598297536,-0.9541103541826277,-1.8183231762648888,0.13977015,-0.882627135,0.46398807000000003,-26.308239999999998,-10.529399999999999,16.28242,72.0
1774822062.488722,0.008270502090454102,2026-03-29T22:07:42.488,2026-03-29T18:07:42.488,-32149.664999999997,-49374.36,-84668.355,-50038.155,-14571.9,-19868.805,5134.23,-58721.67,-0.33122959639857424,0.4141279210378125,-0.22286699293409712,-1.2419883634604507,-0.36415258062063055,-1.0252443913199114,-2.6493845399137075,-1.5438477582663515,0.13977015,-0.882627135,0.46398807000000003,-26.308239999999998,-10.529399999999999,16.28242,72.0
1774822062.4887795,5.745887756347656e-05,2026-03-29T22:07:42.488,2026-03-29T18:07:42.488,-32152.14,-49375.665,-84673.53,-50040.314999999995,-14574.195,-19872.09,5129.37,-58725.0,0.8006864113342181,2.18135158802955,1.7390352748017754,-0.7632896786315849,-0.30979984678762396,-0.5379160627659936,-3.10496381956193,-0.7440864340764048,0.13977015,-0.882627135,0.46398807000000003,-26.308239999999998,-10.529399999999999,16.28242,72.0
1774822062.4888234,4.38690185546875e-05,2026-03-29T22:07:42.488,2026-03-29T18:07:42.488,-32150.34,-49376.115,-84672.9,-50036.445,-14569.335,-19868.13,5131.665,-58724.009999999995,1.4249938429253928,2.97929738414804,3.0101494382441745,0.15221237784872269,-0.0493651705100856,0.23414823921171476,-2.1661804075730826,0.21432644504667842,0.13977015,-0.882627135,0.46398807000000003,-26.308239999999998,-10.529399999999999,16.28242,72.0
1774822062.4888375,1.4066696166992188e-05,2026-03-29T22:07:42.488,2026-03-29T18:07:42.488,-32146.245,-49374.045,-84667.23,-50033.79,-14571.225,-19868.445,5131.17,-58718.115,1.2914195793205279,2.3291607602591937,2.7899615230122614,1.0316394935628648,0.27858468284532756,0.8898006708708722,-0.3034019064250704,0.976859153530206,0.13977015,-0.882627135,0.46398807000000003,-26.308239999999998,-10.529399999999999,16.28242,72.0
1774822062.492892,0.004054546356201172,2026-03-29T22:07:42.492,2026-03-29T18:07:42.492,-32145.48,-49374.494999999995,-84667.59,-50033.295,-14572.89,-19870.2,5129.73,-58717.079999999994,0.5468637587694005,0.4623199828516949,1.0235993481191943,1.4040947359330436,0.48507026649319035,1.0887147740498422,1.621280128139899,1.3212686498261588,0.13977015,-0.882627135,0.46398807000000003,-26.308239999999998,-10.529399999999999,16.28242,72.0
1774822062.4929109,1.8835067749023438e-05,2026-03-29T22:07:42.492,2026-03-29T18:07:42.492,-32151.465,-49384.53,-84683.16,-50037.57,-14574.15,-19873.8,5128.335,-58724.505,-0.37394803574038005,-1.7562553184343104,-1.4990778382303698,1.0532821820403822,0.43923261763071797,0.7306387169861335,2.752052046070824,1.1982933153840432,0.13977015,-0.882627135,0.46398807000000003,-26.308239999999998,-10.529399999999999,16.28242,72.0
1774822062.496637,0.0037262439727783203,2026-03-29T22:07:42.496,2026-03-29T18:07:42.496,-32151.78,-49386.15,-84686.715,-50034.689999999995,-14569.875,-19871.73,5129.415,-58725.63,-0.9929725428455624,-3.2339702618346564,-3.5012786266944107,0.13987682262392737,0.146498358116097,0.006326734413279129,2.6185373526179547,0.7041412572684381,0.128600745,-0.88940202,0.45544317,-21.15036,-13.9629,13.00152,72.0
1774822062.4966536,1.6450881958007812e-05,2026-03-29T22:07:42.496,2026-03-29T18:07:42.496,-32152.094999999998,-49383.045,-84684.42,-50039.865,-14573.744999999999,-19875.105,5129.505,-58725.9,-1.0341585565706406,-3.1929534037819587,-3.8696509280131437,-0.8743919328152892,-0.24870558077181898,-0.705948785162987,1.328758827826235,0.02095296112181997,0.128600745,-0.88940202,0.45544317,-21.15036,-13.9629,13.00152,72.0
1774822062.5009315,0.004277944564819336,2026-03-29T22:07:42.500,2026-03-29T18:07:42.500,-32150.204999999998,-49379.985,-84683.61,-50041.53,-14575.635,-19875.735,5130.855,-58725.854999999996,-0.5446179388370322,-1.577597532024721,-2.264116285663454,-1.463961532072503,-0.5384079912397841,-1.041566419006788,-0.5017033954584328,-0.6415906834761114,0.128600745,-0.88940202,0.45544317,-21.15036,-13.9629,13.00152,72.0
1774822062.5009525,2.09808349609375e-05,2026-03-29T22:07:42.500,2026-03-29T18:07:42.500,-32151.059999999998,-49379.985,-84680.055,-50038.784999999996,-14574.375,-19874.835,5128.605,-58728.645,0.1605254047232128,0.8855832950104048,0.643323374681658,-1.314475784931997,-0.5635788567273063,-0.8400882090841121,-2.0419044226965717,-1.090734073419008,0.128600745,-0.88940202,0.45544317,-21.15036,-13.9629,13.00152,72.0
1774822062.5049477,0.003995180130004883,2026-03-29T22:07:42.504,2026-03-29T18:07:42.504,-32152.23,-49379.22,-84679.605,-50042.475,-14579.82,-19880.145,5126.13,-58732.335,0.6871124969542933,3.0193509069033535,3.4509507760662905,-0.49058656789861915,-0.3016869480871561,-0.2240377276253565,-2.620818626287174,-1.1869275604147793,0.128600745,-0.88940202,0.45544317,-21.15036,-13.9629,13.00152,72.0
1774822062.5049703,2.2649765014648438e-05,2026-03-29T22:07:42.504,2026-03-29T18:07:42.504,-32153.399999999998,-49381.244999999995,-84682.665,-50039.595,-14577.66,-19879.245,5127.885,-58733.28,0.7759651305889711,3.76500129077368,4.7116611919627935,0.5931524447369806,0.11894593803000161,0.47372872694595325,-2.0169955434851645,-0.8801735016471328,0.128600745,-0.88940202,0.45544317,-21.15036,-13.9629,13.00152,72.0
1774822062.5087335,0.0037631988525390625,2026-03-29T22:07:42.508,2026-03-29T18:07:42.508,-32153.805,-49381.965,-84683.52,-50040.045,-14576.625,-19877.309999999998,5129.099999999999,-58733.145,0.4279015681746285,2.7111903948557456,3.681316001759166,1.3846140282354364,0.4859527868518897,0.8918396377327596,-0.5389421501586724,-0.24131333285610893,0.128600745,-0.88940202,0.45544317,-21.15036,-13.9629,13.00152,72.0
1774822062.5087616,2.8133392333984375e-05,2026-03-29T22:07:42.508,2026-03-29T18:07:42.508,-32150.204999999998,-49379.715,-84683.34,-50041.35,-14575.68,-19875.825,5129.595,-58730.67,-0.11952501155288163,0.3165601528750544,0.7430547539676772,1.4793100911837496,0.6144616088799485,0.8314841945867648,1.1302993500334666,0.5327282349189217,0.128600745,-0.88940202,0.45544317,-21.15036,-13.9629,13.00152,72.0
1774822062.51309,0.004328250885009766,2026-03-29T22:07:42.513,2026-03-29T18:07:42.513,-32152.32,-49384.619999999995,-84689.595,-50043.78,-14577.795,-19878.524999999998,5126.76,-58732.29,-0.540414439966239,-2.2927729824568055,-2.728935601329937,0.8294820582924094,0.443012618673886,0.35418170962783574,2.2467468002305053,1.1624999384658956,0.128600745,-0.88940202,0.45544317,-21.15036,-13.9629,13.00152,72.0
1774822062.51311,2.002716064453125e-05,2026-03-29T22:07:42.513,2026-03-29T18:07:42.513,-32152.274999999998,-49390.74,-84696.56999999999,-50035.994999999995,-14570.279999999999,-19875.96,5126.67,-58730.085,-0.6058459355014186,-3.8600010602636505,-5.021366576243003,-0.23206764746421976,0.06289322821022227,-0.2633308892311148,2.334056150701413,1.3814965620389335,0.128600745,-0.88940202,0.45544317,-21.15036,-13.9629,13.00152,72.0
1774822062.517673,0.004563093185424805,2026-03-29T22:07:42.517,2026-03-29T18:07:42.517,-32155.155,-49393.619999999995,-84697.065,-50027.805,-14565.824999999999,-19877.805,5123.115,-58732.155,-0.30372398204995454,-3.609498373747511,-4.935925057890027,-1.1652475316984974,-0.3331102818484386,-0.6878755254570814,1.3834141144030807,1.0540228599326527,0.12451140000000001,-0.89574966,0.454771785,-12.77262,-14.756419999999999,11.8265,72.0
1774822062.5177035,3.0517578125e-05,2026-03-29T22:07:42.517,2026-03-29T18:07:42.517,-32161.815,-49393.665,-84691.62,-50037.03,-14575.095,-19884.645,5116.905,-58742.28,0.1679569982973189,-1.6329468880986695,-2.41594098411916,-1.5017074420839145,-0.5528843544080713,-0.7119964481505915,-0.15730959275583264,0.26054352539529474,0.12451140000000001,-0.89574966,0.454771785,-12.77262,-14.756419999999999,11.8265,72.0
1774822062.5257638,0.008060216903686523,2026-03-29T22:07:42.525,2026-03-29T18:07:42.525,-32151.78,-49384.575,-84689.86499999999,-50047.515,-14583.465,-19886.04,5113.845,-58735.665,0.5236690476742285,1.1435401041222621,1.3821725826681577,-1.0836772107991761,-0.5021501977817117,-0.359102923691564,-1.5929486492014673,-0.7027837287182875,0.12451140000000001,-0.89574966,0.454771785,-12.77262,-14.756419999999999,11.8265,72.0
1774822062.5258331,6.937980651855469e-05,2026-03-29T22:07:42.525,2026-03-29T18:07:42.525,-32140.89,-49373.865,-84678.84,-50039.729999999996,-14576.13,-19877.94,5113.3949999999995,-58725.72,0.5556030065208674,3.3997705244234866,4.6272779231114445,-0.13913033304933506,-0.22567980072055763,0.1433594331274378,-2.291684911954086,-1.4293001010331063,0.12451140000000001,-0.89574966,0.454771785,-12.77262,-14.756419999999999,11.8265,72.0
1774822062.5259228,8.96453857421875e-05,2026-03-29T22:07:42.525,2026-03-29T18:07:42.525,-32139.719999999998,-49373.865,-84676.36499999999,-50037.84,-14574.555,-19877.04,5129.325,-58722.03,0.2486719100991518,4.056953183596407,5.707387324252649,0.8431700467888057,0.12591113552572658,0.5027866824739378,-1.9595672727714701,-1.5775188045483954,0.12451140000000001,-0.89574966,0.454771785,-12.77262,-14.756419999999999,11.8265,72.0
1774822062.5259445,2.1696090698242188e-05,2026-03-29T22:07:42.525,2026-03-29T18:07:42.525,-32153.67,-49379.13,-84679.245,-50043.06,-14576.355,-19873.89,5145.885,-58736.835,-0.21621577452680688,2.798892722977444,4.037745299208098,1.3701471049047145,0.3812613411387646,0.5303318537192452,-0.7614661068536317,-1.0391106231718918,0.12451140000000001,-0.89574966,0.454771785,-12.77262,-14.756419999999999,11.8265,72.0
1774822062.528568,0.0026235580444335938,2026-03-29T22:07:42.528,2026-03-29T18:07:42.528,-32162.129999999997,-49381.65,-84682.17,-50042.61,-14575.32,-19873.079999999998,5143.095,-58746.6,-0.5685341313549449,0.2246716949040599,0.3748725683928479,1.196406935423761,0.4361829562935738,0.24311571879913438,0.7597891544805705,-0.013127652795246764,0.12451140000000001,-0.89574966,0.454771785,-12.77262,-14.756419999999999,11.8265,72.0
1774822062.5285802,1.2159347534179688e-05,2026-03-29T22:07:42.528,2026-03-29T18:07:42.528,-32156.28,-49381.604999999996,-84683.11499999999,-50041.575,-14577.39,-19877.265,5132.655,-58739.579999999994,-0.6020921146396585,-2.4411260770217633,-3.5310050876068693,0.4410077223734925,0.2973347383860193,-0.15672092968229606,1.9268061112286488,1.061937527078416,0.12451140000000001,-0.89574966,0.454771785,-12.77262,-14.756419999999999,11.8265,72.0
1774822062.5325885,0.004008293151855469,2026-03-29T22:07:42.532,2026-03-29T18:07:42.532,-32148.315,-49383.765,-84692.925,-50044.68,-14577.885,-19878.614999999998,5129.505,-58729.229999999996,-0.29037786773867436,-3.938413389338238,-5.783088408648765,-0.4878240214760213,0.06257649375527305,-0.4107116700937625,2.2256977411387133,1.698574571428868,0.12451140000000001,-0.89574966,0.454771785,-12.77262,-14.756419999999999,11.8265,72.0
1774822062.5326045,1.5974044799804688e-05,2026-03-29T22:07:42.532,2026-03-29T18:07:42.532,-32145.795,-49386.869999999995,-84700.08,-50045.805,-14578.335,-19881.809999999998,5127.21,-58725.494999999995,0.1993355065410133,-3.574159933204664,-5.269727117801509,-1.1146618993432162,-0.1442794247684934,-0.36287897838684774,1.5295284138423946,1.5887233670841678,0.12451140000000001,-0.89574966,0.454771785,-12.77262,-14.756419999999999,11.8265,72.0
1774822062.536586,0.003981590270996094,2026-03-29T22:07:42.536,2026-03-29T18:07:42.536,-32147.19,-49381.515,-84688.2,-50046.93,-14582.205,-19884.239999999998,5127.03,-58731.39,0.5988945436548179,-1.5462301497816622,-2.2183675984801265,-1.1444564585054724,-0.2425316647250861,-0.05413362624133465,0.15147890167949077,0.75950440263992,0.12316863,-0.89587173,0.453917295,-6.62284,-16.1756,9.5375,72.0
1774822062.536602,1.5974044799804688e-05,2026-03-29T22:07:42.536,2026-03-29T18:07:42.536,-32163.795,-49376.52,-84673.89,-50038.064999999995,-14573.88,-19872.54,5133.554999999999,-58755.06,0.6865849788983184,1.1641769615009487,1.906512836852888,-0.6050586377328727,-0.2275751222765308,0.30409979697786593,-1.294179730683478,-0.4254187992348278,0.12316863,-0.89587173,0.453917295,-6.62284,-16.1756,9.5375,72.0
1774822062.5406675,0.004065513610839844,2026-03-29T22:07:42.540,2026-03-29T18:07:42.540,-32159.16,-49375.619999999995,-84676.5,-50031.54,-14567.58,-19868.805,5137.335,-58746.96,0.40793424072491247,3.27297521096999,5.114915482209052,0.1859069513855354,-0.1532610921756667,0.461967802740139,-2.1626358577565736,-1.427350735529135,0.12316863,-0.89587173,0.453917295,-6.62284,-16.1756,9.5375,72.0
1774822062.5406828,1.52587890625e-05,2026-03-29T22:07:42.540,2026-03-29T18:07:42.540,-32156.82,-49379.67,-84682.665,-50035.365,-14571.404999999999,-19873.8,5133.735,-58743.18,-0.09488558577538576,3.8086733747697576,5.86257843207306,0.8045680249160339,-0.08149998838819394,0.29050233494248057,-2.0632508372958527,-1.784022275845591,0.12316863,-0.89587173,0.453917295,-6.62284,-16.1756,9.5375,72.0
1774822062.547811,0.007128238677978516,2026-03-29T22:07:42.547,2026-03-29T18:07:42.547,-32154.704999999998,-49380.075,-84689.055,-50044.905,-14581.755,-19880.64,5131.755,-58740.57,-0.5594328457403523,2.5646287776398426,3.802878235327169,0.9502200528039629,-0.03629471638307423,-0.1285123579639768,-1.0342728430160866,-1.3302423061745268,0.12316863,-0.89587173,0.453917295,-6.62284,-16.1756,9.5375,72.0
1774822062.5478268,1.5735626220703125e-05,2026-03-29T22:07:42.547,2026-03-29T18:07:42.547,-32155.065,-49382.685,-84692.655,-50042.07,-14581.619999999999,-19883.204999999998,5128.83,-58740.435,-0.7426332402920623,0.17541507273105833,-0.050530807532738024,0.5957044033830037,0.006057262438735582,-0.5400933958179639,0.4701379236686523,-0.2788240747910519,0.12316863,-0.89587173,0.453917295,-6.62284,-16.1756,9.5375,72.0
1774822062.547855,2.8133392333984375e-05,2026-03-29T22:07:42.547,2026-03-29T18:07:42.547,-32154.344999999998,-49381.65,-84686.895,-50041.799999999996,-14581.08,-19881.945,5129.91,-58739.805,-0.5484430172689602,-2.2087965834925467,-3.8273955041812195,-0.01833335324110747,0.08516053157569962,-0.66454375990314,1.7774736522257562,0.879853688406643,0.12316863,-0.89587173,0.453917295,-6.62284,-16.1756,9.5375,72.0
1774822062.5478625,7.62939453125e-06,2026-03-29T22:07:42.547,2026-03-29T18:07:42.547,-32155.02,-49382.505,-84688.245,-50052.689999999995,-14589.494999999999,-19886.625,5128.155,-58740.299999999996,-0.07643205577954591,-3.481854846460552,-5.718285322909955,-0.5342227823173361,0.20770439509903163,-0.37272735662618894,2.2948203490224643,1.6117606526604162,0.12316863,-0.89587173,0.453917295,-6.62284,-16.1756,9.5375,72.0
1774822062.554068,0.006205558776855469,2026-03-29T22:07:42.554,2026-03-29T18:07:42.554,-32148.495,-49381.38,-84691.665,-50053.814999999995,-14591.744999999999,-19888.875,5127.57,-58737.24,0.4324432332284768,-3.100250756723121,-4.851289059838478,-0.68288567553295,0.32012139612092466,0.2168228374038932,1.7767071477958376,1.5923283223323763,0.12316863,-0.89587173,0.453917295,-6.62284,-16.1756,9.5375,72.0
1774822062.5540895,2.1457672119140625e-05,2026-03-29T22:07:42.554,2026-03-29T18:07:42.554,-32142.6,-49377.645,-84688.065,-50049.765,-14589.135,-19885.77,5130.36,-58734.045,0.722069016051215,-1.3151117728226576,-1.6987793400530926,-0.42736115787662654,0.3289265470430005,0.7836373424246039,0.4423846031509962,0.8552783786051257,0.12316863,-0.89587173,0.453917295,-6.62284,-16.1756,9.5375,72.0
1774822062.5566237,0.002534151077270508,2026-03-29T22:07:42.556,2026-03-29T18:07:42.556,-32142.735,-49378.229999999996,-84688.11,-50049.674999999996,-14589.855,-19886.94,5129.91,-58735.755,0.6520003049715273,0.9812420496691685,2.177584913502452,0.033512838677481234,0.16296724293708428,0.9778176584767111,-1.114044043995868,-0.23357765245191173,0.12060516,-0.8947731,0.44903449500000003,-4.66956,-18.311999999999998,8.43878,72.0
1774822062.556652,2.8371810913085938e-05,2026-03-29T22:07:42.556,2026-03-29T18:07:42.556,-32159.295,-49381.604999999996,-84685.41,-50046.165,-14586.615,-19885.23,5124.87,-58753.079999999994,0.2653587322628191,2.7042824664592793,4.906704981036371,0.397288091284376,-0.160026965847386,0.6270796264623139,-2.1856998261215126,-1.1607214310853935,0.12060516,-0.8947731,0.44903449500000003,-4.66956,-18.311999999999998,8.43878,72.0
1774822062.5615013,0.00484919548034668,2026-03-29T22:07:42.561,2026-03-29T18:07:42.561,-32162.805,-49379.805,-84681.58499999999,-50040.99,-14582.519999999999,-19882.395,5118.885,-58759.47,-0.23874694283513234,3.094498713272156,5.220371809560227,0.4445048786507242,-0.510514206455929,-0.14098509740716852,-2.273098189281546,-1.5130476399321307,0.12060516,-0.8947731,0.44903449500000003,-4.66956,-18.311999999999998,8.43878,72.0
1774822062.56152,1.8835067749023438e-05,2026-03-29T22:07:42.561,2026-03-29T18:07:42.561,-32162.355,-49381.29,-84685.31999999999,-50042.34,-14586.029999999999,-19887.344999999998,5115.105,-58758.119999999995,-0.6104559747595637,2.0538789028553683,3.049033412206315,0.1688099740369344,-0.695045489119425,-0.9402546873718172,-1.3179051981569117,-1.16681848319063,0.12060516,-0.8947731,0.44903449500000003,-4.66956,-18.311999999999998,8.43878,72.0
1774822062.564768,0.003247976303100586,2026-03-29T22:07:42.564,2026-03-29T18:07:42.564,-32155.155,-49377.78,-84684.51,-50040.99,-14587.47,-19891.35,5123.429999999999,-58750.829999999994,-0.6753075785428361,0.1518951914895267,-0.48179102529077183,-0.22543266279410354,-0.5599872699047785,-1.3211256873723403,0.25969432238823753,-0.3284492946007446,0.12060516,-0.8947731,0.44903449500000003,-4.66956,-18.311999999999998,8.43878,72.0
1774822062.5647893,2.1219253540039062e-05,2026-03-29T22:07:42.564,2026-03-29T18:07:42.564,-32149.62,-49375.395,-84681.72,-50040.36,-14587.515,-19890.54,5130.36,-58743.494999999995,-0.416684182474432,-1.6826111720021295,-3.6354399477133437,-0.4553113495400566,-0.09656619618913559,-1.0203175094593748,1.7433863854163318,0.5847472546120815,0.12060516,-0.8947731,0.44903449500000003,-4.66956,-18.311999999999998,8.43878,72.0
1774822062.571024,0.006234645843505859,2026-03-29T22:07:42.571,2026-03-29T18:07:42.571,-32156.055,-49388.49,-84699.62999999999,-50054.58,-14597.055,-19892.7,5134.5,-58746.195,0.024492191956579187,-2.618190482146267,-4.924968584416207,-0.3414413227181884,0.5185332510325474,-0.12782990770609692,2.4452632123974385,1.1561295692437477,0.12060516,-0.8947731,0.44903449500000003,-4.66956,-18.311999999999998,8.43878,72.0
1774822062.5710514,2.7418136596679688e-05,2026-03-29T22:07:42.571,2026-03-29T18:07:42.571,-32155.559999999998,-49391.055,-84706.33499999999,-50057.369999999995,-14597.369999999999,-19886.489999999998,5130.63,-58749.615,0.42782400213850946,-2.3000784146443234,-3.821074893295425,0.07067552556476758,0.9848377320837395,0.9298676333316593,2.0259631326175893,1.1643829868941635,0.12060516,-0.8947731,0.44903449500000003,-4.66956,-18.311999999999998,8.43878,72.0
1774822062.573148,0.0020966529846191406,2026-03-29T22:07:42.573,2026-03-29T18:07:42.573,-32163.93,-49383.99,-84689.955,-50045.085,-14584.68,-19873.665,5128.605,-58764.015,0.6054953232695408,-0.9778920667427804,-0.9668892783322145,0.5264595487785307,1.0243483596832037,1.5954359866588828,0.6608017002840034,0.6678907408039026,0.12060516,-0.8947731,0.44903449500000003,-4.66956,-18.311999999999998,8.43878,72.0
1774822062.5731688,2.0742416381835938e-05,2026-03-29T22:07:42.573,2026-03-29T18:07:42.573,-32163.75,-49379.265,-84681.9,-50043.915,-14588.279999999999,-19880.145,5125.59,-58769.055,0.49050502453332323,0.6599845431660146,2.1859674806110436,0.7113338557536675,0.5414691575780257,1.4751498609071243,-1.0305361217105675,-0.052669219456818094,0.12060516,-0.8947731,0.44903449500000003,-4.66956,-18.311999999999998,8.43878,72.0
1774822062.5764427,0.0032739639282226562,2026-03-29T22:07:42.576,2026-03-29T18:07:42.576,-32157.809999999998,-49380.165,-84686.44499999999,-50046.57,-14591.564999999999,-19884.78,5125.724999999999,-58762.215,0.1593925107023927,1.8437639057453707,4.117907853172411,0.4485245870844301,-0.2933322199333504,0.5663248337899782,-2.2645085036042776,-0.6516978846496075,0.11553925500000001,-0.89953383,0.443297205,-5.17314,-22.157519999999998,8.22514,72.0
1774822062.5764549,1.2159347534179688e-05,2026-03-29T22:07:42.576,2026-03-29T18:07:42.576,-32153.039999999997,-49375.71,-84681.045,-50040.405,-14587.019999999999,-19881.63,5124.105,-58759.695,-0.21635696576286342,2.086101376649479,3.979485110029128,-0.17264947214370624,-1.0952604589995552,-0.7115557127380323,-2.458003760162391,-0.888089113366008,0.11553925500000001,-0.89953383,0.443297205,-5.17314,-22.157519999999998,8.22514,72.0
1774822062.581044,0.004589080810546875,2026-03-29T22:07:42.581,2026-03-29T18:07:42.581,-32152.59,-49376.97,-84680.50499999999,-50034.015,-14583.51,-19879.605,5121.09,-58759.74,-0.46021214864237436,1.3794695069785854,1.9658516206005037,-0.8213901830483263,-1.4425867073612741,-1.7119595743387233,-1.5064093704912291,-0.7217048234157262,0.11553925500000001,-0.89953383,0.443297205,-5.17314,-22.157519999999998,8.22514,72.0
1774822062.5810845,4.0531158447265625e-05,2026-03-29T22:07:42.581,2026-03-29T18:07:42.581,-32156.774999999998,-49385.384999999995,-84691.485,-50038.965,-14587.695,-19883.114999999998,5124.96,-58761.765,-0.4741573545068804,0.14909746898647913,-0.8378319843055057,-1.1003438738404443,-1.098053950482444,-1.8912866459841413,0.15844732522666458,-0.2984769736025095,0.11553925500000001,-0.89953383,0.443297205,-5.17314,-22.157519999999998,8.22514,72.0
1774822062.5845172,0.003432750701904297,2026-03-29T22:07:42.584,2026-03-29T18:07:42.584,-32156.82,-49384.71,-84694.275,-50046.39,-14590.394999999999,-19881.63,5143.815,-58759.38,-0.27611832764617195,-0.9918968294491342,-3.0364572092403583,-0.7787706991395213,-0.1581845296690678,-1.1040659814895135,1.7631417923442092,0.15246881468280016,0.11553925500000001,-0.89953383,0.443297205,-5.17314,-22.157519999999998,8.22514,72.0
1774822062.5845385,2.1219253540039062e-05,2026-03-29T22:07:42.584,2026-03-29T18:07:42.584,-32159.34,-49383.99,-84690.045,-50045.174999999996,-14591.789999999999,-19884.059999999998,5141.565,-58764.015,0.021661655330665646,-1.5479489729130753,-3.6220707414104605,0.04927263895080835,0.9592260331885005,0.29678776385400935,2.553055927882736,0.4435599660945466,0.11553925500000001,-0.89953383,0.443297205,-5.17314,-22.157519999999998,8.22514,72.0
1774822062.5897489,0.005210399627685547,2026-03-29T22:07:42.589,2026-03-29T18:07:42.589,-32159.699999999997,-49386.555,-84692.61,-50036.625,-14585.58,-19883.16,5135.264999999999,-58766.04,0.2758517054602774,-1.3547900090815777,-2.4381889848478315,0.9813334556391821,1.7003804380861354,1.6185212648121838,2.1498703167392104,0.5070032052153568,0.11553925500000001,-0.89953383,0.443297205,-5.17314,-22.157519999999998,8.22514,72.0
1774822062.5897725,2.3603439331054688e-05,2026-03-29T22:07:42.589,2026-03-29T18:07:42.589,-32161.905,-49386.33,-84681.94499999999,-50035.409999999996,-14586.84,-19884.015,5130.8099999999995,-58768.38,0.3813268179583838,-0.6101983028014426,-0.19640645847286783,1.5037026993768412,1.6518045679404918,2.17460696993098,0.7354447547732804,0.39355796307453117,0.11553925500000001,-0.89953383,0.443297205,-5.17314,-22.157519999999998,8.22514,72.0
1774822062.592913,0.0031404495239257812,2026-03-29T22:07:42.592,2026-03-29T18:07:42.592,-32154.614999999998,-49377.33,-84677.985,-50050.575,-14596.74,-19885.094999999998,5133.0599999999995,-58761.494999999995,0.31284180646606075,0.27009053220361406,1.9347570708025366,1.2720694555327914,0.7690623600559864,1.64393346550613,-1.0286314528728653,0.2084962096255121,0.11553925500000001,-0.89953383,0.443297205,-5.17314,-22.157519999999998,8.22514,72.0
1774822062.5929291,1.621246337890625e-05,2026-03-29T22:07:42.592,2026-03-29T18:07:42.592,-32145.254999999997,-49367.79,-84664.125,-50043.915,-14596.74,-19882.844999999998,5131.304999999999,-58748.715,0.12372692573826705,0.8787272219276697,2.9370765820481872,0.32332037233321953,-0.5678266199225329,0.25417819722603663,-2.311121628148576,0.03523223636916905,0.11553925500000001,-0.89953383,0.443297205,-5.17314,-22.157519999999998,8.22514,72.0
1774822062.5967135,0.0037844181060791016,2026-03-29T22:07:42.596,2026-03-29T18:07:42.596,-32152.364999999998,-49377.869999999995,-84679.965,-50052.6,-14602.904999999999,-19893.87,5127.21,-58759.2,-0.09054453275409394,1.0041206514526182,2.430875747121737,-0.9066823355991913,-1.7162553509798009,-1.3143411431742644,-2.5051801299890784,-0.10327403602022815,0.11181612,-0.906308715,0.441588225,-10.1479,-27.74268,9.72062,72.0
1774822062.5967305,1.6927719116210938e-05,2026-03-29T22:07:42.596,2026-03-29T18:07:42.596,-32150.295,-49378.095,-84683.79,-50054.715,-14604.615,-19896.93,5121.09,-58760.46,-0.2405511144926501,0.6931980445846917,0.8092888138660551,-1.785205381082809,-2.082389897022594,-2.2646406917679522,-1.5183201824638848,-0.22677627248914872,0.11181612,-0.906308715,0.441588225,-10.1479,-27.74268,9.72062,72.0
1774822062.6008146,0.004084110260009766,2026-03-29T22:07:42.600,2026-03-29T18:07:42.600,-32150.565,-49374.045,-84679.605,-50046.705,-14596.289999999999,-19888.649999999998,5122.035,-58765.545,-0.2784370594774589,0.17836124631048245,-1.0229137465944216,-1.8101546252185587,-1.4301118751900466,-2.0916333021492797,0.18168353678501764,-0.34597833830379415,0.11181612,-0.906308715,0.441588225,-10.1479,-27.74268,9.72062,72.0
1774822062.6008313,1.6689300537109375e-05,2026-03-29T22:07:42.600,2026-03-29T18:07:42.600,-32158.44,-49378.365,-84682.75499999999,-50043.06,-14590.755,-19883.745,5126.04,-58776.119999999995,-0.2077069711685623,-0.2720898414195659,-2.145091536226643,-0.892660381094654,-0.02609034813494636,-0.8523555686314062,1.7885822651273648,-0.422556346180692,0.11181612,-0.906308715,0.441588225,-10.1479,-27.74268,9.72062,72.0
1774822062.60669,0.005858659744262695,2026-03-29T22:07:42.606,2026-03-29T18:07:42.606,-32156.37,-49376.43,-84679.29,-50040.9,-14589.269999999999,-19881.09,5130.585,-58775.13,-0.06977723274269884,-0.4905689862799334,-2.0827778003436648,0.5625305131992621,1.4653463699236184,0.84724093847403,2.541843883499135,-0.37776825151381,0.11181612,-0.906308715,0.441588225,-10.1479,-27.74268,9.72062,72.0
1774822062.6067047,1.4781951904296875e-05,2026-03-29T22:07:42.606,2026-03-29T18:07:42.606,-32148.495,-49367.025,-84670.605,-50037.615,-14587.695,-19877.445,5134.635,-58770.99,0.07981378288381187,-0.4654754032900493,-1.004186776365754,1.836271672686485,2.2985125427044815,2.150164652339881,2.0891320374767983,-0.15076582905784972,0.11181612,-0.906308715,0.441588225,-10.1479,-27.74268,9.72062,72.0
1774822062.6088257,0.0021209716796875,2026-03-29T22:07:42.608,2026-03-29T18:07:42.608,-32146.379999999997,-49366.305,-84672.045,-50035.095,-14585.22,-19875.375,5133.6449999999995,-58768.965,0.1919391066869306,-0.3016382825147624,0.4277926768159468,2.254330826005692,2.02241106589511,2.3837093351123566,0.6529506644438647,0.23135801811521442,0.11181612,-0.906308715,0.441588225,-10.1479,-27.74268,9.72062,72.0
1774822062.6088424,1.6689300537109375e-05,2026-03-29T22:07:42.608,2026-03-29T18:07:42.608,-32152.184999999998,-49376.115,-84683.52,-50039.505,-14590.845,-19881.135,5137.245,-58770.81,0.23463508030116306,-0.12702559157166257,1.4439798706728226,1.5456523896887902,0.725557857252936,1.4097306388493362,-1.0782929662488847,0.6257505283882597,0.11181612,-0.906308715,0.441588225,-10.1479,-27.74268,9.72062,72.0
1774822062.6139429,0.0051004886627197266,2026-03-29T22:07:42.613,2026-03-29T18:07:42.613,-32167.125,-49392.99,-84703.095,-50054.895,-14604.345,-19894.094999999998,5134.139999999999,-58781.7,0.1959901553243176,-0.010697082264452437,1.5768735575328132,0.008794227748840424,-0.9833752404656257,-0.2935823649611112,-2.281527660612617,0.8220717920891932,0.11181612,-0.906308715,0.441588225,-10.1479,-27.74268,9.72062,72.0
1774822062.6140053,6.246566772460938e-05,2026-03-29T22:07:42.614,2026-03-29T18:07:42.614,-32158.844999999998,-49383.45,-84693.23999999999,-50055.84,-14605.289999999999,-19892.16,5134.5,-58776.884999999995,0.08476659048668075,0.05996113056250384,0.8737734579381763,-1.6121678405058404,-2.2619084488686223,-1.8663869329673644,-2.392332555628236,0.6539863573570024,0.11181612,-0.906308715,0.441588225,-10.1479,-27.74268,9.72062,72.0
1774822062.616793,0.0027875900268554688,2026-03-29T22:07:42.616,2026-03-29T18:07:42.616,-32151.285,-49379.85,-84692.385,-50061.104999999996,-14610.734999999999,-19895.13,5134.7699999999995,-58769.145,-0.06852011399254584,0.13832602832707858,-0.18106645945540797,-2.491757531549183,-2.4520939567326607,-2.5030089740478294,-1.3711684643827513,0.11516933901004535,0.112243365,-0.912656355,0.448424145,-13.154119999999999,-29.009259999999998,11.17032,72.0
1774822062.6168077,1.4781951904296875e-05,2026-03-29T22:07:42.616,2026-03-29T18:07:42.616,-32152.14,-49382.145,-84695.31,-50060.159999999996,-14611.5,-19896.93,5130.945,-58770.0,-0.21328619451145345,0.25141820682905425,-0.9702903909474732,-2.147421375710685,-1.421826769439964,-1.867156893129917,0.28388471640721,-0.5939835936300153,0.112243365,-0.912656355,0.448424145,-13.154119999999999,-29.009259999999998,11.17032,72.0
1774822062.6247566,0.007948875427246094,2026-03-29T22:07:42.624,2026-03-29T18:07:42.624,-32154.48,-49377.869999999995,-84687.56999999999,-50050.125,-14600.925,-19888.245,5132.835,-58775.13,-0.289609678300371,0.35874224852857156,-1.0923763847969088,-0.7044438640008233,0.3489026613073068,-0.2715903018707228,1.7810460657571858,-1.1333180502330626,0.112243365,-0.912656355,0.448424145,-13.154119999999999,-29.009259999999998,11.17032,72.0
1774822062.624783,2.6464462280273438e-05,2026-03-29T22:07:42.624,2026-03-29T18:07:42.624,-32162.805,-49375.665,-84681.405,-50042.97,-14592.779999999999,-19880.91,5135.22,-58788.99,-0.25053345361873247,0.36921113739301387,-0.5630071376908816,1.1437237830032556,1.9906407984813834,1.4742452481756818,2.4152263164171788,-1.1861230037005557,0.112243365,-0.912656355,0.448424145,-13.154119999999999,-29.009259999999998,11.17032,72.0
1774822062.631873,0.007089853286743164,2026-03-29T22:07:42.631,2026-03-29T18:07:42.631,-32161.454999999998,-49377.24,-84686.265,-50047.604999999996,-14598.494999999999,-19885.094999999998,5137.155,-58786.92,-0.08925967876535496,0.20735729102212078,0.23088874602179704,2.471144796934307,2.6731369174759125,2.4747794655098647,1.9010414864799687,-0.6402776146706621,0.112243365,-0.912656355,0.448424145,-13.154119999999999,-29.009259999999998,11.17032,72.0
1774822062.6318915,1.8596649169921875e-05,2026-03-29T22:07:42.631,2026-03-29T18:07:42.631,-32154.93,-49373.955,-84678.885,-50044.005,-14600.025,-19885.815,5135.49,-58779.405,0.14383289423452186,-0.11545460370251148,0.7824361182596923,2.5875334865368966,2.027866306056474,2.208643303170381,0.5004675019390565,0.31425399565694206,0.112243365,-0.912656355,0.448424145,-13.154119999999999,-29.009259999999998,11.17032,72.0
1774822062.6319077,1.621246337890625e-05,2026-03-29T22:07:42.631,2026-03-29T18:07:42.631,-32151.914999999997,-49372.695,-84673.98,-50038.65,-14599.98,-19888.29,5128.83,-58775.715,0.3497308970189962,-0.47646256026118006,0.7682472977573139,1.4004891177809249,0.3483470141112676,0.8017482402693933,-1.1115624506619257,1.2403271993703235,0.112243365,-0.912656355,0.448424145,-13.154119999999999,-29.009259999999998,11.17032,72.0
1774822062.6319132,5.4836273193359375e-06,2026-03-29T22:07:42.631,2026-03-29T18:07:42.631,-32154.39,-49382.909999999996,-84689.145,-50048.415,-14607.225,-19897.649999999998,5120.955,-58776.975,0.4194736987771191,-0.6890376140038124,0.22941183153614964,-0.5192981028327334,-1.5407934305345306,-1.0302481673534774,-2.1740492582312037,1.6527761224344029,0.112243365,-0.912656355,0.448424145,-13.154119999999999,-29.009259999999998,11.17032,72.0
1774822062.63192,6.9141387939453125e-06,2026-03-29T22:07:42.631,2026-03-29T18:07:42.631,-32154.164999999997,-49388.715,-84701.295,-50062.77,-14615.73,-19902.51,5123.925,-58774.229999999996,0.2898712410178786,-0.603095153643791,-0.46810383883943474,-2.2126210862865476,-2.688755691098061,-2.344506157171268,-2.1998297595309872,1.2715724323264481,0.112243365,-0.912656355,0.448424145,-13.154119999999999,-29.009259999999998,11.17032,72.0
1774822062.6319249,4.76837158203125e-06,2026-03-29T22:07:42.631,2026-03-29T18:07:42.631,-32148.765,-49386.78,-84704.4,-50073.345,-14626.529999999999,-19909.485,5128.605,-58769.369999999995,-0.011443827069173528,-0.20288970435532358,-0.8633627818734461,-2.813835012916029,-2.498462091353453,-2.455204182699664,-1.1976212069293404,0.1973023221761956,0.112243365,-0.912656355,0.448424145,-13.154119999999999,-29.009259999999998,11.17032,72.0
1774822062.6424334,0.010508537292480469,2026-03-29T22:07:42.642,2026-03-29T18:07:42.642,-32152.995,-49374.99,-84684.465,-50058.314999999995,-14614.019999999999,-19898.28,5135.13,-58780.215,-0.3604789450073839,0.3584161906239414,-0.6828115086929445,-1.9969908797800506,-1.0385820397631782,-1.290976167433738,0.3444421893814932,-1.0958026565533108,0.11523408,-0.92492439,0.459654585,-11.841759999999999,-26.41506,14.51226,72.0
1774822062.6424708,3.743171691894531e-05,2026-03-29T22:07:42.642,2026-03-29T18:07:42.642,-32147.82,-49375.485,-84691.575,-50064.03,-14619.6,-19906.829999999998,5132.205,-58775.895,-0.5834864221399687,0.8168215076283517,-0.009825793029618982,-0.15484091223402693,0.9757511765404758,0.5604153600179639,1.6988130158823211,-1.9665540904258607,0.11523408,-0.92492439,0.459654585,-11.841759999999999,-26.41506,14.51226,72.0
1774822062.6425054,3.457069396972656e-05,2026-03-29T22:07:42.642,2026-03-29T18:07:42.642,-32154.48,-49379.4,-84692.06999999999,-50059.755,-14614.289999999999,-19902.015,5129.1449999999995,-58782.329999999994,-0.5408531406068178,0.9261952732645266,0.7573579422026869,1.7879803203835416,2.5319121204051553,2.147142561645586,2.24269227279528,-1.9244386841549812,0.11523408,-0.92492439,0.459654585,-11.841759999999999,-26.41506,14.51226,72.0
1774822062.6425226,1.71661376953125e-05,2026-03-29T22:07:42.642,2026-03-29T18:07:42.642,-32158.305,-49377.509999999995,-84685.185,-50053.814999999995,-14610.734999999999,-19895.67,5127.885,-58789.259999999995,-0.20887529920498155,0.59270146512547,1.1363403084328367,2.839466930952465,2.8284713601024123,2.6403191646528867,1.7427185181815246,-0.9008435096867722,0.11523408,-0.92492439,0.459654585,-11.841759999999999,-26.41506,14.51226,72.0
