unix_time_s,dt_s,UTC,LOCAL,EMG1_Raw,EMG2_Raw,EMG3_Raw,EMG4_Raw,EMG5_Raw,EMG6_Raw,EMG7_Raw,EMG8_Raw,EMG1_Filtered,EMG2_Filtered,EMG3_Filtered,EMG4_Filtered,EMG5_Filtered,EMG6_Filtered,EMG7_Filtered,EMG8_Filtered,Accel1_Raw,Accel2_Raw,Accel3_Raw,Gyro1_Raw,Gyro2_Raw,Gyro3_Raw,Battery
1774823837.403623,,2026-03-29T22:37:17.403,2026-03-29T18:37:17.403,-20077.38,-45665.145,-76444.73999999999,-48191.13,-7933.41,-15945.705,8701.425,-59526.134999999995,-0.1747406576816131,-0.806401924277894,-1.930309710454307,-4.879509292616757,-1.4583330907644116,-0.4969845540402778,0.0072854958431253745,-0.009445213695957168,0.054015975,-0.985532145,0.19702098,-2.88414,3.78448,-12.86418,67.0
1774823837.4036508,2.765655517578125e-05,2026-03-29T22:37:17.403,2026-03-29T18:37:17.403,-20094.614999999998,-45636.075,-76384.845,-48193.155,-7913.025,-15922.305,8725.005,-59557.77,-5.576255874975268,0.7896783207562421,5.217782761539681,-8.025299647758777,0.9968951400797705,5.53349659286804,6.354653959580699,-7.8085683664978776,0.054015975,-0.985532145,0.19702098,-2.88414,3.78448,-12.86418,67.0
1774823837.4078715,0.004220724105834961,2026-03-29T22:37:17.407,2026-03-29T18:37:17.407,-20068.29,-45635.805,-76389.075,-48227.895,-7946.1449999999995,-15949.664999999999,8720.279999999999,-59522.22,-8.633826093555989,2.0483516402292965,10.283007100154814,-6.333615351145025,3.5893208753132937,9.313540862015662,9.874158988407098,-12.36831660992671,0.054015975,-0.985532145,0.19702098,-2.88414,3.78448,-12.86418,67.0
1774823837.407889,1.7404556274414062e-05,2026-03-29T22:37:17.407,2026-03-29T18:37:17.407,-20049.93,-45625.14,-76353.48,-48158.369999999995,-7940.745,-15954.39,8711.73,-59503.814999999995,-7.952223930541917,2.4165201326680665,10.90739063669041,-0.3604438039048943,5.177441731276548,9.137029160482273,8.910457710877957,-11.593216034473883,0.054015975,-0.985532145,0.19702098,-2.88414,3.78448,-12.86418,67.0
1774823837.420032,0.012143135070800781,2026-03-29T22:37:17.420,2026-03-29T18:37:17.420,-20052.945,-45627.345,-76349.16,-48128.49,-7928.73,-15941.25,8712.135,-59507.369999999995,-3.764406584790134,1.7355458367091399,6.658274934788867,6.711681977149865,4.780230945940264,4.981466161884931,3.8610480223254875,-5.700821688377419,0.054015975,-0.985532145,0.19702098,-2.88414,3.78448,-12.86418,67.0
1774823837.420052,2.002716064453125e-05,2026-03-29T22:37:17.420,2026-03-29T18:37:17.420,-20068.155,-45645.479999999996,-76380.61499999999,-48153.465,-7933.86,-15939.765,8712.945,-59519.115,2.144072612759138,0.3098300937451984,-0.7063691456035681,10.735043266790775,2.1387133284216153,-1.4423349914424257,-2.9896079171370915,2.821513402718855,0.054015975,-0.985532145,0.19702098,-2.88414,3.78448,-12.86418,67.0
1774823837.4201157,6.365776062011719e-05,2026-03-29T22:37:17.420,2026-03-29T18:37:17.420,-20058.704999999998,-45648.18,-76393.53,-48158.189999999995,-7939.665,-15953.22,8708.49,-59507.505,7.201203607595532,-1.2322261338928417,-7.962613644608864,8.932197394284119,-1.9606415319833157,-7.395276975649388,-8.513765693983778,10.271553981151747,0.05627427,-0.98156487,0.196959945,-7.721559999999999,3.3419399999999997,-11.979099999999999,67.0
1774823837.4201221,6.4373016357421875e-06,2026-03-29T22:37:17.420,2026-03-29T18:37:17.420,-20051.73,-45659.79,-76411.26,-48170.34,-7947.674999999999,-15962.849999999999,8698.86,-59490.18,9.174230067844872,-2.2198492002795405,-11.83811122026426,1.6237717596295056,-5.845466795565692,-10.278720055680127,-10.180217801579508,13.34907094936298,0.05627427,-0.98156487,0.196959945,-7.721559999999999,3.3419399999999997,-11.979099999999999,67.0
1774823837.4201307,8.58306884765625e-06,2026-03-29T22:37:17.420,2026-03-29T18:37:17.420,-20050.245,-45665.685,-76429.035,-48204.99,-7968.735,-15971.939999999999,8697.824999999999,-59486.579999999994,7.159468034175756,-2.235803352932245,-10.496810323142576,-7.668441016271864,-7.623748968139108,-8.76818699138392,-7.221887592718589,10.624697421274483,0.05627427,-0.98156487,0.196959945,-7.721559999999999,3.3419399999999997,-11.979099999999999,67.0
1774823837.4201367,5.9604644775390625e-06,2026-03-29T22:37:17.420,2026-03-29T18:37:17.420,-20078.055,-45665.28,-76427.415,-48235.095,-7983.585,-15966.72,8710.335,-59523.57,1.995611488193199,-1.2944233007348713,-4.413679563793891,-13.916270135101776,-6.101151265445456,-3.4182467362591162,-0.9890215941418942,3.203978625599425,0.05627427,-0.98156487,0.196959945,-7.721559999999999,3.3419399999999997,-11.979099999999999,67.0
1774823837.422906,0.0027692317962646484,2026-03-29T22:37:17.422,2026-03-29T18:37:17.422,-20087.19,-45651.825,-76405.095,-48210.795,-7953.21,-15942.644999999999,8721.135,-59544.0,-4.088298826274837,0.17461669822992856,3.7790232965002093,-13.26337452566849,-1.5063912597710396,3.5358071115831233,5.6745848947590245,-5.721948678389209,0.05627427,-0.98156487,0.196959945,-7.721559999999999,3.3419399999999997,-11.979099999999999,67.0
1774823837.4229364,3.0517578125e-05,2026-03-29T22:37:17.422,2026-03-29T18:37:17.422,-20083.545,-45645.255,-76389.20999999999,-48172.14,-7923.375,-15930.449999999999,8720.055,-59542.56,-8.441080398265232,1.5246740040068474,10.432971365199636,-5.275570985839733,4.3925530392880425,9.111026113902904,9.740543069813523,-12.256022694459615,0.05627427,-0.98156487,0.196959945,-7.721559999999999,3.3419399999999997,-11.979099999999999,67.0
1774823837.4274652,0.00452876091003418,2026-03-29T22:37:17.427,2026-03-29T18:37:17.427,-20071.98,-45650.52,-76411.665,-48172.68,-7933.7699999999995,-15939.585,8719.11,-59526.494999999995,-9.150523037209016,2.180056098466537,12.517204130583227,6.5066318805376655,8.940701437310608,10.85583567520618,9.38210679304774,-13.505473980186963,0.05627427,-0.98156487,0.196959945,-7.721559999999999,3.3419399999999997,-11.979099999999999,67.0
1774823837.42748,1.4781951904296875e-05,2026-03-29T22:37:17.427,2026-03-29T18:37:17.427,-20065.545,-45652.365,-76425.12,-48192.119999999995,-7948.98,-15952.994999999999,8711.505,-59519.07,-5.886310275638685,1.8841291718104831,9.009137137735193,16.14037280442864,9.793433148022249,7.927447500954736,4.798556449021462,-8.868281109313035,0.05627427,-0.98156487,0.196959945,-7.721559999999999,3.3419399999999997,-11.979099999999999,67.0
1774823837.4308991,0.003419160842895508,2026-03-29T22:37:17.430,2026-03-29T18:37:17.430,-20066.985,-45656.369999999995,-76417.245,-48185.369999999995,-7946.19,-15955.92,8703.315,-59518.079999999994,-0.051927615473727214,0.7999840560072007,1.4007113129882094,18.279168943638822,6.118393429357288,1.4950211853220723,-1.895833158996884,-0.3213640770358487,0.05627427,-0.98156487,0.196959945,-7.721559999999999,3.3419399999999997,-11.979099999999999,67.0
1774823837.4309146,1.5497207641601562e-05,2026-03-29T22:37:17.430,2026-03-29T18:37:17.430,-20060.55,-45647.865,-76393.62,-48169.755,-7936.245,-15953.805,8700.164999999999,-59514.39,5.823549686869115,-0.575518063062891,-6.932349894197725,11.08375025187412,-0.811802027402017,-5.722495398975456,-7.656329859197358,8.426649255588867,0.05627427,-0.98156487,0.196959945,-7.721559999999999,3.3419399999999997,-11.979099999999999,67.0
1774823837.4703898,0.039475202560424805,2026-03-29T22:37:17.470,2026-03-29T18:37:17.470,-20058.21,-45646.83,-76392.855,-48190.005,-7940.79,-15960.644999999999,8703.63,-59515.2,9.18806757109303,-1.6402149465945595,-12.233885852171623,-2.519654265717823,-8.010417952016232,-10.603667108353344,-9.902919475856727,13.553002619248659,0.056945655,-0.981625905,0.19482372,-12.72684,0.82404,-10.62096,67.0
1774823837.4704084,1.8596649169921875e-05,2026-03-29T22:37:17.470,2026-03-29T18:37:17.470,-20053.079999999998,-45646.83,-76388.76,-48180.78,-7946.099999999999,-15964.289999999999,8706.42,-59509.395,8.580112120988531,-1.9525380622465769,-12.071960662155922,-16.014819665913123,-12.063726306546084,-10.974486930239769,-7.68200386380013,12.799637058279952,0.056945655,-0.981625905,0.19482372,-12.72684,0.82404,-10.62096,67.0
1774823837.4704256,1.71661376953125e-05,2026-03-29T22:37:17.470,2026-03-29T18:37:17.470,-20060.684999999998,-45639.45,-76363.2,-48148.064999999995,-7936.605,-15940.26,8713.71,-59517.99,4.265105546420414,-1.416969261942852,-6.466725789745348,-22.442217907285105,-10.7607643346942,-6.577887674342753,-2.0688644107399647,6.47250471466568,0.056945655,-0.981625905,0.19482372,-12.72684,0.82404,-10.62096,67.0
1774823837.4704332,7.62939453125e-06,2026-03-29T22:37:17.470,2026-03-29T18:37:17.470,-20075.085,-45657.63,-76395.87,-48192.165,-7948.98,-15925.095,8720.46,-59530.14,-1.8830643969742682,-0.3105523960108406,2.0866591039551827,-17.986331590037004,-4.282837280464371,0.7696121861402632,4.357403256365927,-2.6827835072783417,0.056945655,-0.981625905,0.19482372,-12.72684,0.82404,-10.62096,67.0
1774823837.470442,8.821487426757812e-06,2026-03-29T22:37:17.470,2026-03-29T18:37:17.470,-20073.105,-45673.02,-76427.775,-48224.205,-7960.815,-15943.5,8720.145,-59524.515,-7.2013713762584475,0.855466186871481,9.728894568257548,-4.154312959154683,4.681172037792985,7.923337477018164,8.707949370811665,-10.6783826576109,0.056945655,-0.981625905,0.19482372,-12.72684,0.82404,-10.62096,67.0
1774823837.4704483,6.198883056640625e-06,2026-03-29T22:37:17.470,2026-03-29T18:37:17.470,-20079.045,-45684.18,-76429.62,-48195.27,-7942.995,-15941.654999999999,8717.58,-59528.924999999996,-9.397177117394374,1.5717689104411812,12.987352879597388,12.668198257350955,12.043032359711223,11.755194686703847,9.090190932206994,-14.02999848780213,0.056945655,-0.981625905,0.19482372,-12.72684,0.82404,-10.62096,67.0
1774823837.4704556,7.3909759521484375e-06,2026-03-29T22:37:17.470,2026-03-29T18:37:17.470,-20078.73,-45672.479999999996,-76403.205,-48157.11,-7926.165,-15940.08,8713.44,-59529.195,-7.540460197404729,1.5564097553589926,10.369075050622197,24.197192010875604,14.19548530585021,10.524085264188516,5.432086937401214,-11.283150550688626,0.056945655,-0.981625905,0.19482372,-12.72684,0.82404,-10.62096,67.0
1774823837.4704611,5.4836273193359375e-06,2026-03-29T22:37:17.470,2026-03-29T18:37:17.470,-20076.165,-45653.985,-76395.015,-48140.369999999995,-7924.679999999999,-15947.01,8706.51,-59532.21,-2.4576512087758373,0.8689930521006021,3.0589095751964432,24.36155299509937,9.792910048730455,4.67107794281996,-0.5343753875886584,-3.648070378471629,0.056945655,-0.981625905,0.19482372,-12.72684,0.82404,-10.62096,67.0
1774823837.4704683,7.152557373046875e-06,2026-03-29T22:37:17.470,2026-03-29T18:37:17.470,-20067.344999999998,-45647.235,-76417.155,-48148.965,-7938.54,-15951.914999999999,8700.66,-59528.61,3.639617958432017,-0.13420542898806911,-5.609983107435937,12.491047523128852,0.5474444640187234,-3.32546138518388,-6.098657741719078,5.5355100488394,0.056945655,-0.981625905,0.19482372,-12.72684,0.82404,-10.62096,67.0
1774823837.4704745,6.198883056640625e-06,2026-03-29T22:37:17.470,2026-03-29T18:37:17.470,-20052.495,-45656.055,-76442.22,-48193.74,-7955.415,-15958.484999999999,8701.74,-59504.759999999995,8.122655860955248,-0.9785032523238341,-11.680397199213163,-6.09022350983522,-9.415088004653139,-9.995481589309941,-8.810098331395958,12.266270182703895,0.056945655,-0.981625905,0.19482372,-12.72684,0.82404,-10.62096,67.0
1774823837.4704819,7.3909759521484375e-06,2026-03-29T22:37:17.470,2026-03-29T18:37:17.470,-20044.079999999998,-45664.38,-76447.53,-48217.005,-7951.365,-15967.755,8696.565,-59486.13,9.084450641420181,-1.2960580122213121,-12.391844311692607,-22.477579322730236,-15.410609025494951,-12.38519194088384,-7.560301064711214,13.633897187654336,0.06066879,-0.98583732,0.19445751,-13.07782,-1.35814,-10.31576,67.0
1774823837.4704876,5.7220458984375e-06,2026-03-29T22:37:17.470,2026-03-29T18:37:17.470,-20046.78,-45666.99,-76442.715,-48247.335,-7964.415,-15976.98,8693.01,-59486.354999999996,6.153376491218421,-0.9914896507001459,-7.454114211016571,-28.50124965798149,-14.42304973779015,-9.371853038324497,-3.0303535724536412,9.084905785938107,0.06066879,-0.98583732,0.19445751,-13.07782,-1.35814,-10.31576,67.0
1774823837.4704947,7.152557373046875e-06,2026-03-29T22:37:17.470,2026-03-29T18:37:17.470,-20079.765,-45671.625,-76429.215,-48249.99,-7954.83,-15957.314999999999,8705.16,-59532.704999999994,0.6336105486499477,-0.2711015845146642,0.8221682557393175,-20.831051287035184,-6.632587283346606,-2.1974505859033227,2.6739890067076195,0.6479011359214878,0.06066879,-0.98583732,0.19445751,-13.07782,-1.35814,-10.31576,67.0
1774823837.4705005,5.7220458984375e-06,2026-03-29T22:37:17.470,2026-03-29T18:37:17.470,-20083.005,-45667.935,-76408.83,-48185.189999999995,-7936.11,-15950.07,8715.06,-59553.765,-5.079134964181138,0.47483803898114924,8.603498784514755,-2.794034689933743,4.533362664551675,6.035195389599141,7.005976671252931,-7.974166423419959,0.06066879,-0.98583732,0.19445751,-13.07782,-1.35814,-10.31576,67.0
1774823837.4705079,7.3909759521484375e-06,2026-03-29T22:37:17.470,2026-03-29T18:37:17.470,-20063.295,-45664.965,-76392.855,-48131.865,-7929.54,-15949.8,8711.685,-59529.24,-8.54317741539587,0.8757944614288308,12.319161182202668,17.078443049461505,13.91651514131939,11.704357228700605,8.118684090506155,-13.037481600737404,0.06066879,-0.98583732,0.19445751,-13.07782,-1.35814,-10.31576,67.0
1774823837.4705136,5.7220458984375e-06,2026-03-29T22:37:17.470,2026-03-29T18:37:17.470,-20065.905,-45667.799999999996,-76388.12999999999,-48126.465,-7920.9,-15937.244999999999,8713.35,-59529.06,-8.318955242852503,0.7675019525640244,10.31885037014959,29.136010458802897,17.037266498666977,12.269867425260996,5.650454798486851,-12.392642615698124,0.06066879,-0.98583732,0.19445751,-13.07782,-1.35814,-10.31576,67.0
1774823837.4705207,7.152557373046875e-06,2026-03-29T22:37:17.470,2026-03-29T18:37:17.470,-20060.46,-45655.335,-76380.345,-48133.71,-7920.8099999999995,-15932.474999999999,8716.86,-59522.985,-4.567822290099975,0.2668073077212624,3.624200768068819,27.348634123325965,12.259911691213503,7.422048245377592,0.822441857465587,-6.403300448446328,0.06066879,-0.98583732,0.19445751,-13.07782,-1.35814,-10.31576,67.0
1774823837.4705265,5.7220458984375e-06,2026-03-29T22:37:17.470,2026-03-29T18:37:17.470,-20064.78,-45630.99,-76367.295,-48154.365,-7938.63,-15937.965,8715.869999999999,-59526.54,1.0477360527691453,-0.3031357854413576,-4.5771483127066075,12.349308069261223,1.6550378735566262,-0.7454738462856432,-4.164518974127888,2.2473812565830475,0.06066879,-0.98583732,0.19445751,-13.07782,-1.35814,-10.31576,67.0
1774823837.4705343,7.867813110351562e-06,2026-03-29T22:37:17.470,2026-03-29T18:37:17.470,-20055.51,-45621.45,-76370.355,-48203.775,-7980.974999999999,-15960.689999999999,8704.215,-59518.935,6.105352911507469,-0.5978359730647328,-10.450981222344282,-8.766954469142393,-9.89760143681096,-8.636405130972598,-7.13607465815133,9.763411838176724,0.06066879,-0.98583732,0.19445751,-13.07782,-1.35814,-10.31576,67.0
1774823837.4705403,5.9604644775390625e-06,2026-03-29T22:37:17.470,2026-03-29T18:37:17.470,-20037.87,-45625.95,-76388.48999999999,-48256.335,-8000.46,-15969.914999999999,8704.529999999999,-59499.09,8.473171234380326,-0.4479074900294828,-11.324782257049923,-25.83951038133682,-16.977996275116872,-12.74098149175537,-6.89237964955137,12.911390803779808,0.06066879,-0.98583732,0.19445751,-13.07782,-1.35814,-10.31576,67.0
1774823837.474772,0.004231691360473633,2026-03-29T22:37:17.474,2026-03-29T18:37:17.474,-20060.864999999998,-45642.06,-76400.325,-48225.869999999995,-7965.8099999999995,-15958.89,8711.505,-59527.755,7.211561303354628,0.04083569692008663,-6.925102039381553,-30.590298702914794,-16.20111408948556,-11.209410277240439,-3.6850957735160206,10.42108097153713,0.064147785,-0.9936498,0.19592235,-8.805019999999999,-2.18218,-8.530339999999999,67.0
1774823837.4747877,1.5735626220703125e-05,2026-03-29T22:37:17.474,2026-03-29T18:37:17.474,-20067.57,-45637.56,-76376.745,-48155.49,-7904.835,-15920.099999999999,8723.475,-59540.04,2.943386665122837,0.5430264113915718,0.5390368013798019,-20.68818972961231,-7.8602754472246446,-4.698615695843475,0.9618543457803568,3.500113269889562,0.064147785,-0.9936498,0.19592235,-8.805019999999999,-2.18218,-8.530339999999999,67.0
1774823837.479338,0.00455021858215332,2026-03-29T22:37:17.479,2026-03-29T18:37:17.479,-20043.315,-45633.555,-76383.765,-48177.81,-7936.0199999999995,-15946.064999999999,8715.645,-59506.92,-2.451828904089124,0.7011005975137308,7.473546496102646,-0.9119159904338554,4.170370534493102,3.90155670208285,4.976032759576874,-4.747108103632856,0.064147785,-0.9936498,0.19592235,-8.805019999999999,-2.18218,-8.530339999999999,67.0
1774823837.479374,3.600120544433594e-05,2026-03-29T22:37:17.479,2026-03-29T18:37:17.479,-20054.655,-45642.915,-76399.425,-48200.445,-7966.665,-15970.095,8709.345,-59513.04,-6.6704428545360726,0.34487874775055405,10.63716177036581,19.176752843463003,14.250924759019112,10.753291725504294,6.661125195414978,-10.718674884286147,0.064147785,-0.9936498,0.19592235,-8.805019999999999,-2.18218,-8.530339999999999,67.0
1774823837.4838018,0.004427909851074219,2026-03-29T22:37:17.483,2026-03-29T18:37:17.483,-20078.55,-45654.21,-76417.245,-48178.665,-7940.34,-15955.83,8710.38,-59537.295,-7.973117257476567,-0.38167293119012974,8.676234515218384,29.90763292443456,17.651153300282257,12.795096736656808,5.410089548187555,-11.899157791724651,0.064147785,-0.9936498,0.19592235,-8.805019999999999,-2.18218,-8.530339999999999,67.0
1774823837.4838223,2.0503997802734375e-05,2026-03-29T22:37:17.483,2026-03-29T18:37:17.483,-20083.5,-45656.369999999995,-76410.045,-48154.725,-7906.86,-15931.439999999999,8712.72,-59546.475,-5.902871707846566,-1.0691180935761162,2.7205219753785896,26.216703020520434,12.802985061128052,9.125563232012132,1.9093273053648943,-7.926860813554907,0.064147785,-0.9936498,0.19592235,-8.805019999999999,-2.18218,-8.530339999999999,67.0
1774823837.4872935,0.0034711360931396484,2026-03-29T22:37:17.487,2026-03-29T18:37:17.487,-20072.969999999998,-45656.955,-76403.83499999999,-48161.384999999995,-7922.115,-15943.23,8706.735,-59535.72,-1.4358578302754088,-1.25656806456489,-4.2312007013111295,10.076078648619609,2.042606536850657,1.413666743641715,-2.2260405912144363,-0.6877044041785104,0.064147785,-0.9936498,0.19592235,-8.805019999999999,-2.18218,-8.530339999999999,67.0
1774823837.4873092,1.5735626220703125e-05,2026-03-29T22:37:17.487,2026-03-29T18:37:17.487,-20061.0,-45668.159999999996,-76423.095,-48190.59,-7943.4,-15956.189999999999,8702.145,-59515.47,3.4796847338407915,-0.7050393798307092,-8.81407143312512,-10.544449354377466,-9.51788302788239,-6.857354213908681,-5.196205636352629,6.578812442134605,0.064147785,-0.9936498,0.19592235,-8.805019999999999,-2.18218,-8.530339999999999,67.0
1774823837.4944127,0.007103443145751953,2026-03-29T22:37:17.494,2026-03-29T18:37:17.494,-20046.105,-45679.229999999996,-76450.185,-48229.424999999996,-7965.224999999999,-15965.595,8705.16,-59488.38,6.778301982143156,0.42163604594319537,-8.937929504030366,-25.642912494438615,-16.44317812712516,-11.97178267269097,-5.797918616991309,10.738418929329102,0.064147785,-0.9936498,0.19592235,-8.805019999999999,-2.18218,-8.530339999999999,67.0
1774823837.4944274,1.4781951904296875e-05,2026-03-29T22:37:17.494,2026-03-29T18:37:17.494,-20048.625,-45684.405,-76452.345,-48231.0,-7977.014999999999,-15975.359999999999,8700.57,-59486.265,7.148618447575816,1.5850702370659238,-4.760248777329482,-28.09142540150601,-15.564396386514028,-11.666876419261314,-3.905251479307609,10.124702879878,0.064147785,-0.9936498,0.19592235,-8.805019999999999,-2.18218,-8.530339999999999,67.0
1774823837.4944422,1.4781951904296875e-05,2026-03-29T22:37:17.494,2026-03-29T18:37:17.494,-20094.165,-45674.369999999995,-76402.34999999999,-48172.14,-7930.575,-15948.539999999999,8705.654999999999,-59551.244999999995,4.551845509231922,2.121653062218098,1.4712396187031278,-17.052745669381462,-7.456443143482259,-6.149889626689272,-0.4616347047451289,5.208028498993229,0.06689436,-0.99999744,0.197204085,-6.50076,-1.6022999999999998,-6.6381,67.0
1774823837.49445,7.867813110351562e-06,2026-03-29T22:37:17.494,2026-03-29T18:37:17.494,-20089.98,-45653.04,-76376.79,-48150.314999999995,-7906.32,-15928.605,8714.07,-59558.985,0.18376885251772307,1.6012938027538632,6.601022283832303,1.7532170020170208,3.8983733823383826,2.018296066809725,2.984130979115317,-1.6989014990928903,0.06689436,-0.99999744,0.197204085,-6.50076,-1.6022999999999998,-6.6381,67.0
1774823837.4993725,0.004922389984130859,2026-03-29T22:37:17.499,2026-03-29T18:37:17.499,-20059.155,-45640.845,-76380.12,-48181.77,-7935.929999999999,-15937.515,8715.015,-59521.049999999996,-4.078547446505745,0.10833931174879316,8.161032237412968,19.006396472288255,13.07535536187229,9.114347530716023,4.972200036229792,-7.531063009724186,0.06689436,-0.99999744,0.197204085,-6.50076,-1.6022999999999998,-6.6381,67.0
1774823837.4993916,1.9073486328125e-05,2026-03-29T22:37:17.499,2026-03-29T18:37:17.499,-20064.195,-45648.27,-76389.56999999999,-48177.045,-7951.365,-15945.93,8710.605,-59522.895,-6.488187499799276,-1.722844565266969,5.572666725309648,26.44044721957332,15.827331878311979,11.963354812504942,4.746401162803764,-9.841994157029074,0.06689436,-0.99999744,0.197204085,-6.50076,-1.6022999999999998,-6.6381,67.0
1774823837.5044365,0.0050449371337890625,2026-03-29T22:37:17.504,2026-03-29T18:37:17.504,-20086.38,-45656.28,-76405.095,-48155.805,-7934.94,-15936.885,8713.44,-59548.005,-6.144862329757282,-2.9704154598165236,0.3633262843209045,20.854505375033803,11.08155016202475,9.376884221285112,2.5327393208518343,-7.837358619515418,0.06689436,-0.99999744,0.197204085,-6.50076,-1.6022999999999998,-6.6381,67.0
1774823837.5044537,1.71661376953125e-05,2026-03-29T22:37:17.504,2026-03-29T18:37:17.504,-20093.265,-45660.869999999995,-76405.905,-48158.055,-7919.099999999999,-15927.119999999999,8711.73,-59556.645,-3.3221804168032127,-2.8813135912928165,-4.686033712227891,5.513609442659327,1.3603591623108393,2.6583772391055085,-0.6157857581425266,-2.6306445966179646,0.06689436,-0.99999744,0.197204085,-6.50076,-1.6022999999999998,-6.6381,67.0
1774823837.50726,0.002806425094604492,2026-03-29T22:37:17.507,2026-03-29T18:37:17.507,-20080.395,-45654.84,-76394.79,-48162.015,-7921.3949999999995,-15942.779999999999,8707.5,-59544.134999999995,0.7085806193786426,-1.2984961342697434,-7.002816347684814,-11.685433093924043,-8.541289779222467,-5.044397977870643,-3.315202324674466,3.3520592668610685,0.06689436,-0.99999744,0.197204085,-6.50076,-1.6022999999999998,-6.6381,67.0
1774823837.5072756,1.5497207641601562e-05,2026-03-29T22:37:17.507,2026-03-29T18:37:17.507,-20071.98,-45650.25,-76385.7,-48190.365,-7944.57,-15958.305,8706.914999999999,-59532.57,4.255046001329991,1.1744644597053047,-5.533622578806527,-22.27770917558528,-13.934628431087901,-10.221667881555346,-4.455944099307313,7.5081132044543075,0.06689436,-0.99999744,0.197204085,-6.50076,-1.6022999999999998,-6.6381,67.0
1774823837.5168228,0.009547233581542969,2026-03-29T22:37:17.516,2026-03-29T18:37:17.516,-20064.69,-45653.49,-76404.375,-48221.865,-7961.715,-15959.564999999999,8709.615,-59522.715,5.917243340820144,3.391120323712416,-1.2353726958829034,-21.43195195351186,-12.4858121176142,-10.61705433782523,-3.654470298793841,8.200549736240223,0.06689436,-0.99999744,0.197204085,-6.50076,-1.6022999999999998,-6.6381,67.0
1774823837.5168412,1.8358230590820312e-05,2026-03-29T22:37:17.516,2026-03-29T18:37:17.516,-20051.774999999998,-45647.009999999995,-76396.05,-48197.43,-7964.19,-15968.789999999999,8707.904999999999,-59511.195,5.135599687943355,4.191559241628305,3.488317607522129,-10.189453565651071,-5.2433269512585845,-6.224782504210939,-1.369782908651871,5.4001483810111415,0.06689436,-0.99999744,0.197204085,-6.50076,-1.6022999999999998,-6.6381,67.0
1774823837.5224469,0.0056056976318359375,2026-03-29T22:37:17.522,2026-03-29T18:37:17.522,-20053.215,-45647.189999999995,-76388.805,-48174.345,-7952.985,-15969.375,8702.1,-59511.825,2.3610792722815646,3.000108053945623,6.0914874383377375,5.313189632091834,4.016863587729183,0.7790131922734863,1.3432917347385112,0.5763342462351487,0.072814755,-1.00146228,0.198424785,-5.98192,-3.54032,-2.38056,67.0
1774823837.5224755,2.86102294921875e-05,2026-03-29T22:37:17.522,2026-03-29T18:37:17.522,-20075.489999999998,-45651.015,-76382.45999999999,-48167.505,-7932.87,-15939.314999999999,8711.685,-59532.615,-1.1934852051311053,0.18652405071848585,5.236810487994496,17.14072280546731,10.747993909449391,7.110496160516552,3.316862210716027,-4.0607794513403945,0.072814755,-1.00146228,0.198424785,-5.98192,-3.54032,-2.38056,67.0
1774823837.5225012,2.574920654296875e-05,2026-03-29T22:37:17.522,2026-03-29T18:37:17.522,-20080.17,-45645.479999999996,-76365.18,-48154.14,-7913.88,-15909.21,8720.324999999999,-59537.43,-4.087572936494956,-3.0211888674704923,1.4835944157954053,19.623221438176383,11.88112373789213,9.928649946893445,3.769844854247066,-6.580842794790331,0.072814755,-1.00146228,0.198424785,-5.98192,-3.54032,-2.38056,67.0
1774823837.5225132,1.1920928955078125e-05,2026-03-29T22:37:17.522,2026-03-29T18:37:17.522,-20075.489999999998,-45652.77,-76381.37999999999,-48152.115,-7921.44,-15920.685,8710.965,-59532.299999999996,-5.235240012878507,-5.0716581930271065,-3.0419860194302717,12.104477195696955,7.246329103144964,8.124628309783308,2.612577290916696,-6.141105172435932,0.072814755,-1.00146228,0.198424785,-5.98192,-3.54032,-2.38056,67.0
1774823837.5225294,1.621246337890625e-05,2026-03-29T22:37:17.522,2026-03-29T18:37:17.522,-20065.23,-45662.04,-76414.185,-48196.53,-7961.49,-15953.49,8704.08,-59523.165,-4.300576507606132,-4.84062086279739,-5.8108350398172774,-0.9704532779246738,-0.5018632706285442,2.7576145229309206,0.4397156939770101,-3.240947678792707,0.072814755,-1.00146228,0.198424785,-5.98192,-3.54032,-2.38056,67.0
1774823837.5225408,1.1444091796875e-05,2026-03-29T22:37:17.522,2026-03-29T18:37:17.522,-20062.665,-45668.7,-76426.73999999999,-48216.825,-7982.955,-15972.074999999999,8697.195,-59519.384999999995,-1.7687079426768406,-2.233585556256382,-5.265682714743999,-12.572050780669954,-7.3530726108583835,-3.5343069635017117,-1.7658163488257723,0.6379066392588927,0.072814755,-1.00146228,0.198424785,-5.98192,-3.54032,-2.38056,67.0
1774823837.5426607,0.020119905471801758,2026-03-29T22:37:17.542,2026-03-29T18:37:17.542,-20077.559999999998,-45675.314999999995,-76421.87999999999,-48201.075,-7957.44,-15958.439999999999,8696.52,-59531.085,1.303581098645073,1.6777633118268098,-1.6725393115478504,-16.820013664847686,-10.008956028500041,-7.831137590780052,-3.074050413109794,3.7823723559617246,0.072814755,-1.00146228,0.198424785,-5.98192,-3.54032,-2.38056,67.0
1774823837.542684,2.3365020751953125e-05,2026-03-29T22:37:17.542,2026-03-29T18:37:17.542,-20075.355,-45662.31,-76403.52,-48200.22,-7952.219999999999,-15952.32,8708.805,-59529.915,3.730006431693611,5.092126254773542,3.0084417686539515,-11.967096716609422,-7.486484094240227,-8.297215661369183,-2.9979463569608606,5.011352291800536,0.072814755,-1.00146228,0.198424785,-5.98192,-3.54032,-2.38056,67.0
1774823837.5427349,5.078315734863281e-05,2026-03-29T22:37:17.542,2026-03-29T18:37:17.542,-20055.239999999998,-45658.08,-76402.125,-48205.485,-7968.014999999999,-15970.365,8704.08,-59507.369999999995,4.643806235973343,6.312739335071631,6.170336891840789,-1.1172768380721712,-1.4703213499016503,-4.971898080327722,-1.669684946933002,4.107576821794242,0.072814755,-1.00146228,0.198424785,-5.98192,-3.54032,-2.38056,67.0
1774823837.542745,1.0251998901367188e-05,2026-03-29T22:37:17.542,2026-03-29T18:37:17.542,-20070.54,-45654.795,-76375.44,-48144.015,-7923.69,-15942.914999999999,8707.455,-59535.405,3.7882238005442663,4.590601503344511,5.972956169384614,9.615717548945206,4.705558981894592,0.35925103992317337,0.2580626761555364,1.7659218346919157,0.072814755,-1.00146228,0.198424785,-5.98192,-3.54032,-2.38056,67.0
1774823837.542756,1.0967254638671875e-05,2026-03-29T22:37:17.542,2026-03-29T18:37:17.542,-20081.295,-45661.545,-76393.125,-48128.58,-7893.495,-15911.55,8720.145,-59558.174999999996,1.5621872860633907,0.557181502921875,2.3690888972865887,14.462404116567184,7.8634370789533925,5.1044291925755045,1.9260189742287497,-0.8513765536409543,0.075256155,-1.002866085,0.201110325,-3.3419399999999997,-4.13546,1.0834599999999999,67.0
1774823837.5427647,8.58306884765625e-06,2026-03-29T22:37:17.542,2026-03-29T18:37:17.542,-20069.594999999998,-45685.845,-76445.235,-48165.255,-7918.875,-15928.785,8715.51,-59535.99,-1.167140783378865,-3.994770487316642,-2.8140347154263807,11.05596496572381,6.61139948302277,7.12809935754735,2.649096021029948,-2.690898646421368,0.075256155,-1.002866085,0.201110325,-3.3419399999999997,-4.13546,1.0834599999999999,67.0
1774823837.542775,1.0251998901367188e-05,2026-03-29T22:37:17.542,2026-03-29T18:37:17.542,-20063.114999999998,-45698.22,-76451.805,-48205.35,-7952.445,-15947.955,8713.08,-59521.14,-3.3957331893072755,-6.913674114908858,-6.801819104779801,1.5893548737634169,1.9627971823598747,5.719140495703597,2.1963693370160176,-3.2295074938437818,0.075256155,-1.002866085,0.201110325,-3.3419399999999997,-4.13546,1.0834599999999999,67.0
1774823837.5427835,8.58306884765625e-06,2026-03-29T22:37:17.542,2026-03-29T18:37:17.542,-20066.895,-45688.725,-76435.33499999999,-48223.395,-7967.384999999999,-15957.045,8708.67,-59518.935,-4.33441568787996,-6.712933954960669,-7.336772106400239,-8.494831246597437,-3.3327496696067938,1.8221460015258457,0.8564112389042305,-2.573197771071303,0.075256155,-1.002866085,0.201110325,-3.3419399999999997,-4.13546,1.0834599999999999,67.0
1774823837.5427945,1.0967254638671875e-05,2026-03-29T22:37:17.542,2026-03-29T18:37:17.542,-20075.805,-45662.31,-76412.745,-48230.64,-7973.73,-15965.82,8701.875,-59525.46,-3.6676477079168532,-3.3254954565336075,-3.914328406414008,-13.531123658161684,-6.343139593139007,-2.5321693145908117,-0.7258832955504383,-1.2504565756019475,0.075256155,-1.002866085,0.201110325,-3.3419399999999997,-4.13546,1.0834599999999999,67.0
1774823837.5428035,9.059906005859375e-06,2026-03-29T22:37:17.542,2026-03-29T18:37:17.542,-20091.015,-45642.869999999995,-76385.87999999999,-48212.595,-7962.165,-15953.894999999999,8705.115,-59557.049999999996,-1.6470137896079717,1.7933329682799652,1.8723866618152352,-10.726603407194817,-5.538582947612678,-5.272590044337024,-1.8547705782235677,0.13335967216904132,0.075256155,-1.002866085,0.201110325,-3.3419399999999997,-4.13546,1.0834599999999999,67.0
1774823837.5473087,0.004505157470703125,2026-03-29T22:37:17.547,2026-03-29T18:37:17.547,-20067.48,-45636.57,-76365.405,-48163.68,-7939.215,-15949.349999999999,8708.22,-59538.735,0.9999097080340209,6.295186694305395,7.087334384433529,-1.6644549146034826,-1.5642454302093576,-5.274586310599821,-2.0886662332721024,1.1741269543171058,0.075256155,-1.002866085,0.201110325,-3.3419399999999997,-4.13546,1.0834599999999999,67.0
1774823837.5473292,2.0503997802734375e-05,2026-03-29T22:37:17.547,2026-03-29T18:37:17.547,-20051.145,-45626.13,-76346.81999999999,-48140.685,-7926.12,-15948.9,8709.975,-59523.03,3.3139153072946477,8.025904010006146,8.942030234349883,8.5776429277564,3.187880253351518,-2.817084879838737,-1.4112969595051648,1.750558811731605,0.075256155,-1.002866085,0.201110325,-3.3419399999999997,-4.13546,1.0834599999999999,67.0
1774823837.5513103,0.003981113433837891,2026-03-29T22:37:17.551,2026-03-29T18:37:17.551,-20062.53,-45640.08,-76370.895,-48170.25,-7942.724999999999,-15945.119999999999,8709.39,-59533.695,4.429797064240158,6.06249216749659,6.263842503919791,14.207722623456121,5.947016016917382,0.6740984427889498,-0.2032149847062929,1.9185761139266022,0.075256155,-1.002866085,0.201110325,-3.3419399999999997,-4.13546,1.0834599999999999,67.0
1774823837.5513275,1.71661376953125e-05,2026-03-29T22:37:17.551,2026-03-29T18:37:17.551,-20073.059999999998,-45653.49,-76386.33,-48173.58,-7942.139999999999,-15939.314999999999,8709.885,-59538.329999999994,3.8857236089166576,1.1974733801844033,0.17655236835195254,11.898871159527925,5.112860621816376,3.4182608310265135,0.9593607726267169,1.7406901208271273,0.075256155,-1.002866085,0.201110325,-3.3419399999999997,-4.13546,1.0834599999999999,67.0
1774823837.5553672,0.004039764404296875,2026-03-29T22:37:17.555,2026-03-29T18:37:17.555,-20090.07,-45664.38,-76388.48999999999,-48156.255,-7921.889999999999,-15929.414999999999,8709.615,-59556.645,1.8142471166517569,-4.380845307756415,-6.383351602010813,2.6559741224035407,1.1421051530438588,4.1788437130078435,1.5762330252535386,1.1954465102868272,0.069763005,-1.0042088550000001,0.20355172500000002,2.07536,-4.3491,4.24228,67.0
1774823837.5553782,1.0967254638671875e-05,2026-03-29T22:37:17.555,2026-03-29T18:37:17.555,-20076.12,-45663.659999999996,-76393.485,-48155.22,-7921.889999999999,-15936.39,8712.27,-59545.439999999995,-1.0633687977667763,-8.08312380660991,-10.099847330557806,-8.644498669963,-3.705030986969357,2.818446412850966,1.4384878720389942,0.23694028408818574,0.069763005,-1.0042088550000001,0.20355172500000002,2.07536,-4.3491,4.24228,67.0
1774823837.5597167,0.004338502883911133,2026-03-29T22:37:17.559,2026-03-29T18:37:17.559,-20061.719999999998,-45666.674999999996,-76410.94499999999,-48194.46,-7955.235,-15965.505,8708.805,-59529.195,-3.662582037771392,-8.131418539934472,-8.952719666307082,-15.819079867297935,-6.6166481077240515,0.26162467263681477,0.6944646717571792,-1.04632249207756,0.069763005,-1.0042088550000001,0.20355172500000002,2.07536,-4.3491,4.24228,67.0
1774823837.55973,1.33514404296875e-05,2026-03-29T22:37:17.559,2026-03-29T18:37:17.559,-20065.32,-45671.265,-76411.035,-48201.615,-7962.66,-15972.029999999999,8705.43,-59529.555,-4.926191656239073,-4.416477664631191,-3.288002762937905,-14.700041446700723,-5.798254170738515,-2.069307013416458,-0.25207352733163607,-2.3105753555303834,0.069763005,-1.0042088550000001,0.20355172500000002,2.07536,-4.3491,4.24228,67.0
1774823837.563326,0.0035958290100097656,2026-03-29T22:37:17.563,2026-03-29T18:37:17.563,-20076.704999999998,-45669.645,-76400.50499999999,-48166.695,-7934.49,-15940.17,8704.71,-59537.34,-4.250197384083068,1.4152635037461692,4.27427858053249,-5.452437619437127,-1.5046660753213565,-3.020222590611159,-0.9516898108122387,-3.004608906780035,0.069763005,-1.0042088550000001,0.20355172500000002,2.07536,-4.3491,4.24228,67.0
1774823837.5633385,1.2636184692382812e-05,2026-03-29T22:37:17.563,2026-03-29T18:37:17.563,-20068.425,-45657.09,-76410.58499999999,-48161.88,-7930.755,-15935.13,8702.46,-59533.155,-1.7761693092297306,6.700536448339003,10.076135187703777,7.367467520872159,4.035138550803608,-2.268845209846121,-1.1211376636496313,-2.6147761031292625,0.069763005,-1.0042088550000001,0.20355172500000002,2.07536,-4.3491,4.24228,67.0
1774823837.5673025,0.003963947296142578,2026-03-29T22:37:17.567,2026-03-29T18:37:17.567,-20057.399999999998,-45663.03,-76423.455,-48165.255,-7939.53,-15952.095,8696.654999999999,-59516.909999999996,1.5923542610963908,8.987769874356907,11.206898424637833,17.08934512747901,7.77879964615046,-0.41354248100852886,-0.757856611850823,-0.9967839911887307,0.069763005,-1.0042088550000001,0.20355172500000002,2.07536,-4.3491,4.24228,67.0
1774823837.5673308,2.8371810913085938e-05,2026-03-29T22:37:17.567,2026-03-29T18:37:17.567,-20065.14,-45669.915,-76422.555,-48170.115,-7952.49,-15966.269999999999,8689.904999999999,-59526.72,4.496105592585946,7.182670005379701,6.958904105681505,18.38944244462874,7.510963285059817,1.4230316306666555,-0.11059355011951631,1.4049444654150616,0.069763005,-1.0042088550000001,0.20355172500000002,2.07536,-4.3491,4.24228,67.0
1774823837.5727196,0.005388736724853516,2026-03-29T22:37:17.572,2026-03-29T18:37:17.572,-20072.52,-45659.79,-76401.98999999999,-48173.4,-7953.57,-15959.97,8700.66,-59547.645,5.659602599156297,2.071539860076368,-0.7734120735586245,10.142495586768005,3.0897384470388443,2.234439046522923,0.4682171494565469,3.6241144741224876,0.069763005,-1.0042088550000001,0.20355172500000002,2.07536,-4.3491,4.24228,67.0
1774823837.5727324,1.2874603271484375e-05,2026-03-29T22:37:17.572,2026-03-29T18:37:17.572,-20059.29,-45675.585,-76426.785,-48192.479999999996,-7955.235,-15954.21,8697.33,-59518.755,4.45517361167831,-4.027865392181238,-8.363114168383317,-3.840198035539636,-3.3806022729704908,1.6624229071361059,0.7069835861598717,4.559041224125236,0.069763005,-1.0042088550000001,0.20355172500000002,2.07536,-4.3491,4.24228,67.0
1774823837.5752647,0.0025322437286376953,2026-03-29T22:37:17.575,2026-03-29T18:37:17.575,-20071.62,-45674.415,-76405.31999999999,-48192.03,-7956.179999999999,-15946.695,8695.98,-59530.32,1.2408713257134443,-8.329447177283626,-12.177893238679083,-16.618471755228168,-8.57352011692964,0.14575139507999924,0.542156462704021,3.5260613282630984,0.066345045,-1.000912965,0.20678658,5.4936,-4.62378,4.4711799999999995,67.0
1774823837.5752776,1.2874603271484375e-05,2026-03-29T22:37:17.575,2026-03-29T18:37:17.575,-20102.399999999998,-45652.86,-76367.79,-48203.055,-7941.105,-15921.855,8720.955,-59577.93,-2.7085466383567387,-8.862376171281603,-10.330313496710977,-21.598083009295344,-9.652683957756093,-1.3711554162191995,0.12828782790177468,0.7000383429253122,0.066345045,-1.000912965,0.20678658,5.4936,-4.62378,4.4711799999999995,67.0
1774823837.5791955,0.0039179325103759766,2026-03-29T22:37:17.579,2026-03-29T18:37:17.579,-20092.5,-45659.295,-76377.465,-48155.895,-7916.535,-15915.465,8724.96,-59566.049999999996,-5.692584507853443,-5.378650806966424,-3.6021194941942043,-15.919970902776974,-5.790446130439563,-1.9902925344794955,-0.2660591904712952,-2.8230977065697993,0.066345045,-1.000912965,0.20678658,5.4936,-4.62378,4.4711799999999995,67.0
1774823837.579219,2.3603439331054688e-05,2026-03-29T22:37:17.579,2026-03-29T18:37:17.579,-20090.114999999998,-45660.42,-76374.81,-48104.145,-7891.065,-15909.255,8715.824999999999,-59568.119999999995,-6.317315857016444,0.5353734594723544,4.906513575971918,-2.026876386311053,1.3094446188665176,-1.362389106452031,-0.4149736317344227,-5.439246479488719,0.066345045,-1.000912965,0.20678658,5.4936,-4.62378,4.4711799999999995,67.0
1774823837.583349,0.004129886627197266,2026-03-29T22:37:17.583,2026-03-29T18:37:17.583,-20079.63,-45662.22,-76401.315,-48147.255,-7912.889999999999,-15920.595,8710.515,-59553.63,-4.154159984011004,6.191637786026581,11.235095213364763,13.425640802252355,8.186648050600038,0.13175838485874009,-0.2581974194340446,-5.776200999210047,0.066345045,-1.000912965,0.20678658,5.4936,-4.62378,4.4711799999999995,67.0
1774823837.5833771,2.8133392333984375e-05,2026-03-29T22:37:17.583,2026-03-29T18:37:17.583,-20068.29,-45661.455,-76418.64,-48200.354999999996,-7951.23,-15944.265,8710.695,-59537.07,-0.010855250390285497,9.033893672646634,12.428823382865303,22.808888350106173,11.332894429150478,1.609984078794831,0.07464531192192853,-3.4156338623076503,0.066345045,-1.000912965,0.20678658,5.4936,-4.62378,4.4711799999999995,67.0
1774823837.5898287,0.006451606750488281,2026-03-29T22:37:17.589,2026-03-29T18:37:17.589,-20065.86,-45657.585,-76403.655,-48187.979999999996,-7960.455,-15959.88,8710.605,-59535.09,4.348031474389079,7.800528322165213,7.92295785306516,21.31220666911597,8.98146176457208,2.192553688174361,0.3486482290487029,0.7827098917111655,0.066345045,-1.000912965,0.20678658,5.4936,-4.62378,4.4711799999999995,67.0
1774823837.5898411,1.239776611328125e-05,2026-03-29T22:37:17.589,2026-03-29T18:37:17.589,-20067.975,-45663.615,-76409.86499999999,-48173.445,-7953.389999999999,-15961.949999999999,8711.369999999999,-59537.34,6.947897983550792,3.084329243139846,-0.2052565795986823,9.391036444711803,2.0648529315036317,1.5003302198511899,0.36752483806433583,4.969566334144903,0.066345045,-1.000912965,0.20678658,5.4936,-4.62378,4.4711799999999995,67.0
1774823837.5898557,1.4543533325195312e-05,2026-03-29T22:37:17.589,2026-03-29T18:37:17.589,-20071.079999999998,-45657.99,-76402.485,-48177.405,-7958.5199999999995,-15958.394999999999,8709.84,-59545.259999999995,6.504974611340167,-2.958759959043871,-8.222276433667636,-7.366850281311861,-6.166159979690754,-0.12569210497558292,0.09486577699092728,7.125871526014268,0.066345045,-1.000912965,0.20678658,5.4936,-4.62378,4.4711799999999995,67.0
1774823837.5898633,7.62939453125e-06,2026-03-29T22:37:17.589,2026-03-29T18:37:17.589,-20050.469999999998,-45652.049999999996,-76405.455,-48198.689999999995,-7982.415,-15965.144999999999,8704.574999999999,-59520.645,3.06765940435388,-7.6059612365861815,-12.48108636264915,-20.915835495245464,-11.69953915488496,-1.8025854436141344,-0.3169839496537372,6.048298191972334,0.066345045,-1.000912965,0.20678658,5.4936,-4.62378,4.4711799999999995,67.0
1774823837.6061685,0.016305208206176758,2026-03-29T22:37:17.606,2026-03-29T18:37:17.606,-20046.42,-45667.979999999996,-76413.51,-48198.689999999995,-7969.32,-15958.529999999999,8698.725,-59507.729999999996,-1.924730547439777,-8.803625209702927,-11.094868956120706,-24.663034540017417,-11.736460512126397,-2.584745980622399,-0.609441795935046,2.015054518691068,0.064880205,-0.991025295,0.208434525,3.2198599999999997,-6.8517399999999995,4.577999999999999,67.0
1774823837.606192,2.3603439331054688e-05,2026-03-29T22:37:17.606,2026-03-29T18:37:17.606,-20057.76,-45678.509999999995,-76423.36499999999,-48203.82,-7956.09,-15962.984999999999,8700.255,-59517.99,-6.234641782456332,-6.077646887004053,-4.766899039481146,-16.693893984303614,-6.1038670974373055,-1.9852754403850603,-0.5682447006278748,-3.2329242338176822,0.064880205,-0.991025295,0.208434525,3.2198599999999997,-6.8517399999999995,4.577999999999999,67.0
1774823837.6062703,7.82012939453125e-05,2026-03-29T22:37:17.606,2026-03-29T18:37:17.606,-20093.67,-45679.32,-76403.87999999999,-48168.09,-7933.41,-15946.019999999999,8708.58,-59563.35,-7.8318963456350525,-0.7136957462098655,3.584852037288314,-0.7275724311893419,2.606197439091574,-0.2572983981111217,-0.15844398922613837,-7.241461537968155,0.064880205,-0.991025295,0.208434525,3.2198599999999997,-6.8517399999999995,4.577999999999999,67.0
1774823837.606279,8.58306884765625e-06,2026-03-29T22:37:17.606,2026-03-29T18:37:17.606,-20095.335,-45657.405,-76358.06999999999,-48116.43,-7894.215,-15914.699999999999,8714.07,-59575.725,-5.859175864689239,4.85667492152275,10.201388815500342,15.665385366726682,10.256303411919378,1.7198372458974323,0.43509061982723646,-8.00191851895728,0.064880205,-0.991025295,0.208434525,3.2198599999999997,-6.8517399999999995,4.577999999999999,67.0
1774823837.6062887,9.775161743164062e-06,2026-03-29T22:37:17.606,2026-03-29T18:37:17.606,-20066.805,-45649.71,-76374.135,-48136.14,-7908.299999999999,-15919.47,8711.865,-59549.67,-1.094295548925867,8.16752449533783,12.195280271653541,24.7080846072864,13.156113015973691,2.8947416024049817,0.891744762514266,-4.967436412659777,0.064880205,-0.991025295,0.208434525,3.2198599999999997,-6.8517399999999995,4.577999999999999,67.0
1774823837.6062963,7.62939453125e-06,2026-03-29T22:37:17.606,2026-03-29T18:37:17.606,-20058.03,-45656.595,-76404.33,-48173.67,-7942.049999999999,-15932.925,8713.485,-59536.259999999995,4.34004789945148,7.8154077285355505,8.812565088953296,22.14615238771185,9.856598777724981,2.6020404193599536,0.9256708042543248,0.5908673505470663,0.064880205,-0.991025295,0.208434525,3.2198599999999997,-6.8517399999999995,4.577999999999999,67.0
1774823837.6148589,0.008562564849853516,2026-03-29T22:37:17.614,2026-03-29T18:37:17.614,-20062.71,-45670.365,-76404.15,-48168.405,-7942.724999999999,-15939.63,8714.115,-59534.954999999994,7.9204153561299915,4.05161277069998,1.6923751287144786,9.255982686412583,1.868309541682202,0.9296526522292909,0.4534447829335844,6.1062786909539915,0.064880205,-0.991025295,0.208434525,3.2198599999999997,-6.8517399999999995,4.577999999999999,67.0
1774823837.61494,8.106231689453125e-05,2026-03-29T22:37:17.614,2026-03-29T18:37:17.614,-20060.19,-45684.585,-76416.84,-48183.93,-7948.08,-15938.144999999999,8711.73,-59529.78,7.901479576886839,-1.3783486024423144,-5.948549741077991,-7.817629602157873,-7.0493221588858175,-1.3029817336823837,-0.33549230904428173,8.908153350248039,0.064880205,-0.991025295,0.208434525,3.2198599999999997,-6.8517399999999995,4.577999999999999,67.0
1774823837.6150255,8.559226989746094e-05,2026-03-29T22:37:17.615,2026-03-29T18:37:17.615,-20064.015,-45681.93,-76422.23999999999,-48203.505,-7957.98,-15947.055,8699.355,-59524.02,4.175554761040547,-6.0514157984335055,-10.791943229499045,-21.04016247331239,-12.684037590628208,-2.952622304931761,-1.053411826805081,7.526610633434534,0.064880205,-0.991025295,0.208434525,3.2198599999999997,-6.8517399999999995,4.577999999999999,67.0
1774823837.615074,4.839897155761719e-05,2026-03-29T22:37:17.615,2026-03-29T18:37:17.615,-20063.25,-45664.74,-76403.52,-48204.0,-7965.134999999999,-15959.564999999999,8695.26,-59523.93,-1.6141733165787564,-7.954587521186635,-10.867057980876293,-24.317145795151824,-12.382400131230643,-3.140643568162832,-1.3056423873654441,2.468067542098043,0.064880205,-0.991025295,0.208434525,3.2198599999999997,-6.8517399999999995,4.577999999999999,67.0
1774823837.618412,0.0033380985260009766,2026-03-29T22:37:17.618,2026-03-29T18:37:17.618,-20090.114999999998,-45648.63,-76353.525,-48148.38,-7934.49,-15938.01,8711.505,-59564.25,-6.792969965888988,-6.352666710629121,-6.336854620371405,-16.32869881167571,-6.30735966154007,-1.718978898180093,-0.9042908015327176,-3.948399414124006,0.06127914,-0.983579025,0.207335895,0.73248,-9.93426,8.6982,67.0
1774823837.6184244,1.239776611328125e-05,2026-03-29T22:37:17.618,2026-03-29T18:37:17.618,-20092.454999999998,-45626.805,-76310.955,-48093.884999999995,-7896.465,-15913.215,8725.5,-59577.345,-8.894153698600226,-2.0623021929763925,0.6826065377200251,-1.0402342945972298,2.656806229134199,0.6315119629640392,0.009796364926023314,-8.654958521499712,0.06127914,-0.983579025,0.207335895,0.73248,-9.93426,8.6982,67.0
1774823837.6184373,1.2874603271484375e-05,2026-03-29T22:37:17.618,2026-03-29T18:37:17.618,-20070.09,-45640.395,-76348.8,-48121.74,-7916.67,-15932.97,8714.61,-59546.7,-6.84237856866426,2.963883875363914,7.130132283260915,14.294748482160612,10.294044445736235,2.729602317587362,1.0105018959243137,-9.310420113211062,0.06127914,-0.983579025,0.207335895,0.73248,-9.93426,8.6982,67.0
1774823837.6184435,6.198883056640625e-06,2026-03-29T22:37:17.618,2026-03-29T18:37:17.618,-20070.36,-45648.81,-76366.53,-48132.27,-7927.5599999999995,-15939.539999999999,8709.255,-59543.145,-1.508950469830396,6.531556945953198,10.346076407771527,22.621932819757742,13.062032341159854,3.489217970962639,1.5859494580381324,-5.473478059674962,0.06127914,-0.983579025,0.207335895,0.73248,-9.93426,8.6982,67.0
1774823837.62867,0.01022648811340332,2026-03-29T22:37:17.628,2026-03-29T18:37:17.628,-20081.745,-45645.93,-76351.00499999999,-48106.034999999996,-7905.825,-15911.64,8719.92,-59565.149999999994,4.649443665166001,7.165523606547152,9.160408202771254,20.367310994126356,9.750078066490088,2.481272403959503,1.400550185830261,1.1176081269395612,0.06127914,-0.983579025,0.207335895,0.73248,-9.93426,8.6982,67.0
1774823837.628684,1.4066696166992188e-05,2026-03-29T22:37:17.628,2026-03-29T18:37:17.628,-20079.27,-45652.365,-76361.48999999999,-48105.765,-7907.445,-15905.789999999999,8720.369999999999,-59560.244999999995,8.72348877644486,4.715604466365568,4.283116309322495,8.97093029006053,2.0078025596461107,0.17229331731319117,0.4856911991538353,7.328541818270481,0.06127914,-0.983579025,0.207335895,0.73248,-9.93426,8.6982,67.0
1774823837.6286972,1.3113021850585938e-05,2026-03-29T22:37:17.628,2026-03-29T18:37:17.628,-20078.64,-45661.005,-76384.665,-48118.5,-7920.54,-15910.875,8720.73,-59556.555,8.732264660336963,0.3612599103775549,-2.110560737843508,-5.982794490308958,-6.484490798424688,-2.2901954176493224,-0.7470368703033009,10.123984125528692,0.06127914,-0.983579025,0.207335895,0.73248,-9.93426,8.6982,67.0
1774823837.6287022,5.0067901611328125e-06,2026-03-29T22:37:17.628,2026-03-29T18:37:17.628,-20082.735,-45665.46,-76403.655,-48176.729999999996,-7934.804999999999,-15915.779999999999,8720.235,-59564.115,4.5934322308046935,-3.957478310842726,-7.362378018832178,-17.530474556994385,-11.782567639902105,-3.646686099953143,-1.6903324835151554,8.058224688162554,0.06127914,-0.983579025,0.207335895,0.73248,-9.93426,8.6982,67.0
1774823837.6316433,0.002941131591796875,2026-03-29T22:37:17.631,2026-03-29T18:37:17.631,-20074.05,-45664.875,-76411.34999999999,-48233.07,-7941.33,-15922.98,8718.93,-59555.295,-1.7960259724304457,-6.407886489043369,-9.432069092584046,-20.60918466883842,-11.526352576222232,-3.1672330915013083,-1.8412183616085214,2.0258841045663534,0.06127914,-0.983579025,0.207335895,0.73248,-9.93426,8.6982,67.0
1774823837.6316545,1.1205673217773438e-05,2026-03-29T22:37:17.631,2026-03-29T18:37:17.631,-20059.515,-45657.09,-76398.61499999999,-48230.595,-7975.575,-15950.654999999999,8714.654999999999,-59539.32,-7.428840141542069,-6.041830806360273,-7.664493299165986,-14.289767880266844,-5.996840923505174,-1.0402416580814404,-1.068250969651145,-5.1180835375656075,0.06127914,-0.983579025,0.207335895,0.73248,-9.93426,8.6982,67.0
1774823837.6355052,0.003850698471069336,2026-03-29T22:37:17.635,2026-03-29T18:37:17.635,-20056.77,-45657.045,-76396.275,-48202.965,-7994.835,-15970.904999999999,8706.51,-59534.685,-9.608080378458238,-3.153524832903039,-2.950162415166012,-1.9741978028739489,2.092855294492677,1.696061641210568,0.29532241184507374,-9.911258042989806,0.059997405000000004,-0.98229729,0.20666451,-2.0448399999999998,-12.98626,10.0716,67.0
1774823837.6355195,1.430511474609375e-05,2026-03-29T22:37:17.635,2026-03-29T18:37:17.635,-20078.415,-45668.295,-76405.68,-48169.935,-7953.929999999999,-15941.609999999999,8709.885,-59556.015,-7.245217020534044,0.9121155893425668,2.7266811898601224,10.422334548808648,8.935914143093303,3.657019451431411,1.5923134230963614,-9.966795901662216,0.059997405000000004,-0.98229729,0.20666451,-2.0448399999999998,-12.98626,10.0716,67.0
1774823837.6447835,0.009263992309570312,2026-03-29T22:37:17.644,2026-03-29T18:37:17.644,-20079.405,-45662.04,-76378.905,-48119.895,-7904.429999999999,-15914.474999999999,8710.74,-59560.244999999995,-1.4070566034616339,4.387138867120058,7.121993225905471,17.33812883346928,11.435764430256123,3.8064604385300074,2.158411067233497,-5.16545585645553,0.059997405000000004,-0.98229729,0.20666451,-2.0448399999999998,-12.98626,10.0716,67.0
1774823837.6448019,1.8358230590820312e-05,2026-03-29T22:37:17.644,2026-03-29T18:37:17.644,-20068.2,-45652.275,-76364.595,-48136.77,-7921.98,-15931.17,8705.744999999999,-59551.829999999994,5.165024014533985,5.851044266231269,8.598977136217844,16.080119134919855,8.615288717951856,1.9964934625553077,1.6623689396091588,2.240675600923152,0.059997405000000004,-0.98229729,0.20666451,-2.0448399999999998,-12.98626,10.0716,67.0
1774823837.6448352,3.337860107421875e-05,2026-03-29T22:37:17.644,2026-03-29T18:37:17.644,-20068.649999999998,-45652.455,-76375.395,-48155.939999999995,-7934.355,-15935.715,8707.86,-59556.42,9.3473383595943,4.80795112372445,6.705582499128847,7.842008310376267,1.9871722772478506,-0.9256578278812242,0.2955414564337914,8.685784798172383,0.059997405000000004,-0.98229729,0.20666451,-2.0448399999999998,-12.98626,10.0716,67.0
1774823837.6448472,1.1920928955078125e-05,2026-03-29T22:37:17.644,2026-03-29T18:37:17.644,-20060.415,-45660.465,-76404.06,-48158.505,-7931.88,-15926.445,8710.56,-59539.14,9.125599155818069,1.8379498847383626,2.2784322568134,-3.1402936035169446,-5.247197938187342,-3.5112700446019303,-1.295685428094455,11.011335127491888,0.059997405000000004,-0.98229729,0.20666451,-2.0448399999999998,-12.98626,10.0716,67.0
1774823837.6489837,0.004136562347412109,2026-03-29T22:37:17.648,2026-03-29T18:37:17.648,-20046.51,-45668.205,-76416.84,-48161.295,-7937.594999999999,-15931.755,8702.91,-59514.524999999994,4.569612582862217,-1.7137122430534484,-2.926282869697921,-11.762682179944498,-9.749044644557195,-4.421841963838363,-2.314555272604439,8.016850432063604,0.059997405000000004,-0.98229729,0.20666451,-2.0448399999999998,-12.98626,10.0716,67.0
1774823837.648998,1.430511474609375e-05,2026-03-29T22:37:17.648,2026-03-29T18:37:17.648,-20038.815,-45677.61,-76432.72499999999,-48173.805,-7953.389999999999,-15949.035,8694.27,-59501.924999999996,-2.1835620703994283,-4.347512303333985,-6.912867910407576,-14.441484748690176,-9.589274786166719,-3.1112740804692964,-2.212499487454564,1.0767365802915452,0.059997405000000004,-0.98229729,0.20666451,-2.0448399999999998,-12.98626,10.0716,67.0
1774823837.6532001,0.004202127456665039,2026-03-29T22:37:17.653,2026-03-29T18:37:17.653,-20061.225,-45698.985,-76458.285,-48192.84,-7962.57,-15961.814999999999,8688.555,-59521.454999999994,-7.937889675547245,-5.042806998827356,-8.18404831843431,-10.59183748352956,-5.071945844871271,-0.13477402314098288,-0.9823373907916575,-6.493101705739625,0.059997405000000004,-0.98229729,0.20666451,-2.0448399999999998,-12.98626,10.0716,67.0
1774823837.653216,1.5735626220703125e-05,2026-03-29T22:37:17.653,2026-03-29T18:37:17.653,-20101.14,-45706.994999999995,-76448.655,-48187.439999999995,-7940.655,-15938.505,8695.935,-59569.02,-9.959369171536041,-3.6460988810051775,-6.280445076709103,-2.5936392209123103,1.5146732741139868,3.0836160550740863,0.8096100584278998,-11.025503374675433,0.059997405000000004,-0.98229729,0.20666451,-2.0448399999999998,-12.98626,10.0716,67.0
1774823837.6572194,0.0040035247802734375,2026-03-29T22:37:17.657,2026-03-29T18:37:17.657,-20094.66,-45694.395,-76446.0,-48199.545,-7959.915,-15955.38,8702.01,-59572.079999999994,-7.281220767912474,-0.8704299227327268,-1.9408153362884746,5.594094533422068,7.051812299187633,4.92835570339107,2.2824069192691074,-10.282833116789838,0.068420235,-0.98864493,0.20642037,0.6714399999999999,-12.07066,10.117379999999999,67.0
1774823837.6572363,1.6927719116210938e-05,2026-03-29T22:37:17.657,2026-03-29T18:37:17.657,-20069.73,-45662.58,-76404.87,-48167.46,-7945.695,-15957.99,8706.15,-59554.395,-1.1663219545209624,2.0634048075702918,3.1699500027160235,10.391546838115088,9.068190841010864,4.39334710581484,2.6728091915785557,-4.560343535947786,0.068420235,-0.98864493,0.20642037,0.6714399999999999,-12.07066,10.117379999999999,67.0
1774823837.660742,0.003505706787109375,2026-03-29T22:37:17.660,2026-03-29T18:37:17.660,-20052.54,-45637.02,-76363.11,-48134.43,-7918.875,-15944.445,8714.16,-59541.165,5.495068150501181,3.965463657753003,7.074186548746342,10.160275150179544,6.8409110967198075,1.6127507004843096,1.7289601361523355,3.432448426076533,0.068420235,-0.98864493,0.20642037,0.6714399999999999,-12.07066,10.117379999999999,67.0
1774823837.6607807,3.8623809814453125e-05,2026-03-29T22:37:17.660,2026-03-29T18:37:17.660,-20047.094999999998,-45627.435,-76329.09,-48131.82,-7927.785,-15920.64,8722.035,-59535.72,9.562067985490152,4.156769043217156,8.225627098301386,5.6901792660866874,1.630391921647068,-2.1520958056028134,-0.13698515914465753,9.86407514682465,0.068420235,-0.98864493,0.20642037,0.6714399999999999,-12.07066,10.117379999999999,67.0
1774823837.6659577,0.005177021026611328,2026-03-29T22:37:17.665,2026-03-29T18:37:17.665,-20063.565,-45636.39,-76326.20999999999,-48136.095,-7930.799999999999,-15921.404999999999,8721.945,-59552.189999999995,9.133166054254222,2.6983762176918487,6.116763647212229,-0.48475233826755654,-4.010939297690274,-5.0845589919244105,-2.026264525542615,11.625925024199862,0.068420235,-0.98864493,0.20642037,0.6714399999999999,-12.07066,10.117379999999999,67.0
1774823837.665969,1.1205673217773438e-05,2026-03-29T22:37:17.665,2026-03-29T18:37:17.665,-20084.309999999998,-45636.479999999996,-76311.94499999999,-48102.479999999996,-7909.245,-15909.164999999999,8729.235,-59580.045,4.437503118887378,0.299348498377858,1.5135486926028916,-5.473351242303066,-7.484061055434953,-5.683667026097307,-2.9858746639832825,7.836462118227847,0.068420235,-0.98864493,0.20642037,0.6714399999999999,-12.07066,10.117379999999999,67.0
1774823837.665982,1.3113021850585938e-05,2026-03-29T22:37:17.665,2026-03-29T18:37:17.665,-20087.415,-45639.72,-76323.555,-48107.655,-7915.005,-15902.369999999999,8734.005,-59587.244999999995,-2.2922371005165796,-2.026589639095109,-3.796468721716118,-7.3742856644103725,-7.336337966027884,-3.5181732044051666,-2.4878709823588374,0.2749149062515302,0.068420235,-0.98864493,0.20642037,0.6714399999999999,-12.07066,10.117379999999999,67.0
1774823837.6659904,8.344650268554688e-06,2026-03-29T22:37:17.665,2026-03-29T18:37:17.665,-20080.17,-45653.49,-76360.23,-48134.34,-7927.92,-15903.9,8726.4,-59570.729999999996,-7.893844878606175,-3.3899622345515454,-7.676785088034158,-5.958523533023267,-3.8564013096091494,0.5102055620842767,-0.7148171497164039,-7.466676181924322,0.068420235,-0.98864493,0.20642037,0.6714399999999999,-12.07066,10.117379999999999,67.0
1774823837.6778893,0.011898994445800781,2026-03-29T22:37:17.677,2026-03-29T18:37:17.677,-20076.524999999998,-45655.56,-76360.95,-48122.369999999995,-7915.905,-15905.205,8720.73,-59562.18,-9.774059536935683,-3.358118452760229,-8.494912458577058,-2.4687856659150285,1.1651630422834705,4.542555006784551,1.501171834361495,-11.703192369056424,0.068420235,-0.98864493,0.20642037,0.6714399999999999,-12.07066,10.117379999999999,67.0
1774823837.6779113,2.193450927734375e-05,2026-03-29T22:37:17.677,2026-03-29T18:37:17.677,-20072.34,-45662.49,-76374.09,-48129.93,-7916.264999999999,-15908.58,8723.52,-59560.38,-7.114934472214738,-2.0708999346476555,-5.818891678368428,1.2239068519415446,5.346646143591188,6.620475320726768,3.0692154652387527,-10.417827579547673,0.068420235,-0.98864493,0.20642037,0.6714399999999999,-12.07066,10.117379999999999,67.0
1774823837.6780343,0.00012302398681640625,2026-03-29T22:37:17.678,2026-03-29T18:37:17.678,-20065.32,-45664.515,-76373.145,-48134.34,-7922.655,-15908.849999999999,8721.675,-59548.454999999994,-1.2233685395206781,-0.12199177452051004,-0.655147358263056,3.5910681958887194,6.837373151162462,5.62947819780134,3.176439674196415,-4.2188446808210305,0.074889945,-0.99438222,0.201476535,5.08158,-11.76546,10.7583,67.0
1774823837.678044,9.775161743164062e-06,2026-03-29T22:37:17.678,2026-03-29T18:37:17.678,-20061.719999999998,-45672.345,-76375.89,-48142.53,-7939.259999999999,-15923.789999999999,8717.13,-59547.284999999996,5.122694140037824,1.7156493272590105,4.906207954989913,4.052160514211124,5.125141323501462,1.8761341398964588,1.706333264242906,3.9616668989258437,0.074889945,-0.99438222,0.201476535,5.08158,-11.76546,10.7583,67.0
1774823837.6798506,0.001806497573852539,2026-03-29T22:37:17.679,2026-03-29T18:37:17.679,-20055.78,-45682.02,-76384.98,-48130.515,-7937.009999999999,-15939.045,8709.57,-59538.42,8.999639368567872,2.792709087717429,8.52818688956668,2.9908132889619905,1.1826809435821515,-2.992925542039029,-0.6757476251679028,10.272466981492475,0.074889945,-0.99438222,0.201476535,5.08158,-11.76546,10.7583,67.0
1774823837.6798637,1.3113021850585938e-05,2026-03-29T22:37:17.679,2026-03-29T18:37:17.679,-20052.09,-45677.205,-76396.14,-48126.96,-7932.554999999999,-15957.63,8696.385,-59525.009999999995,8.695356241791297,2.797691776192503,8.615973053920765,1.2998694460060083,-3.0680799051809458,-6.716847489347292,-2.824687127106415,11.77008462554705,0.074889945,-0.99438222,0.201476535,5.08158,-11.76546,10.7583,67.0
1774823837.6838465,0.0039827823638916016,2026-03-29T22:37:17.683,2026-03-29T18:37:17.683,-20052.27,-45659.295,-76401.94499999999,-48171.104999999996,-7968.96,-15980.535,8690.085,-59523.57,4.462793332357733,1.8203553100916068,5.036040347258738,-0.2027362246327538,-5.684400058096918,-7.469417095970677,-3.667635020590583,7.794323009495057,0.074889945,-0.99438222,0.201476535,5.08158,-11.76546,10.7583,67.0
1774823837.6838646,1.811981201171875e-05,2026-03-29T22:37:17.683,2026-03-29T18:37:17.683,-20080.44,-45670.229999999996,-76412.87999999999,-48191.22,-7962.344999999999,-15951.285,8697.555,-59562.494999999995,-1.6608496355272948,0.27021506336154794,-0.7670361047049459,-1.1429903839801336,-5.578111780878947,-4.744301719742655,-2.738828398433432,0.2475444447759256,0.074889945,-0.99438222,0.201476535,5.08158,-11.76546,10.7583,67.0
1774823837.6876957,0.003831148147583008,2026-03-29T22:37:17.687,2026-03-29T18:37:17.687,-20107.844999999998,-45677.34,-76405.68,-48127.14,-7900.38,-15882.3,8722.215,-59603.939999999995,-6.850522801857796,-1.2944154135185564,-6.341234766262039,-1.5900585605457194,-2.9493013346481725,0.348783601158211,-0.43050880761588123,-7.3346634089795,0.074889945,-0.99438222,0.201476535,5.08158,-11.76546,10.7583,67.0
1774823837.6877124,1.6689300537109375e-05,2026-03-29T22:37:17.687,2026-03-29T18:37:17.687,-20093.04,-45664.65,-76387.00499999999,-48098.295,-7906.815,-15891.66,8727.119999999999,-59591.97,-8.810971981391676,-2.3554934474735214,-9.266625760373293,-1.7794186727226264,0.8836651625840406,5.538100196520711,2.1731231241107603,-11.459303130121702,0.074889945,-0.99438222,0.201476535,5.08158,-11.76546,10.7583,67.0
1774823837.691512,0.0037996768951416016,2026-03-29T22:37:17.691,2026-03-29T18:37:17.691,-20069.594999999998,-45660.96,-76395.78,-48153.78,-7936.514999999999,-15917.535,8724.33,-59563.259999999995,-6.794064155076758,-2.5851387417542884,-8.22128609321181,-1.8086151159396981,4.139139058906829,8.407070612614307,3.808464250491337,-10.294841258283173,0.074889945,-0.99438222,0.201476535,5.08158,-11.76546,10.7583,67.0
1774823837.6915293,1.71661376953125e-05,2026-03-29T22:37:17.691,2026-03-29T18:37:17.691,-20063.385,-45669.42,-76398.345,-48184.29,-7941.509999999999,-15922.08,8725.545,-59550.075,-1.863636085770669,-1.9264911538876113,-3.5964652541320636,-1.5341683977472482,5.388685587819392,7.517273382523784,3.6475742247301444,-4.477889870884429,0.074889945,-0.99438222,0.201476535,5.08158,-11.76546,10.7583,67.0
1774823837.6980076,0.006478309631347656,2026-03-29T22:37:17.698,2026-03-29T18:37:17.698,-20063.52,-45678.555,-76412.61,-48185.46,-7925.264999999999,-15912.539999999999,8723.385,-59544.99,3.6732199002653805,-0.5993987357182882,2.63343410994478,-0.732036447617073,4.1659570671562145,3.1161537248926905,1.7152105763202379,3.2445164095762182,0.075744435,-0.99865467,0.20226999,4.37962,-9.93426,11.353439999999999,67.0
1774823837.6980214,1.3828277587890625e-05,2026-03-29T22:37:17.698,2026-03-29T18:37:17.698,-20087.325,-45680.759999999995,-76398.165,-48148.155,-7920.719999999999,-15907.005,8719.875,-59571.99,7.36208014444967,0.962702672132642,7.753264731891865,0.6123634305542572,1.1177699461413704,-2.9138353878610634,-1.1017205927628493,9.33396430422505,0.075744435,-0.99865467,0.20226999,4.37962,-9.93426,11.353439999999999,67.0
1774823837.698037,1.5497207641601562e-05,2026-03-29T22:37:17.698,2026-03-29T18:37:17.698,-20086.965,-45673.695,-76373.055,-48123.765,-7912.844999999999,-15902.595,8721.27,-59575.454999999994,7.6962093860023515,2.232947650946401,9.502634939174182,2.1173588032242296,-2.336267353294407,-7.865505115268885,-3.465621272514879,11.098022657311775,0.075744435,-0.99865467,0.20226999,4.37962,-9.93426,11.353439999999999,67.0
1774823837.6980455,8.58306884765625e-06,2026-03-29T22:37:17.698,2026-03-29T18:37:17.698,-20079.405,-45671.67,-76371.39,-48147.39,-7931.835,-15917.58,8717.31,-59565.104999999996,4.7187615651228,2.748700145338703,7.091918545579402,3.093205139067193,-4.657079958132719,-9.425491684537318,-4.227593281735926,7.8807068426094675,0.075744435,-0.99865467,0.20226999,4.37962,-9.93426,11.353439999999999,67.0
1774823837.7039027,0.005857229232788086,2026-03-29T22:37:17.703,2026-03-29T18:37:17.703,-20080.71,-45672.345,-76369.635,-48161.384999999995,-7943.219999999999,-15929.369999999999,8713.035,-59566.454999999994,-0.10091434316808276,2.2721462421119165,1.5732823081050828,2.895423197657754,-4.855194779524764,-6.751288551598763,-2.9870001796595145,1.2798022196940393,0.075744435,-0.99865467,0.20226999,4.37962,-9.93426,11.353439999999999,67.0
1774823837.703919,1.621246337890625e-05,2026-03-29T22:37:17.703,2026-03-29T18:37:17.703,-20081.745,-45667.395,-76370.805,-48140.009999999995,-7922.655,-15910.56,8715.24,-59572.125,-4.605371604789196,0.9028458451262614,-4.614171016935087,1.34649686960754,-2.8932359137650274,-0.9068577845456058,-0.29784223961366707,-5.663743195174502,0.075744435,-0.99865467,0.20226999,4.37962,-9.93426,11.353439999999999,67.0
1774823837.7078624,0.003943443298339844,2026-03-29T22:37:17.707,2026-03-29T18:37:17.707,-20075.399999999998,-45645.795,-76351.31999999999,-48087.99,-7901.82,-15900.75,8715.015,-59577.84,-6.925488237764453,-0.911997086382529,-8.730448293554064,-1.0429547728427278,0.33108563268693136,5.561816410816293,2.582964632847586,-9.886488300178383,0.075744435,-0.99865467,0.20226999,4.37962,-9.93426,11.353439999999999,67.0
1774823837.7078836,2.1219253540039062e-05,2026-03-29T22:37:17.707,2026-03-29T18:37:17.707,-20064.195,-45647.055,-76376.655,-48116.79,-7918.5599999999995,-15912.09,8716.59,-59567.354999999996,-6.248341392327181,-2.500653940127955,-8.964017351422944,-3.227670833793446,3.393444237367002,9.741287618116226,4.288994222261086,-9.660622697433599,0.075744435,-0.99865467,0.20226999,4.37962,-9.93426,11.353439999999999,67.0
1774823837.7272997,0.019416093826293945,2026-03-29T22:37:17.727,2026-03-29T18:37:17.727,-20059.425,-45655.695,-76391.955,-48142.125,-7924.59,-15918.119999999999,8715.42,-59557.905,-3.0657126289886083,-3.20457894522453,-5.244814650894473,-4.117550701563297,4.958231686828084,9.665209875241246,3.996461887007259,-5.284657280243569,0.075744435,-0.99865467,0.20226999,4.37962,-9.93426,11.353439999999999,67.0
1774823837.7273216,2.193450927734375e-05,2026-03-29T22:37:17.727,2026-03-29T18:37:17.727,-20053.44,-45664.29,-76404.69,-48175.47,-7945.11,-15932.88,8706.375,-59546.835,1.1484878577666202,-2.6530696598952557,0.7317104903435128,-3.158067535858946,4.342352254079369,5.2350082247523435,1.8218797315726718,1.159893082821992,0.075744435,-0.99865467,0.20226999,4.37962,-9.93426,11.353439999999999,67.0
1774823837.7273426,2.09808349609375e-05,2026-03-29T22:37:17.727,2026-03-29T18:37:17.727,-20034.27,-45663.119999999995,-76401.9,-48206.88,-7973.505,-15955.244999999999,8702.369999999999,-59523.345,4.632291047339863,-0.9597285139759073,6.280576890065046,-0.6786325748488531,1.7996332998844013,-1.682538380200819,-1.2268947451742813,6.816922057292635,0.08068827,-0.99657948,0.20434518000000002,0.8698199999999999,-7.84364,12.940479999999999,67.0
1774823837.727354,1.1444091796875e-05,2026-03-29T22:37:17.727,2026-03-29T18:37:17.727,-20026.53,-45660.96,-76381.73999999999,-48176.82,-7967.61,-15954.119999999999,8698.949999999999,-59512.59,6.069311383859986,1.263506991130018,8.946050567352573,2.2070495776703485,-1.585227875425719,-8.046072267888684,-3.7242306912350416,9.332961080235386,0.08068827,-0.99657948,0.20434518000000002,0.8698199999999999,-7.84364,12.940479999999999,67.0
1774823837.7273672,1.3113021850585938e-05,2026-03-29T22:37:17.727,2026-03-29T18:37:17.727,-20048.13,-45654.39,-76344.525,-48111.165,-7935.4349999999995,-15930.539999999999,8708.355,-59533.74,5.058696013235777,3.1128956411550126,7.603377814546946,4.126532560844979,-4.348416377781789,-10.982221663679779,-4.4994360006030085,7.827077058040576,0.08068827,-0.99657948,0.20434518000000002,0.8698199999999999,-7.84364,12.940479999999999,67.0
1774823837.727378,1.0728836059570312e-05,2026-03-29T22:37:17.727,2026-03-29T18:37:17.727,-20069.505,-45661.95,-76364.86499999999,-48110.354999999996,-7920.224999999999,-15913.845,8719.92,-59559.39,2.1706952839406957,3.7591853966779385,2.941588121310244,4.139302087653442,-5.262874536859329,-9.085384282681924,-3.188349233883964,3.1594937186987315,0.08068827,-0.99657948,0.20434518000000002,0.8698199999999999,-7.84364,12.940479999999999,67.0
1774823837.73082,0.003442049026489258,2026-03-29T22:37:17.730,2026-03-29T18:37:17.730,-20076.21,-45666.225,-76378.14,-48113.549999999996,-7917.12,-15916.769999999999,8721.675,-59574.24,-1.373141325479966,2.8260175844010704,-2.8840863623750046,2.228418412151609,-3.868910131210723,-3.086071279020334,-0.4025595345890571,-2.556321231124719,0.08068827,-0.99657948,0.20434518000000002,0.8698199999999999,-7.84364,12.940479999999999,67.0
1774823837.730837,1.71661376953125e-05,2026-03-29T22:37:17.730,2026-03-29T18:37:17.730,-20079.27,-45656.955,-76353.84,-48092.04,-7903.125,-15906.33,8722.395,-59580.0,-4.217128032817728,0.6048918290877592,-7.256432171806754,-0.6758451046214391,-0.6975712620769792,4.428225508600034,2.56159513337078,-6.923793739898896,0.08068827,-0.99657948,0.20434518000000002,0.8698199999999999,-7.84364,12.940479999999999,67.0
1774823837.7308633,2.6226043701171875e-05,2026-03-29T22:37:17.730,2026-03-29T18:37:17.730,-20076.885,-45645.57,-76332.19499999999,-48092.715,-7906.049999999999,-15901.515,8719.56,-59576.04,-5.367316763680887,-2.0140971809385277,-8.28468790414721,-3.162959138578447,2.9190874180283437,10.13432951577554,4.333243215586524,-8.264613701126198,0.08068827,-0.99657948,0.20434518000000002,0.8698199999999999,-7.84364,12.940479999999999,67.0
1774823837.730875,1.1682510375976562e-05,2026-03-29T22:37:17.730,2026-03-29T18:37:17.730,-20094.3,-45647.145,-76339.34999999999,-48104.729999999996,-7902.54,-15884.91,8725.095,-59602.32,-4.49885441961167,-3.8948293276049846,-5.630807416137926,-4.058204283971057,5.39145775169244,11.449103376027178,4.105994012714732,-6.235763877423688,0.08068827,-0.99657948,0.20434518000000002,0.8698199999999999,-7.84364,12.940479999999999,67.0
1774823837.7308877,1.2636184692382812e-05,2026-03-29T22:37:17.730,2026-03-29T18:37:17.730,-20081.25,-45654.884999999995,-76370.48999999999,-48114.765,-7911.719999999999,-15897.824999999999,8720.595,-59584.409999999996,-2.0062867176187607,-4.153854743546407,-0.6079541236685084,-3.0104668884629717,5.557631028984774,7.702119418560732,2.0055888908474495,-1.8525594497802074,0.08068827,-0.99657948,0.20434518000000002,0.8698199999999999,-7.84364,12.940479999999999,67.0
1774823837.7308989,1.1205673217773438e-05,2026-03-29T22:37:17.730,2026-03-29T18:37:17.730,-20077.785,-45664.11,-76382.28,-48120.57,-7917.57,-15905.97,8720.369999999999,-59575.814999999995,1.1775579677786938,-2.583663711848194,4.4694460534059015,-0.6430990280771524,3.2225269661341183,0.4716564378714902,-0.9816749404239197,3.025803390156199,0.08068827,-0.99657948,0.20434518000000002,0.8698199999999999,-7.84364,12.940479999999999,67.0
1774823837.7377136,0.006814718246459961,2026-03-29T22:37:17.737,2026-03-29T18:37:17.737,-20076.03,-45663.119999999995,-76373.91,-48129.884999999995,-7927.29,-15913.98,8716.41,-59572.395,3.9104090920583667,0.20579152816637292,7.361236545114939,1.8041935736167123,-0.6963713868875501,-7.0824616878090865,-3.4785814217494924,6.485309266230883,0.08618142,-0.995175675,0.204772425,-0.47306,-6.04296,16.75548,67.0
1774823837.7377315,1.7881393432617188e-05,2026-03-29T22:37:17.737,2026-03-29T18:37:17.737,-20084.219999999998,-45668.79,-76365.27,-48110.58,-7915.86,-15909.48,8707.455,-59584.409999999996,5.214169813136554,3.0163850896192907,6.897614142937572,3.1400779709332083,-4.511176982443152,-11.606639155951319,-4.358177259031192,7.28661702771333,0.08618142,-0.995175675,0.204772425,-0.47306,-6.04296,16.75548,67.0
1774823837.7396944,0.001962900161743164,2026-03-29T22:37:17.739,2026-03-29T18:37:17.739,-20071.934999999998,-45663.479999999996,-76372.02,-48136.814999999995,-7941.105,-15929.64,8709.705,-59574.825,4.594608051471778,4.580301502948568,3.4486025245056036,2.8296809492560775,-6.478018636853097,-11.049916009467571,-3.255168779023661,5.270242484029842,0.08618142,-0.995175675,0.204772425,-0.47306,-6.04296,16.75548,67.0
1774823837.739706,1.1682510375976562e-05,2026-03-29T22:37:17.739,2026-03-29T18:37:17.739,-20066.219999999998,-45664.2,-76397.895,-48192.615,-7992.9,-15962.939999999999,8709.705,-59569.155,2.222078722278262,4.141658868098011,-1.3193000736488318,1.223178966655717,-5.588926170998321,-5.598266554495213,-0.7142766440729134,1.3298564701158495,0.08618142,-0.995175675,0.204772425,-0.47306,-6.04296,16.75548,67.0
1774823837.7458591,0.006153106689453125,2026-03-29T22:37:17.745,2026-03-29T18:37:17.745,-20074.094999999998,-45683.505,-76428.045,-48182.445,-7978.59,-15943.859999999999,8712.135,-59574.015,-1.0890877446967815,1.830047255197904,-5.251966351353783,-0.7010751078473282,-2.0842518581043312,2.3808915776626787,2.082730106703124,-2.9855937577496685,0.08618142,-0.995175675,0.204772425,-0.47306,-6.04296,16.75548,67.0
1774823837.7459176,5.841255187988281e-05,2026-03-29T22:37:17.745,2026-03-29T18:37:17.745,-20080.575,-45701.865,-76428.94499999999,-48140.685,-7911.45,-15881.445,8725.005,-59578.2,-4.122860494929788,-1.3619861857891034,-6.686571747532053,-1.9146469115578466,2.5739460151670563,9.371856710035107,3.872909356215211,-6.06356435155954,0.08618142,-0.995175675,0.204772425,-0.47306,-6.04296,16.75548,67.0
1774823837.747934,0.0020165443420410156,2026-03-29T22:37:17.747,2026-03-29T18:37:17.747,-20076.795,-45698.22,-76394.52,-48133.979999999996,-7911.54,-15876.99,8722.529999999999,-59573.204999999994,-5.678722113091423,-4.0063004059155025,-5.152264629268483,-1.9024343712503131,6.298339779296623,12.268865854277287,3.886670645131973,-6.798245865588312,0.08618142,-0.995175675,0.204772425,-0.47306,-6.04296,16.75548,67.0
1774823837.7479484,1.430511474609375e-05,2026-03-29T22:37:17.747,2026-03-29T18:37:17.747,-20077.965,-45692.64,-76361.535,-48133.89,-7926.705,-15889.859999999999,8715.24,-59572.53,-5.039208220799406,-4.8870291626178,-1.4986899667045417,-0.8970856012653696,7.307870005015838,9.76504539035826,2.1777139100584924,-4.9579306365935505,0.08618142,-0.995175675,0.204772425,-0.47306,-6.04296,16.75548,67.0
1774823837.7516925,0.0037441253662109375,2026-03-29T22:37:17.751,2026-03-29T18:37:17.751,-20087.28,-45681.705,-76363.47,-48142.619999999995,-7920.585,-15902.099999999999,8712.18,-59579.055,-2.310043916454581,-3.571034813807986,2.5645258868254848,0.3308371955947647,4.9810806241634795,2.9468831921143246,-0.4323908809023887,-1.2460145028854064,0.08618142,-0.995175675,0.204772425,-0.47306,-6.04296,16.75548,67.0
1774823837.751709,1.6450881958007812e-05,2026-03-29T22:37:17.751,2026-03-29T18:37:17.751,-20071.71,-45645.165,-76333.77,-48096.765,-7907.49,-15908.67,8715.15,-59572.17,1.5329348682935704,-0.6282285157362529,5.270284593910226,0.9823727873329775,0.22126065335464848,-5.178628969030627,-2.753679647030311,2.952973817299471,0.08618142,-0.995175675,0.204772425,-0.47306,-6.04296,16.75548,67.0
1774823837.7557244,0.004015445709228516,2026-03-29T22:37:17.755,2026-03-29T18:37:17.755,-20055.239999999998,-45630.99,-76328.91,-48086.325,-7913.025,-15911.414999999999,8714.385,-59566.005,4.960979885208729,2.613188087035728,5.559641211687905,0.7246256151479515,-4.875583644164041,-11.018210016467181,-3.775119932565426,6.060387765202008,0.089538345,-0.99340566,0.205382775,1.63282,-6.24134,18.662979999999997,67.0
1774823837.7557793,5.4836273193359375e-05,2026-03-29T22:37:17.755,2026-03-29T18:37:17.755,-20046.149999999998,-45644.759999999995,-76363.33499999999,-48112.83,-7929.0,-15918.029999999999,8714.205,-59552.954999999994,6.491322687359587,4.672730352705241,3.4802441518968648,-0.12732918881615618,-7.940137272213467,-11.992611653182383,-3.105898983538115,6.8707900533084825,0.089538345,-0.99340566,0.205382775,1.63282,-6.24134,18.662979999999997,67.0
1774823837.763481,0.0077016353607177734,2026-03-29T22:37:17.763,2026-03-29T18:37:17.763,-20058.344999999998,-45659.744999999995,-76393.08,-48124.799999999996,-7925.67,-15907.59,8718.48,-59561.235,5.3386651116047625,4.605553822587831,0.07768448756355036,-0.845474356425331,-7.435934089409503,-7.685374107650793,-1.1178305540199163,5.011608122619372,0.089538345,-0.99340566,0.205382775,1.63282,-6.24134,18.662979999999997,67.0
1774823837.763502,2.09808349609375e-05,2026-03-29T22:37:17.763,2026-03-29T18:37:17.763,-20059.965,-45670.59,-76415.22,-48148.38,-7934.3099999999995,-15909.705,8713.17,-59558.399999999994,1.827857999512289,2.447420193418901,-3.127115698284775,-0.7904132029776664,-3.433603388737316,-0.02395015364138296,1.2586332163330545,1.1241476706459004,0.089538345,-0.99340566,0.205382775,1.63282,-6.24134,18.662979999999997,67.0
1774823837.7647533,0.0012514591217041016,2026-03-29T22:37:17.764,2026-03-29T18:37:17.764,-20059.2,-45672.705,-76411.70999999999,-48169.755,-7951.86,-15924.465,8711.324999999999,-59558.399999999994,-2.652997859864586,-0.7980234571607742,-4.813366091422821,0.13618465589995774,2.339216014230844,7.58732869266538,2.97392018481613,-3.326722950653884,0.089538345,-0.99340566,0.205382775,1.63282,-6.24134,18.662979999999997,67.0
1774823837.7647636,1.0251998901367188e-05,2026-03-29T22:37:17.764,2026-03-29T18:37:17.764,-20067.614999999998,-45656.369999999995,-76363.965,-48152.07,-7942.545,-15910.875,8722.17,-59577.39,-6.189558624754745,-3.628392806158375,-4.390672246600816,1.3796706941923513,7.238325895326422,11.79065105333431,3.324962114863328,-6.579039864244676,0.089538345,-0.99340566,0.205382775,1.63282,-6.24134,18.662979999999997,67.0
1774823837.767858,0.0030944347381591797,2026-03-29T22:37:17.767,2026-03-29T18:37:17.767,-20086.155,-45657.494999999995,-76341.015,-48119.04,-7914.96,-15891.074999999999,8727.84,-59599.619999999995,-7.16774662671339,-4.747963738257231,-2.1797947623790037,2.0494528821645988,8.920146189288234,10.768084975399248,2.2395326263689044,-7.2628187530506025,0.089538345,-0.99340566,0.205382775,1.63282,-6.24134,18.662979999999997,67.0
1774823837.767868,1.0013580322265625e-05,2026-03-29T22:37:17.767,2026-03-29T18:37:17.767,-20077.065,-45651.825,-76322.745,-48075.39,-7902.09,-15892.244999999999,8723.205,-59589.54,-5.0286246006887545,-3.6738485451735716,0.7932994676162541,1.4889406222232746,6.4727489550102115,5.035239538848234,0.26663464306348045,-4.987040321444457,0.089538345,-0.99340566,0.205382775,1.63282,-6.24134,18.662979999999997,67.0
1774823837.7717872,0.003919124603271484,2026-03-29T22:37:17.771,2026-03-29T18:37:17.771,-20073.555,-45658.665,-76332.915,-48061.17,-7906.905,-15901.199999999999,8715.735,-59586.119999999995,-0.5899185425929986,-0.953516372424942,3.2670257098321085,-0.24617305010383977,0.9100700438136372,-2.814837798069809,-1.7017548770777957,-0.5676943247801025,0.089538345,-0.99340566,0.205382775,1.63282,-6.24134,18.662979999999997,67.0
1774823837.7718008,1.3589859008789062e-05,2026-03-29T22:37:17.771,2026-03-29T18:37:17.771,-20065.905,-45679.005,-76386.19499999999,-48102.075,-7923.375,-15917.355,8712.81,-59572.079999999994,4.250739302497542,2.109011352194831,4.2651409662067055,-2.3127266754009477,-5.238698923048465,-9.291835370451565,-2.8362640726225794,4.2368666386828915,0.089538345,-0.99340566,0.205382775,1.63282,-6.24134,18.662979999999997,67.0
1774823837.7757134,0.003912687301635742,2026-03-29T22:37:17.775,2026-03-29T18:37:17.775,-20049.3,-45678.195,-76404.915,-48152.564999999995,-7952.849999999999,-15936.57,8712.9,-59548.59,7.333019727389043,4.083537193449213,3.4624829703738302,-3.494618849523652,-9.084340158424274,-11.572031761106379,-2.7176107715145688,7.415623629382012,0.08880592500000001,-0.99316152,0.207702105,5.32574,-5.9208799999999995,16.862299999999998,67.0
1774823837.7757256,1.2159347534179688e-05,2026-03-29T22:37:17.775,2026-03-29T18:37:17.775,-20042.73,-45673.965,-76396.31999999999,-48153.104999999996,-7953.03,-15932.34,8711.145,-59538.689999999995,7.216803150225404,4.093813280367412,1.2712587338156855,-2.901398312477657,-8.747667520541532,-8.739647056725385,-1.4816789230310727,7.554861202459641,0.08880592500000001,-0.99316152,0.207702105,5.32574,-5.9208799999999995,16.862299999999998,67.0
1774823837.7807133,0.0049877166748046875,2026-03-29T22:37:17.780,2026-03-29T18:37:17.780,-20059.245,-45657.585,-76355.50499999999,-48111.795,-7916.3099999999995,-15889.904999999999,8715.285,-59566.095,3.8744855304647805,2.218645859662666,-1.3605951779798866,-0.5557590135032292,-4.288861298126928,-2.155153271342072,0.2818686303064074,4.484848337352619,0.08880592500000001,-0.99316152,0.207702105,5.32574,-5.9208799999999995,16.862299999999998,67.0
1774823837.780731,1.7642974853515625e-05,2026-03-29T22:37:17.780,2026-03-29T18:37:17.780,-20073.555,-45656.189999999995,-76349.655,-48105.54,-7907.759999999999,-15885.314999999999,8723.025,-59585.085,-1.2489710829321958,-0.5755633453731636,-3.343906332638025,2.493404435286879,2.268744504221142,5.197892998073921,1.8119157500583978,-0.5813025832250635,0.08880592500000001,-0.99316152,0.207702105,5.32574,-5.9208799999999995,16.862299999999998,67.0
1774823837.783353,0.0026221275329589844,2026-03-29T22:37:17.783,2026-03-29T18:37:17.783,-20081.745,-45664.604999999996,-76358.025,-48123.54,-7922.384999999999,-15895.17,8721.045,-59596.56,-5.862754436648345,-2.9288430418208167,-3.8805058997303368,4.647231360194081,7.859546778351406,10.073799743264084,2.5034909210383405,-5.514574105934505,0.08880592500000001,-0.99316152,0.207702105,5.32574,-5.9208799999999995,16.862299999999998,67.0
1774823837.7833693,1.621246337890625e-05,2026-03-29T22:37:17.783,2026-03-29T18:37:17.783,-20087.37,-45670.049999999996,-76356.045,-48114.54,-7919.099999999999,-15891.75,8720.685,-59600.07,-7.870993726328354,-3.7574248076181274,-2.773464317058496,4.603126950417877,9.821155310750992,10.408456637635295,2.1402622043345154,-8.170313594510581,0.08880592500000001,-0.99316152,0.207702105,5.32574,-5.9208799999999995,16.862299999999998,67.0
1774823837.7876942,0.004324913024902344,2026-03-29T22:37:17.787,2026-03-29T18:37:17.787,-20084.535,-45671.174999999996,-76363.425,-48106.979999999996,-7912.889999999999,-15888.33,8724.33,-59596.695,-6.346786094055419,-2.766171177360961,-0.5021167460987421,2.1198320893271547,7.177131504264902,6.1985212935042515,0.946592947772288,-7.338336369337496,0.08880592500000001,-0.99316152,0.207702105,5.32574,-5.9208799999999995,16.862299999999998,67.0
1774823837.7877233,2.9087066650390625e-05,2026-03-29T22:37:17.787,2026-03-29T18:37:17.787,-20068.829999999998,-45673.604999999996,-76381.155,-48119.625,-7929.045,-15902.64,8719.244999999999,-59576.939999999995,-1.976449388349402,-0.5552264785280584,1.9685725759038135,-1.739748082862823,1.1319547819003342,-0.5608818645537021,-0.5422611853682202,-3.313180613683582,0.08880592500000001,-0.99316152,0.207702105,5.32574,-5.9208799999999995,16.862299999999998,67.0
1774823837.7917628,0.0040395259857177734,2026-03-29T22:37:17.791,2026-03-29T18:37:17.791,-20070.225,-45671.939999999995,-76378.815,-48121.29,-7935.255,-15912.765,8714.789999999999,-59580.899999999994,3.2463039789611385,1.7197104690444711,3.5786130142714674,-5.067730247824519,-5.476631044650418,-6.8237832659276885,-1.7195335295414769,2.192736210363049,0.08880592500000001,-0.99316152,0.207702105,5.32574,-5.9208799999999995,16.862299999999998,67.0
1774823837.791782,1.9073486328125e-05,2026-03-29T22:37:17.791,2026-03-29T18:37:17.791,-20071.485,-45663.884999999995,-76362.795,-48108.195,-7925.355,-15904.305,8723.34,-59586.345,6.9414906548190904,2.9490744601784877,3.617495425207245,-6.072369864761901,-9.519620627482148,-9.8749307203915,-2.1492152613871096,6.779377096863108,0.08880592500000001,-0.99316152,0.207702105,5.32574,-5.9208799999999995,16.862299999999998,67.0
1774823837.7957115,0.003929615020751953,2026-03-29T22:37:17.795,2026-03-29T18:37:17.795,-20079.945,-45659.88,-76348.575,-48087.0,-7910.235,-15887.654999999999,8725.14,-59600.34,7.448100581949746,2.6208705756152497,2.0428034784689375,-4.049014482857801,-9.07379042688247,-8.514453868480013,-1.7174524903308543,8.4204810172793,0.081603795,-0.9875463,0.212218695,4.059159999999999,-6.546539999999999,15.107399999999998,67.0
1774823837.7957344,2.288818359375e-05,2026-03-29T22:37:17.795,2026-03-29T18:37:17.795,-20079.27,-45669.195,-76360.59,-48098.295,-7916.13,-15885.269999999999,8721.72,-59598.765,4.590434915303372,1.043366913982337,-0.4722367352521245,0.16778206398247808,-4.3502177307791365,-3.525376500115906,-0.6467483512132688,6.379236678100584,0.081603795,-0.9875463,0.212218695,4.059159999999999,-6.546539999999999,15.107399999999998,67.0
1774823837.8001184,0.004384040832519531,2026-03-29T22:37:17.800,2026-03-29T18:37:17.800,-20074.23,-45674.82,-76376.34,-48124.395,-7935.344999999999,-15904.755,8718.66,-59588.82,-0.2572878820609749,-0.8632282945330754,-2.805704138664317,4.547343242893274,2.400354783098248,2.755673960842306,0.6158565342020308,1.5546948997078514,0.081603795,-0.9875463,0.212218695,4.059159999999999,-6.546539999999999,15.107399999999998,67.0
1774823837.8001423,2.384185791015625e-05,2026-03-29T22:37:17.800,2026-03-29T18:37:17.800,-20089.035,-45693.854999999996,-76403.34,-48119.085,-7925.804999999999,-15901.965,8714.97,-59596.92,-4.834675754043299,-2.0823303173010026,-3.875679710324069,6.861145857289626,7.965461110582754,7.536023423703884,1.5814567782620854,-3.9108788251976905,0.081603795,-0.9875463,0.212218695,4.059159999999999,-6.546539999999999,15.107399999999998,67.0
1774823837.8039687,0.0038263797760009766,2026-03-29T22:37:17.803,2026-03-29T18:37:17.803,-20087.145,-45699.615,-76417.155,-48102.255,-7913.295,-15889.14,8718.119999999999,-59595.03,-7.064954239726193,-2.0424648867734985,-3.144881755227792,5.836281764315389,9.713190584702579,8.815478495617656,1.9004797276797514,-7.593699016218048,0.081603795,-0.9875463,0.212218695,4.059159999999999,-6.546539999999999,15.107399999999998,67.0
1774823837.803991,2.2411346435546875e-05,2026-03-29T22:37:17.803,2026-03-29T18:37:17.803,-20089.665,-45699.975,-76418.19,-48099.465,-7920.674999999999,-15900.795,8716.455,-59600.924999999996,-6.017058691219347,-0.8964855016984739,-0.9046068998212746,1.8587048059751192,6.851922174868853,6.224521715448209,1.4801809785606954,-7.882354462516867,0.081603795,-0.9875463,0.212218695,4.059159999999999,-6.546539999999999,15.107399999999998,67.0
1774823837.8090465,0.005055427551269531,2026-03-29T22:37:17.809,2026-03-29T18:37:17.809,-20075.579999999998,-45694.485,-76439.06999999999,-48160.485,-7946.37,-15919.83,8712.135,-59591.25,-2.3050246128947163,0.6032911986616246,1.818060542431655,-3.163194469260342,0.7975060399323163,1.1006390474330516,0.5045675719302305,-4.701181443029318,0.081603795,-0.9875463,0.212218695,4.059159999999999,-6.546539999999999,15.107399999999998,67.0
1774823837.80907,2.3603439331054688e-05,2026-03-29T22:37:17.809,2026-03-29T18:37:17.809,-20078.01,-45687.645,-76414.545,-48194.189999999995,-7945.155,-15901.425,8714.25,-59595.435,2.2521278748362246,1.5550369002032958,3.7171989962731065,-6.732234315641599,-5.526540713586224,-4.191586147693594,-0.6427521162155648,0.47022067095404785,0.081603795,-0.9875463,0.212218695,4.059159999999999,-6.546539999999999,15.107399999999998,67.0
1774823837.814844,0.005773782730102539,2026-03-29T22:37:17.814,2026-03-29T18:37:17.814,-20078.415,-45689.4,-76381.47,-48180.465,-7941.915,-15880.59,8723.654999999999,-59589.405,5.527663449372325,1.4271120071950045,3.833766648411045,-7.028198148029057,-9.109885384603926,-7.354482197776109,-1.5223033900848086,5.287765648544305,0.081603795,-0.9875463,0.212218695,4.059159999999999,-6.546539999999999,15.107399999999998,67.0
1774823837.8148708,2.6941299438476562e-05,2026-03-29T22:37:17.814,2026-03-29T18:37:17.814,-20075.265,-45665.505,-76333.68,-48145.455,-7976.025,-15922.664999999999,8716.68,-59585.04,6.095913187331244,0.355940593642435,2.0506160992363314,-3.8534638106362196,-8.30218395271331,-7.157811378260456,-1.7995405998472644,7.619849203536888,0.081603795,-0.9875463,0.212218695,4.059159999999999,-6.546539999999999,15.107399999999998,67.0
1774823837.8148987,2.7894973754882812e-05,2026-03-29T22:37:17.814,2026-03-29T18:37:17.814,-20074.86,-45650.295,-76332.15,-48130.92,-7976.61,-15931.619999999999,8708.895,-59585.85,3.8665126338885853,-0.9450945154574832,-0.8036582387925281,1.2400733699699487,-3.5838991958656146,-3.9089831909453827,-1.368432144487011,6.508865836672966,0.07727031,-0.979672785,0.21588079500000001,-2.5179,-7.5079199999999995,12.31482,67.0
1774823837.814911,1.2159347534179688e-05,2026-03-29T22:37:17.814,2026-03-29T18:37:17.814,-20062.079999999998,-45646.965,-76319.91,-48064.229999999996,-7913.205,-15893.46,8714.61,-59570.954999999994,0.055279291670720904,-1.614655822518116,-3.324250738867712,5.72177612684066,2.7039516422793257,0.7819735248133722,-0.39425286231181106,2.5749575189673375,0.07727031,-0.979672785,0.21588079500000001,-2.5179,-7.5079199999999995,12.31482,67.0
1774823837.822481,0.007570028305053711,2026-03-29T22:37:17.822,2026-03-29T18:37:17.822,-20083.454999999998,-45656.369999999995,-76336.425,-48036.195,-7866.224999999999,-15849.404999999999,8725.455,-59594.445,-3.4651770157234463,-1.1666691270916612,-4.216971806307895,7.362187190113662,7.52405511783517,4.793448890065162,0.7431471884473408,-2.313574870592954,0.07727031,-0.979672785,0.21588079500000001,-2.5179,-7.5079199999999995,12.31482,67.0
1774823837.8225007,1.9788742065429688e-05,2026-03-29T22:37:17.822,2026-03-29T18:37:17.822,-20082.015,-45673.064999999995,-76384.575,-48091.77,-7904.745,-15876.99,8719.785,-59595.57,-5.092657759205546,0.19508580728296926,-2.96858198472766,5.364566662761981,8.620244054652385,6.452962898582487,1.5904515123275178,-5.9330889187866935,0.07727031,-0.979672785,0.21588079500000001,-2.5179,-7.5079199999999995,12.31482,67.0
1774823837.8225207,2.002716064453125e-05,2026-03-29T22:37:17.822,2026-03-29T18:37:17.822,-20062.89,-45674.189999999995,-76393.215,-48122.1,-7936.83,-15907.5,8710.38,-59573.475,-4.237793266156636,1.6629629460942459,-0.1503756788181028,0.7638809054535193,5.584379734110219,5.232030678984953,1.79820078943434,-6.731091011097376,0.07727031,-0.979672785,0.21588079500000001,-2.5179,-7.5079199999999995,12.31482,67.0
1774823837.8225274,6.67572021484375e-06,2026-03-29T22:37:17.822,2026-03-29T18:37:17.822,-20056.815,-45671.67,-76373.685,-48123.72,-7943.715,-15913.305,8707.635,-59566.68,-1.5314185358410288,2.2799756372848616,2.827179625225381,-4.1117055705605585,0.0030415675517412744,1.8880996446879181,1.2668711039039198,-4.505544823940449,0.07727031,-0.979672785,0.21588079500000001,-2.5179,-7.5079199999999995,12.31482,67.0
1774823837.833815,0.011287689208984375,2026-03-29T22:37:17.833,2026-03-29T18:37:17.833,-20071.35,-45672.795,-76358.87999999999,-48121.83,-7943.264999999999,-15901.83,8710.605,-59589.314999999995,1.5728795329833274,1.515826289819976,4.413006233439325,-6.835182112049714,-5.365625793137658,-1.967506938999034,0.19951079121972679,-0.4333138947737252,0.07727031,-0.979672785,0.21588079500000001,-2.5179,-7.5079199999999995,12.31482,67.0
1774823837.8338487,3.361701965332031e-05,2026-03-29T22:37:17.833,2026-03-29T18:37:17.833,-20080.125,-45664.47,-76341.33,-48098.924999999996,-7925.13,-15883.515,8722.305,-59607.854999999996,3.5686070193862203,-0.3666808899956441,3.724481399928243,-6.110805282463407,-7.959635193006563,-4.640662170953999,-0.9688772389756799,3.539989787196618,0.07727031,-0.979672785,0.21588079500000001,-2.5179,-7.5079199999999995,12.31482,67.0
1774823837.8338768,2.8133392333984375e-05,2026-03-29T22:37:17.833,2026-03-29T18:37:17.833,-20074.274999999998,-45664.29,-76342.095,-48065.354999999996,-7900.29,-15882.48,8717.22,-59596.604999999996,3.634344195768297,-2.385246229999989,1.0439031626050086,-2.406750743991337,-6.644527385535047,-5.097532507010469,-1.7451315329193102,5.636226117644526,0.07727031,-0.979672785,0.21588079500000001,-2.5179,-7.5079199999999995,12.31482,67.0
1774823837.8338888,1.1920928955078125e-05,2026-03-29T22:37:17.833,2026-03-29T18:37:17.833,-20055.465,-45671.22,-76364.055,-48063.465,-7905.87,-15894.72,8709.255,-59567.805,1.9750049740587003,-3.3437553665038466,-2.2791648471682926,2.3258284524934134,-2.2122803110175844,-3.354597811582641,-1.7874600972137216,5.053164096352241,0.07727031,-0.979672785,0.21588079500000001,-2.5179,-7.5079199999999995,12.31482,67.0
1774823837.8376324,0.0037436485290527344,2026-03-29T22:37:17.837,2026-03-29T18:37:17.837,-20054.565,-45676.305,-76378.36499999999,-48091.77,-7926.705,-15909.119999999999,8705.52,-59564.655,-0.377113688176653,-2.512956543679599,-4.499087305463831,5.685275677885003,3.0728970265367344,-0.3740605991250353,-1.0608943321985371,2.271609012125148,0.08093241,-0.97802484,0.21630804,-7.4011,-6.28712,11.30766,67.0
1774823837.8376524,2.002716064453125e-05,2026-03-29T22:37:17.837,2026-03-29T18:37:17.837,-20079.809999999998,-45663.884999999995,-76352.715,-48099.33,-7930.259999999999,-15904.529999999999,8718.93,-59602.634999999995,-2.162375773944186,-0.10906082158682585,-4.388977096895198,6.054616950074577,6.628957938847665,2.445251325940255,0.13456519633484984,-1.256634484144273,0.08093241,-0.97802484,0.21630804,-7.4011,-6.28712,11.30766,67.0
1774823837.8418665,0.004214048385620117,2026-03-29T22:37:17.841,2026-03-29T18:37:17.841,-20089.17,-45655.29,-76328.91,-48072.689999999995,-7907.759999999999,-15884.55,8728.065,-59620.905,-2.559319772745133,2.721845672726477,-1.9201310946724899,3.3968931465996417,6.8223263087836425,3.919593695230533,1.2840381931915255,-3.856673343264017,0.08093241,-0.97802484,0.21630804,-7.4011,-6.28712,11.30766,67.0
1774823837.8419032,3.6716461181640625e-05,2026-03-29T22:37:17.841,2026-03-29T18:37:17.841,-20095.155,-45667.215,-76337.595,-48053.655,-7882.065,-15864.255,8726.085,-59628.915,-1.5668606096424746,4.449804891385329,1.6711590166996928,-0.7881836048065886,3.7224544559087196,3.573006997191353,1.8801819033736304,-4.432005979352063,0.08093241,-0.97802484,0.21630804,-7.4011,-6.28712,11.30766,67.0
1774823837.8439105,0.0020072460174560547,2026-03-29T22:37:17.843,2026-03-29T18:37:17.843,-20079.045,-45665.865,-76343.58,-48073.905,-7899.615,-15865.154999999999,8726.67,-59607.854999999996,0.07681815211945864,3.978218764326812,4.494904685317146,-4.298019797780333,-1.0059078426816257,1.7683479900759862,1.651447569464056,-2.932828754913686,0.08093241,-0.97802484,0.21630804,-7.4011,-6.28712,11.30766,67.0
1774823837.8439314,2.09808349609375e-05,2026-03-29T22:37:17.843,2026-03-29T18:37:17.843,-20077.2,-45677.34,-76357.53,-48094.965,-7919.639999999999,-15874.605,8726.445,-59599.799999999996,1.3640424806126745,1.2999640646398603,4.998591841994365,-5.392012781265196,-4.986356447590291,-0.5450716159075334,0.6912062609293089,-0.28818531196656844,0.08093241,-0.97802484,0.21630804,-7.4011,-6.28712,11.30766,67.0
1774823837.8478591,0.003927707672119141,2026-03-29T22:37:17.847,2026-03-29T18:37:17.847,-20090.565,-45697.185,-76374.36,-48089.97,-7907.67,-15867.045,8730.045,-59608.305,1.598528812128986,-2.3862035806305117,2.819644578781808,-3.6687225875153953,-6.3249936679521435,-2.315097725212491,-0.5762668342889571,2.1277933064049184,0.08093241,-0.97802484,0.21630804,-7.4011,-6.28712,11.30766,67.0
1774823837.8478904,3.123283386230469e-05,2026-03-29T22:37:17.847,2026-03-29T18:37:17.847,-20098.98,-45707.85,-76388.67,-48078.72,-7894.62,-15862.005,8731.035,-59614.064999999995,0.7641334817328278,-5.210532072579808,-0.9688095099192413,-0.20713175637673054,-4.5145504774830485,-2.8608363311108223,-1.5830897447473027,3.201507269586273,0.08093241,-0.97802484,0.21630804,-7.4011,-6.28712,11.30766,67.0
1774823837.8518128,0.003922462463378906,2026-03-29T22:37:17.851,2026-03-29T18:37:17.851,-20100.239999999998,-45710.055,-76402.89,-48090.78,-7905.33,-15871.949999999999,8725.68,-59613.479999999996,-0.5114357755788372,-5.581518479499591,-4.379233834051952,3.073968305074885,-0.6152092705224639,-2.1256062508549047,-1.8756623508111334,2.59745452047307,0.08093241,-0.97802484,0.21630804,-7.4011,-6.28712,11.30766,67.0
1774823837.8518333,2.0503997802734375e-05,2026-03-29T22:37:17.851,2026-03-29T18:37:17.851,-20091.87,-45697.455,-76410.495,-48113.145,-7916.49,-15877.755,8724.33,-59610.735,-1.3602966766011766,-3.067718808187402,-5.548916915030479,4.469679075773744,3.3453808548294273,-0.6197354757256371,-1.3241726453482938,0.8449362655950126,0.08093241,-0.97802484,0.21630804,-7.4011,-6.28712,11.30766,67.0
1774823837.856377,0.0045435428619384766,2026-03-29T22:37:17.856,2026-03-29T18:37:17.856,-20078.82,-45677.07,-76393.44,-48113.46,-7921.304999999999,-15880.005,8725.32,-59604.704999999994,-1.2046876170620993,1.270247020013319,-3.7552579764893785,3.3805748131221764,5.420892277458916,0.8847090639475927,-0.18432998987565696,-1.0167312883329904,0.080016885,-0.9824803950000001,0.214538025,-6.89752,-5.35626,10.40732,67.0
1774823837.8564005,2.3603439331054688e-05,2026-03-29T22:37:17.856,2026-03-29T18:37:17.856,-20070.495,-45653.49,-76360.59,-48107.475,-7922.07,-15881.039999999999,8722.98,-59604.21,-0.10754734794978588,5.319149879031714,0.14560325262456467,0.5733710698991391,4.7033008276281985,1.738021320796444,1.0200329749651982,-2.0208917000316036,0.080016885,-0.9824803950000001,0.214538025,-6.89752,-5.35626,10.40732,67.0
1774823837.859998,0.0035974979400634766,2026-03-29T22:37:17.859,2026-03-29T18:37:17.859,-20059.695,-45642.06,-76338.045,-48106.35,-7923.87,-15880.994999999999,8727.975,-59597.1,1.25733860662149,6.94720346248563,4.119626981431347,-2.304098823872901,1.7169043537422068,1.6889343829168681,1.7400217784691148,-1.7678549299876694,0.080016885,-0.9824803950000001,0.214538025,-6.89752,-5.35626,10.40732,67.0
1774823837.860015,1.6927719116210938e-05,2026-03-29T22:37:17.860,2026-03-29T18:37:17.860,-20062.305,-45650.07,-76333.36499999999,-48102.435,-7923.78,-15885.585,8726.85,-59598.0,1.9995849500801148,5.125157810501296,6.012226677008683,-3.6632686279502766,-1.919949479858009,0.9374770271625731,1.6562986694338375,-0.5802250786253623,0.080016885,-0.9824803950000001,0.214538025,-6.89752,-5.35626,10.40732,67.0
1774823837.865474,0.0054590702056884766,2026-03-29T22:37:17.865,2026-03-29T18:37:17.865,-20064.285,-45656.415,-76336.155,-48099.104999999996,-7926.929999999999,-15888.15,8724.42,-59598.494999999995,1.547236104312111,0.545811617563922,4.714052936338711,-2.843456671533789,-4.361058336464524,-0.03191427086595312,0.8248066371599833,0.7391821212047152,0.080016885,-0.9824803950000001,0.214538025,-6.89752,-5.35626,10.40732,67.0
1774823837.8655083,3.4332275390625e-05,2026-03-29T22:37:17.865,2026-03-29T18:37:17.865,-20059.92,-45652.68,-76327.515,-48092.4,-7943.13,-15899.715,8719.11,-59595.119999999995,0.015549790751181493,-4.619221843402904,0.8053988938439153,-0.43683458475986875,-4.467045987554958,-0.7287432070061706,-0.355018157947266,1.3921215437210157,0.080016885,-0.9824803950000001,0.214538025,-6.89752,-5.35626,10.40732,67.0
1774823837.8714354,0.005927085876464844,2026-03-29T22:37:17.871,2026-03-29T18:37:17.871,-20059.515,-45663.345,-76343.22,-48090.465,-7939.889999999999,-15901.56,8713.215,-59591.384999999995,-1.809684072283774,-7.753232943425301,-3.692395737648245,2.091672134138611,-2.336074349619268,-0.8961671930626338,-1.3329606537585155,1.036124712517286,0.080016885,-0.9824803950000001,0.214538025,-6.89752,-5.35626,10.40732,67.0
1774823837.8714516,1.621246337890625e-05,2026-03-29T22:37:17.871,2026-03-29T18:37:17.871,-20058.21,-45675.27,-76361.94,-48086.009999999995,-7927.29,-15892.83,8715.285,-59583.42,-2.8811065598636896,-7.125142904342404,-6.358912882228037,3.2597338210457476,0.8162836536376641,-0.5978642871711068,-1.668059728336646,-0.04348054618515044,0.080016885,-0.9824803950000001,0.214538025,-6.89752,-5.35626,10.40732,67.0
1774823837.8714676,1.5974044799804688e-05,2026-03-29T22:37:17.871,2026-03-29T18:37:17.871,-20061.45,-45696.869999999995,-76398.03,-48093.03,-7929.855,-15892.289999999999,8710.965,-59586.165,-2.476394113615117,-2.838588003242972,-5.67447866151861,2.4114399964040554,3.33458936053986,-0.12705899431652837,-1.2311947130975316,-1.124932809169424,0.080016885,-0.9824803950000001,0.214538025,-6.89752,-5.35626,10.40732,67.0
1774823837.8714764,8.821487426757812e-06,2026-03-29T22:37:17.871,2026-03-29T18:37:17.871,-20071.71,-45704.744999999995,-76404.69,-48083.31,-7911.315,-15874.289999999999,8716.86,-59594.31,-0.6395406532585696,3.117627550292324,-1.8809205947405299,0.07834776650785401,3.9872009171090657,0.1935768210967689,-0.2551545442003485,-1.486970248372597,0.080016885,-0.9824803950000001,0.214538025,-6.89752,-5.35626,10.40732,67.0
1774823837.8773067,0.005830287933349609,2026-03-29T22:37:17.877,2026-03-29T18:37:17.877,-20086.29,-45699.75,-76398.56999999999,-48113.865,-7922.835,-15875.189999999999,8723.88,-59613.57,1.7788696063811114,7.792942054609002,3.081804922905589,-2.338159979758509,2.5677662110201385,0.2019258853963815,0.7875377670063649,-0.8405028888011375,0.073547175,-0.989072175,0.211364205,-5.35626,-5.8751,7.2485,67.0
1774823837.8773272,2.0503997802734375e-05,2026-03-29T22:37:17.877,2026-03-29T18:37:17.877,-20078.954999999998,-45684.63,-76395.465,-48128.49,-7928.235,-15882.074999999999,8725.77,-59605.515,3.5273303977435053,8.743519319136558,6.564085291402384,-3.378634064277402,-0.058987139908760165,-0.027305346612013268,1.4154194766942307,0.48935909710319897,0.073547175,-0.989072175,0.211364205,-5.35626,-5.8751,7.2485,67.0
1774823837.879943,0.002615690231323242,2026-03-29T22:37:17.879,2026-03-29T18:37:17.879,-20079.855,-45662.759999999995,-76354.605,-48073.14,-7895.969999999999,-15870.734999999999,8721.315,-59607.045,3.6066964771511025,5.311953175455022,6.618185819197869,-2.3718184224055125,-2.4627600226314166,-0.25412554398877235,1.363562758547193,1.7348753200246965,0.073547175,-0.989072175,0.211364205,-5.35626,-5.8751,7.2485,67.0
1774823837.8799565,1.3589859008789062e-05,2026-03-29T22:37:17.879,2026-03-29T18:37:17.879,-20084.265,-45653.265,-76321.44,-48061.215,-7899.84,-15871.859999999999,8720.46,-59622.84,1.8283691571743599,-0.9526726336812713,3.0820295429887636,0.16283715461493037,-3.417330022540645,-0.242514200800043,0.696402242725242,2.1178991484059386,0.073547175,-0.989072175,0.211364205,-5.35626,-5.8751,7.2485,67.0
1774823837.8855855,0.005629062652587891,2026-03-29T22:37:17.885,2026-03-29T18:37:17.885,-20071.44,-45662.715,-76340.97,-48066.03,-7912.08,-15875.775,8717.355,-59608.665,-1.0294822245281077,-6.990286117648203,-2.2653783976662645,2.78757335564151,-2.524191685551436,0.07605779186366322,-0.24079245092899654,1.3037910360476384,0.073547175,-0.989072175,0.211364205,-5.35626,-5.8751,7.2485,67.0
1774823837.885616,3.0517578125e-05,2026-03-29T22:37:17.885,2026-03-29T18:37:17.885,-20065.005,-45670.814999999995,-76361.895,-48042.134999999995,-7901.6849999999995,-15876.539999999999,8714.97,-59596.875,-3.5719565377277855,-9.730745062340777,-6.595453495330228,3.9486318732315295,-0.37387645013768606,0.5430304338904383,-1.0004695304481124,-0.37761448785730295,0.073547175,-0.989072175,0.211364205,-5.35626,-5.8751,7.2485,67.0
1774823837.8890903,0.0034742355346679688,2026-03-29T22:37:17.889,2026-03-29T18:37:17.889,-20077.29,-45677.564999999995,-76375.395,-48055.185,-7900.29,-15880.545,8714.07,-59607.045,-4.482004489021139,-7.661023234245595,-7.523274094483465,2.865566927586074,1.8175037509560552,0.8552306155789271,-1.2488183275014535,-2.0748533190718508,0.073547175,-0.989072175,0.211364205,-5.35626,-5.8751,7.2485,67.0
1774823837.8891697,7.939338684082031e-05,2026-03-29T22:37:17.889,2026-03-29T18:37:17.889,-20086.559999999998,-45674.145,-76365.81,-48075.659999999996,-7903.08,-15881.085,8720.414999999999,-59621.759999999995,-3.208393265905849,-1.6559279114189729,-4.415182370192731,0.00954025737561161,2.882619302453055,0.7458264387666733,-0.913670871947211,-2.8552296983542598,0.073547175,-0.989072175,0.211364205,-5.35626,-5.8751,7.2485,67.0
1774823837.8940704,0.004900693893432617,2026-03-29T22:37:17.894,2026-03-29T18:37:17.894,-20073.915,-45662.805,-76347.98999999999,-48094.38,-7917.389999999999,-15884.73,8722.845,-59612.85,-0.28595255704361183,5.38151974362155,1.2038654648098117,-3.1076824643475205,2.320068701578927,0.16140969856505097,-0.19798482486008898,-2.2119837154143167,0.073547175,-0.989072175,0.211364205,-5.35626,-5.8751,7.2485,67.0
1774823837.8940868,1.6450881958007812e-05,2026-03-29T22:37:17.894,2026-03-29T18:37:17.894,-20064.285,-45661.59,-76341.78,-48105.09,-7931.7,-15882.345,8725.59,-59605.47,2.892926287427573,9.928078635606555,6.3953676920609315,-4.735886812360876,0.5303620239513206,-0.6701766623352193,0.5379284180839806,-0.3647349055044565,0.073547175,-0.989072175,0.211364205,-5.35626,-5.8751,7.2485,67.0
1774823837.899181,0.005094051361083984,2026-03-29T22:37:17.899,2026-03-29T18:37:17.899,-20060.01,-45668.43,-76349.52,-48108.509999999995,-7949.205,-15883.109999999999,8723.61,-59594.174999999996,4.756085044273675,9.611338126447443,8.342297402620995,-3.8528884985444196,-1.4401080824459722,-1.3306933227332303,0.9587817052554224,1.8164803436747488,0.067687815,-0.98974356,0.206237265,-3.7539599999999997,-6.04296,4.959499999999999,67.0
1774823837.8992124,3.147125244140625e-05,2026-03-29T22:37:17.899,2026-03-29T18:37:17.899,-20065.005,-45673.38,-76332.825,-48057.165,-7936.155,-15886.755,8718.57,-59589.72,4.342881474540141,4.449948741225986,5.872480864647536,-0.767654442068012,-2.4930048156952793,-1.4239987696332927,0.9083101645203114,3.2363212312753156,0.067687815,-0.98974356,0.206237265,-3.7539599999999997,-6.04296,4.959499999999999,67.0
1774823837.8992488,3.647804260253906e-05,2026-03-29T22:37:17.899,2026-03-29T18:37:17.899,-20068.065,-45678.24,-76341.78,-48045.284999999996,-7914.105,-15878.88,8717.49,-59590.845,1.8055075324789975,-3.0864473892220894,0.14829654908394008,2.9825791979568135,-2.0801359613189447,-0.8020386655805132,0.4633702684176345,3.13469129034923,0.067687815,-0.98974356,0.206237265,-3.7539599999999997,-6.04296,4.959499999999999,67.0
1774823837.8992581,9.298324584960938e-06,2026-03-29T22:37:17.899,2026-03-29T18:37:17.899,-20081.07,-45697.994999999995,-76384.305,-48090.06,-7916.49,-15869.97,8718.3,-59606.189999999995,-1.6431412597816175,-9.261980578994773,-5.8767518505387,5.408941010765845,-0.4882959605602731,0.3200881684203745,-0.12824195254323603,1.4921954767627634,0.067687815,-0.98974356,0.206237265,-3.7539599999999997,-6.04296,4.959499999999999,67.0
1774823837.9044116,0.0051534175872802734,2026-03-29T22:37:17.904,2026-03-29T18:37:17.904,-20102.805,-45697.68,-76378.905,-48072.284999999996,-7902.54,-15855.795,8731.35,-59642.28,-4.319559802912905,-10.933907850049128,-8.982697093838475,5.123721732862894,1.3404230165597433,1.43398799141092,-0.5840612365424316,-0.9350475964992394,0.067687815,-0.98974356,0.206237265,-3.7539599999999997,-6.04296,4.959499999999999,67.0
1774823837.904442,3.0517578125e-05,2026-03-29T22:37:17.904,2026-03-29T18:37:17.904,-20089.665,-45686.295,-76361.22,-48052.395,-7897.139999999999,-15857.369999999999,8737.065,-59625.854999999996,-4.906296837697317,-7.157203812912671,-7.401231799669785,2.112472904067757,2.3463673205696973,1.972788709898687,-0.7229232305132876,-2.977564535261073,0.067687815,-0.98974356,0.206237265,-3.7539599999999997,-6.04296,4.959499999999999,67.0
1774823837.9080043,0.0035622119903564453,2026-03-29T22:37:17.908,2026-03-29T18:37:17.908,-20081.024999999998,-45674.865,-76343.31,-48054.33,-7900.965,-15860.16,8728.56,-59620.095,-3.1135562963343815,0.28766064054442225,-1.8111608316780208,-2.1961693794195183,1.9488559401952819,1.6009309063533037,-0.5344899026925014,-3.632448600427902,0.067687815,-0.98974356,0.206237265,-3.7539599999999997,-6.04296,4.959499999999999,67.0
1774823837.908022,1.7642974853515625e-05,2026-03-29T22:37:17.908,2026-03-29T18:37:17.908,-20084.85,-45669.96,-76345.83,-48072.869999999995,-7903.3949999999995,-15859.574999999999,8726.895,-59625.494999999995,0.17140560011392197,7.7358933716866325,4.944842276385325,-5.622085007295291,0.3729674712386912,0.4108938405078766,-0.15699441797608937,-2.5671910978690917,0.067687815,-0.98974356,0.206237265,-3.7539599999999997,-6.04296,4.959499999999999,67.0
1774823837.9225135,0.014491558074951172,2026-03-29T22:37:17.922,2026-03-29T18:37:17.922,-20080.17,-45663.93,-76359.19499999999,-48078.945,-7910.639999999999,-15862.904999999999,8726.805,-59623.965,3.3261715288593914,11.450100674562146,9.309225253259262,-6.344895709825033,-1.4733795278714197,-1.0839041324655607,0.21286674040040773,-0.29010739298513055,0.067687815,-0.98974356,0.206237265,-3.7539599999999997,-6.04296,4.959499999999999,67.0
1774823837.9225721,5.8650970458984375e-05,2026-03-29T22:37:17.922,2026-03-29T18:37:17.922,-20077.649999999998,-45670.229999999996,-76365.27,-48072.06,-7911.045,-15863.265,8724.779999999999,-59622.93,4.804932888866399,9.502814040363612,8.883997813823905,-3.864448852994298,-2.506134409637481,-2.1729266110102032,0.42269543123107883,2.100524294716121,0.067687815,-0.98974356,0.206237265,-3.7539599999999997,-6.04296,4.959499999999999,67.0
1774823837.922595,2.288818359375e-05,2026-03-29T22:37:17.922,2026-03-29T18:37:17.922,-20078.594999999998,-45684.54,-76375.53,-48089.924999999996,-7918.74,-15870.599999999999,8727.705,-59615.505,3.909815885807868,2.7777147785201675,3.7420631614133546,0.69370150878026,-2.078882987351424,-2.2906921636470337,0.4259065813343682,3.4615838562991863,0.06115707,-0.98766837,0.19921824,-6.3328999999999995,-7.98098,3.26564,67.0
1774823837.9226053,1.0251998901367188e-05,2026-03-29T22:37:17.922,2026-03-29T18:37:17.922,-20079.989999999998,-45696.645,-76375.215,-48073.095,-7912.44,-15873.974999999999,8728.56,-59610.96,1.1315800021446873,-5.431343507903516,-3.5394088585396135,5.102161942240999,-0.36494596153057257,-1.3111172610869106,0.27778818031249625,3.1680676027486836,0.06115707,-0.98766837,0.19921824,-6.3328999999999995,-7.98098,3.26564,67.0
1774823837.9226172,1.1920928955078125e-05,2026-03-29T22:37:17.922,2026-03-29T18:37:17.922,-20095.515,-45706.14,-76390.92,-48080.564999999995,-7922.565,-15863.715,8729.955,-59629.409999999996,-2.1109998435723036,-11.041668774128249,-9.17582269830301,7.134074253617472,1.7094913285022864,0.358877079651465,0.08079375214623274,1.4103574349015868,0.06115707,-0.98766837,0.19921824,-6.3328999999999995,-7.98098,3.26564,67.0
1774823837.9226265,9.298324584960938e-06,2026-03-29T22:37:17.922,2026-03-29T18:37:17.922,-20095.245,-45700.604999999996,-76395.015,-48097.71,-7948.485,-15869.07,8730.0,-59631.57,-4.197180073480735,-11.221200502919672,-10.147357571151032,5.691695374594843,2.9569184719848494,1.9470355499648173,-0.0806569073151355,-0.9197437956396329,0.06115707,-0.98766837,0.19921824,-6.3328999999999995,-7.98098,3.26564,67.0
1774823837.9339788,0.011352300643920898,2026-03-29T22:37:17.933,2026-03-29T18:37:17.933,-20088.719999999998,-45683.189999999995,-76361.625,-48068.055,-7925.085,-15864.435,8727.074999999999,-59631.57,-4.123406248492425,-5.822563940336735,-5.81628412098636,1.387319872572845,2.586961462883004,2.6764895568262816,-0.17634893364262877,-2.688931029367212,0.06115707,-0.98766837,0.19921824,-6.3328999999999995,-7.98098,3.26564,67.0
1774823837.9341352,0.000156402587890625,2026-03-29T22:37:17.934,2026-03-29T18:37:17.934,-20074.905,-45659.115,-76333.86,-48095.189999999995,-7909.245,-15851.654999999999,8728.695,-59625.765,-1.998160745247244,2.5170183419990244,1.676806967219683,-3.726151442687923,0.6746151335935692,2.1497528365283847,-0.22185842564618644,-3.088589579111434,0.06115707,-0.98766837,0.19921824,-6.3328999999999995,-7.98098,3.26564,67.0
1774823837.93454,0.0004048347473144531,2026-03-29T22:37:17.934,2026-03-29T18:37:17.934,-20063.7,-45655.83,-76336.065,-48097.845,-7888.41,-15841.08,8731.485,-59615.64,1.0360483261336355,9.672137685388499,8.475966704144282,-7.150736467648311,-1.8276784581934216,0.5649878635878082,-0.24070002397964552,-2.0188721113231005,0.06115707,-0.98766837,0.19921824,-6.3328999999999995,-7.98098,3.26564,67.0
1774823837.9345963,5.626678466796875e-05,2026-03-29T22:37:17.934,2026-03-29T18:37:17.934,-20052.405,-45640.034999999996,-76296.42,-48031.92,-7900.424999999999,-15858.63,8728.38,-59604.524999999994,3.4067716639745176,12.08064653551214,11.002083993782284,-7.174267193837282,-3.562098974258615,-1.3523742352087762,-0.23021165592447942,-0.1023741835963541,0.06115707,-0.98766837,0.19921824,-6.3328999999999995,-7.98098,3.26564,67.0
1774823837.9346435,4.7206878662109375e-05,2026-03-29T22:37:17.934,2026-03-29T18:37:17.934,-20050.829999999998,-45638.46,-76295.295,-48029.4,-7911.855,-15868.98,8729.865,-59602.814999999995,3.925604063009917,8.52457040341939,7.8414526771083315,-3.7251489802244353,-3.488172157039777,-2.6827979213383806,-0.15902149820101816,1.6662589573345057,0.06115707,-0.98766837,0.19921824,-6.3328999999999995,-7.98098,3.26564,67.0
1774823837.9346576,1.4066696166992188e-05,2026-03-29T22:37:17.934,2026-03-29T18:37:17.934,-20063.385,-45669.555,-76341.645,-48052.665,-7909.469999999999,-15865.605,8727.885,-59611.14,2.3910131623410846,0.7460871285753372,0.5321051242515034,1.5752166802895975,-1.476631703124145,-2.757215701910914,0.0005188949186783327,2.4418485185349943,0.06115707,-0.98766837,0.19921824,-6.3328999999999995,-7.98098,3.26564,67.0
1774823837.9551153,0.020457744598388672,2026-03-29T22:37:17.955,2026-03-29T18:37:17.955,-20064.6,-45689.31,-76367.385,-48048.93,-7893.855,-15852.375,8731.08,-59610.284999999996,-0.32820038293456266,-7.413367738381837,-7.187420336076806,6.190997220350255,1.5537979055533138,-1.4968158894514638,0.22882966309053884,1.9464583356380445,0.05566392,-0.986386635,0.192077145,-10.02582,-10.10212,1.9227599999999998,67.0
1774823837.9551363,2.09808349609375e-05,2026-03-29T22:37:17.955,2026-03-29T18:37:17.955,-20057.94,-45691.38,-76370.67,-48051.09,-7891.605,-15841.935,8734.68,-59601.509999999995,-2.765811941210542,-11.922032441260553,-11.298809439048092,7.899717183882923,4.056241101348088,0.5254213428358542,0.44021090309820604,0.571796962837905,0.05566392,-0.986386635,0.192077145,-10.02582,-10.10212,1.9227599999999998,67.0
1774823837.9551525,1.621246337890625e-05,2026-03-29T22:37:17.955,2026-03-29T18:37:17.955,-20076.524999999998,-45695.88,-76364.50499999999,-48057.299999999996,-7893.63,-15838.244999999999,8737.02,-59618.61,-3.6358475296375934,-10.560392597692289,-9.603552692152137,5.868037683417037,4.639866027795864,2.34343672633811,0.5116391641065672,-0.8732104144309221,0.05566392,-0.986386635,0.192077145,-10.02582,-10.10212,1.9227599999999998,67.0
1774823837.955158,5.4836273193359375e-06,2026-03-29T22:37:17.955,2026-03-29T18:37:17.955,-20082.195,-45675.63,-76341.19499999999,-48052.935,-7896.6449999999995,-15840.494999999999,8736.975,-59627.564999999995,-2.5069052487125565,-4.017438191519111,-2.900873695728856,1.0523387012301075,2.822710171662876,3.0610408118626142,0.35170598052976676,-1.6208264534877053,0.05566392,-0.986386635,0.192077145,-10.02582,-10.10212,1.9227599999999998,67.0
1774823837.9551644,6.4373016357421875e-06,2026-03-29T22:37:17.955,2026-03-29T18:37:17.955,-20072.655,-45647.28,-76321.98,-48058.47,-7915.7699999999995,-15860.88,8731.35,-59621.715,-0.021223746810313974,4.462941005013195,5.387949032114804,-4.265584273772633,-0.6469861409152314,2.296699173606536,-0.028006584124291432,-1.355435875691318,0.05566392,-0.986386635,0.192077145,-10.02582,-10.10212,1.9227599999999998,67.0
1774823837.9551692,4.76837158203125e-06,2026-03-29T22:37:17.955,2026-03-29T18:37:17.955,-20071.71,-45653.805,-76329.45,-48064.634999999995,-7924.455,-15867.18,8727.66,-59625.765,2.4542342929957863,10.70191569240687,10.972917616530006,-7.575612696912469,-4.095598689660902,0.38839368302655636,-0.4866842264325562,-0.3567404598493394,0.05566392,-0.986386635,0.192077145,-10.02582,-10.10212,1.9227599999999998,67.0
1774823837.9551752,5.9604644775390625e-06,2026-03-29T22:37:17.955,2026-03-29T18:37:17.955,-20070.765,-45664.56,-76339.75499999999,-48059.235,-7912.44,-15856.38,8728.65,-59621.805,3.5599160421003955,11.657533099479428,10.924503294214833,-7.334401312828541,-5.732588732918185,-1.7516872014675768,-0.8012911422965718,0.6940431980685733,0.05566392,-0.986386635,0.192077145,-10.02582,-10.10212,1.9227599999999998,67.0
1774823837.955181,5.7220458984375e-06,2026-03-29T22:37:17.955,2026-03-29T18:37:17.955,-20065.364999999998,-45667.17,-76343.94,-48055.095,-7900.83,-15852.15,8728.335,-59615.729999999996,2.673237961014675,6.915025578588142,5.216412431970442,-3.684998726790912,-4.571323522258061,-3.0721539471262242,-0.7744099742095109,1.1281315246153067,0.05566392,-0.986386635,0.192077145,-10.02582,-10.10212,1.9227599999999998,67.0
1774823837.9551868,5.9604644775390625e-06,2026-03-29T22:37:17.955,2026-03-29T18:37:17.955,-20057.94,-45667.395,-76345.875,-48064.275,-7908.48,-15858.09,8728.65,-59607.405,0.2500103145061816,-1.1381857816739245,-3.233018733546549,1.6340933717029689,-0.9919388177649172,-2.9000379054881247,-0.3509324633683932,0.6862322194441101,0.05566392,-0.986386635,0.192077145,-10.02582,-10.10212,1.9227599999999998,67.0
1774823837.9551916,4.76837158203125e-06,2026-03-29T22:37:17.955,2026-03-29T18:37:17.955,-20063.07,-45674.685,-76347.0,-48057.615,-7908.929999999999,-15856.92,8729.46,-59609.88,-2.4059267077718705,-8.52385724677785,-10.056894073387111,6.131590612576336,3.364106151471187,-1.2857648484893485,0.32290794416172763,-0.3274234593696622,0.05566392,-0.986386635,0.192077145,-10.02582,-10.10212,1.9227599999999998,67.0
1774823837.9594147,0.0042231082916259766,2026-03-29T22:37:17.959,2026-03-29T18:37:17.959,-20065.95,-45681.03,-76354.065,-48065.174999999996,-7920.134999999999,-15868.08,8723.744999999999,-59613.165,-3.8292603057148535,-11.651752617558447,-11.704217331719823,7.7428874184531375,6.350942762517533,1.0019425803607982,0.9421920830093219,-1.2239861267058625,0.05053698,-0.9892552800000001,0.184142595,-8.179359999999999,-10.59044,0.54936,67.0
1774823837.9594307,1.5974044799804688e-05,2026-03-29T22:37:17.959,2026-03-29T18:37:17.959,-20049.57,-45682.38,-76364.955,-48073.68,-7934.715,-15883.47,8721.135,-59593.095,-3.179100205687514,-9.0751907554049,-7.294954070980979,5.7824659582351705,6.375791863523708,2.839431800344383,1.1804728236522435,-1.3440951921489848,0.05053698,-0.9892552800000001,0.184142595,-8.179359999999999,-10.59044,0.54936,67.0
1774823837.959447,1.621246337890625e-05,2026-03-29T22:37:17.959,2026-03-29T18:37:17.959,-20056.05,-45683.82,-76365.36,-48058.83,-7915.005,-15866.01,8723.744999999999,-59598.27,-0.710187018096738,-2.1598221046670067,0.9065197354434869,1.2283592819828886,3.2355819526097505,3.2990643706021663,0.860060371022681,-0.47311881658480703,0.05053698,-0.9892552800000001,0.184142595,-8.179359999999999,-10.59044,0.54936,67.0
1774823837.9594553,8.344650268554688e-06,2026-03-29T22:37:17.959,2026-03-29T18:37:17.959,-20063.745,-45673.38,-76354.92,-48055.634999999995,-7903.889999999999,-15846.029999999999,8726.13,-59610.149999999994,2.3261793382546423,5.643402413061446,8.655313394241274,-3.7747997628988816,-1.7020639246454516,2.117868807924871,0.06720572687978961,0.9851750930854494,0.05053698,-0.9892552800000001,0.184142595,-8.179359999999999,-10.59044,0.54936,67.0
1774823837.963981,0.004525661468505859,2026-03-29T22:37:17.963,2026-03-29T18:37:17.963,-20064.105,-45669.915,-76348.44,-48062.52,-7909.11,-15846.615,8727.975,-59613.615,4.312972199935004,10.532915154887052,11.928085305539199,-6.937908574531274,-6.097383784777855,-0.15304488324724852,-0.8573843882289459,2.19193450000639,0.05053698,-0.9892552800000001,0.184142595,-8.179359999999999,-10.59044,0.54936,67.0
1774823837.9639933,1.239776611328125e-05,2026-03-29T22:37:17.963,2026-03-29T18:37:17.963,-20085.795,-45676.53,-76342.455,-48048.57,-7898.49,-15833.205,8733.285,-59642.189999999995,4.112589571987478,10.221122962632025,9.018253743715194,-6.88242251610526,-7.75351700212395,-2.4024656321110567,-1.4633210153856955,2.331610128109952,0.05053698,-0.9892552800000001,0.184142595,-8.179359999999999,-10.59044,0.54936,67.0
1774823837.9740522,0.010058879852294922,2026-03-29T22:37:17.974,2026-03-29T18:37:17.974,-20097.899999999998,-45680.939999999995,-76357.53,-48057.345,-7902.0,-15828.885,8740.8,-59657.085,1.6897916016901586,5.008359573958454,1.4302688747839505,-3.7391935584034925,-5.713987778025912,-3.500840929951148,-1.4099104031061322,1.1023408537747383,0.05053698,-0.9892552800000001,0.184142595,-8.179359999999999,-10.59044,0.54936,67.0
1774823837.9740665,1.430511474609375e-05,2026-03-29T22:37:17.974,2026-03-29T18:37:17.974,-20088.18,-45682.74,-76373.415,-48036.195,-7889.085,-15827.939999999999,8739.18,-59644.979999999996,-1.819382394016908,-2.4398139970316155,-6.897454570655893,0.9671033426023855,-0.794462623651594,-2.866345116635303,-0.6531436586402822,-1.0393468709451232,0.05053698,-0.9892552800000001,0.184142595,-8.179359999999999,-10.59044,0.54936,67.0
1774823837.9740891,2.2649765014648438e-05,2026-03-29T22:37:17.974,2026-03-29T18:37:17.974,-20075.265,-45677.744999999995,-76360.59,-48019.005,-7880.355,-15842.88,8732.07,-59631.84,-4.646243683054168,-8.464127356011666,-11.639465302323766,5.06544277593389,4.739745269679849,-0.7718182400477431,0.5007057785967923,-3.0400395504218864,0.05053698,-0.9892552800000001,0.184142595,-8.179359999999999,-10.59044,0.54936,67.0
