unix_time_s,dt_s,UTC,LOCAL,EMG1_Raw,EMG2_Raw,EMG3_Raw,EMG4_Raw,EMG5_Raw,EMG6_Raw,EMG7_Raw,EMG8_Raw,EMG1_Filtered,EMG2_Filtered,EMG3_Filtered,EMG4_Filtered,EMG5_Filtered,EMG6_Filtered,EMG7_Filtered,EMG8_Filtered,Accel1_Raw,Accel2_Raw,Accel3_Raw,Gyro1_Raw,Gyro2_Raw,Gyro3_Raw,Battery
1774821901.9387295,,2026-03-29T22:05:01.938,2026-03-29T18:05:01.938,-31840.289999999997,-50064.345,-85538.87999999999,-50451.479999999996,-15753.015,-20801.79,4549.455,-54454.409999999996,1.0169978523376588,1.3459857393801218,0.43661330815981303,-2.230319476589544,-0.39634139349053515,-0.087106429004046,0.053680933764067074,-0.48316973249670053,0.19360302000000001,-0.99645741,0.001647945,-2.5636799999999997,5.17314,-0.48832,72.0
1774821901.9387424,1.2874603271484375e-05,2026-03-29T22:05:01.938,2026-03-29T18:05:01.938,-31849.649999999998,-50062.32,-85509.81,-50403.15,-15720.705,-20773.89,4575.105,-54468.18,-3.341843509151844,-4.286366350256053,-6.606922991798224,-4.076258672003725,0.5779906889746822,2.4501473335204262,9.911236353576031,-2.0503033578022696,0.19360302000000001,-0.99645741,0.001647945,-2.5636799999999997,5.17314,-0.48832,72.0
1774821901.9402628,0.001520395278930664,2026-03-29T22:05:01.940,2026-03-29T18:05:01.940,-31856.715,-50080.86,-85541.22,-50416.2,-15722.865,-20771.684999999998,4582.485,-54462.915,-6.021847723976719,-8.10576344948114,-10.669034697474336,-4.031420766678677,1.2264186571563893,3.775280012469719,15.518128016191193,-2.3510880937806538,0.19360302000000001,-0.99645741,0.001647945,-2.5636799999999997,5.17314,-0.48832,72.0
1774821901.94028,1.71661376953125e-05,2026-03-29T22:05:01.940,2026-03-29T18:05:01.940,-31860.495,-50095.575,-85570.875,-50437.845,-15738.84,-20787.75,4562.46,-54464.31,-5.813748308903217,-8.426806060437416,-10.006101806392453,-2.1795990994054004,1.158442057812348,3.185187325656246,14.157215518639228,-1.2250437106748118,0.19360302000000001,-0.99645741,0.001647945,-2.5636799999999997,5.17314,-0.48832,72.0
1774821901.9444177,0.004137754440307617,2026-03-29T22:05:01.944,2026-03-29T18:05:01.944,-31866.57,-50096.25,-85572.315,-50435.369999999995,-15734.025,-20785.59,4560.4349999999995,-54472.905,-2.913448471175415,-5.082116691463209,-4.980962880082207,0.5783167130498145,0.38391347400173353,0.946634006113752,6.251894399855872,0.653746253110617,0.18896436,-0.9945653250000001,0.00317382,-5.00528,2.24322,-2.01432,72.0
1774821901.9444344,1.6689300537109375e-05,2026-03-29T22:05:01.944,2026-03-29T18:05:01.944,-31860.945,-50083.29,-85558.77,-50420.564999999995,-15717.42,-20771.415,4567.23,-54474.299999999996,1.2248280799191262,0.5018742662451277,2.132288719813439,2.9609900788964856,-0.6768945000463046,-1.8207189024520893,-4.721890795110396,2.1695777282805806,0.18896436,-0.9945653250000001,0.00317382,-5.00528,2.24322,-2.01432,72.0
1774821901.9525564,0.008121967315673828,2026-03-29T22:05:01.952,2026-03-29T18:05:01.952,-31851.18,-50075.775,-85549.095,-50415.975,-15709.23,-20763.989999999998,4564.755,-54467.729999999996,4.629370504687955,5.92112783991146,8.184676196930653,3.90510409926604,-1.414386122518232,-3.7025580874933177,-13.758671823210253,2.410627562278846,0.18896436,-0.9945653250000001,0.00317382,-5.00528,2.24322,-2.01432,72.0
1774821901.952574,1.7642974853515625e-05,2026-03-29T22:05:01.952,2026-03-29T18:05:01.952,-31851.0,-50075.46,-85539.105,-50408.865,-15707.07,-20762.864999999998,4552.514999999999,-54468.0,5.763320421239882,8.831516915309782,10.554174523957814,3.0448801466124484,-1.3682362836266095,-3.711770217621522,-16.61788378044642,1.200172429856685,0.18896436,-0.9945653250000001,0.00317382,-5.00528,2.24322,-2.01432,72.0
1774821901.95259,1.5974044799804688e-05,2026-03-29T22:05:01.952,2026-03-29T18:05:01.952,-31848.39,-50072.805,-85536.27,-50409.72,-15716.97,-20773.485,4541.8949999999995,-54465.299999999996,4.222368449672715,7.95870530204865,8.285596284509449,0.8540934211099355,-0.4996786082177652,-1.8057399734030093,-11.833644015765556,-0.7898070901441533,0.18896436,-0.9945653250000001,0.00317382,-5.00528,2.24322,-2.01432,72.0
1774821901.9525971,7.152557373046875e-06,2026-03-29T22:05:01.952,2026-03-29T18:05:01.952,-31856.805,-50082.93,-85548.015,-50423.58,-15734.519999999999,-20786.94,4537.755,-54470.88,0.8591006856605553,3.6480199663551103,2.4716626028638737,-1.6051037997636568,0.7582986572082044,1.0718535910746283,-1.4790644030939943,-2.411526162457682,0.18896436,-0.9945653250000001,0.00317382,-5.00528,2.24322,-2.01432,72.0
1774821901.956126,0.0035288333892822266,2026-03-29T22:05:01.956,2026-03-29T18:05:01.956,-31863.69,-50107.814999999995,-85583.7,-50455.305,-15755.22,-20793.51,4565.61,-54472.095,-2.6906880796572334,-2.278020785780363,-4.274108870471817,-3.19703538016672,1.7134526393321974,3.4565937112823413,9.717692714564135,-2.6946761847624088,0.18896436,-0.9945653250000001,0.00317382,-5.00528,2.24322,-2.01432,72.0
1774821901.9561443,1.8358230590820312e-05,2026-03-29T22:05:01.956,2026-03-29T18:05:01.956,-31869.855,-50114.655,-85583.87999999999,-50445.09,-15738.66,-20779.38,4582.26,-54478.395,-4.816251920378378,-7.2916763610485065,-8.997717656990085,-3.241620143677032,1.7867292680638285,4.107233380703798,16.536775637028207,-1.4122753970482376,0.18896436,-0.9945653250000001,0.00317382,-5.00528,2.24322,-2.01432,72.0
1774821901.9604328,0.004288434982299805,2026-03-29T22:05:01.960,2026-03-29T18:05:01.960,-31866.21,-50105.43,-85569.61499999999,-50433.119999999995,-15729.345,-20773.125,4586.58,-54469.845,-4.669575057800221,-9.23364359357666,-9.702688180094833,-1.8091193743855152,0.847474554659821,2.650442710282011,15.718197316481948,0.7651394431611513,0.18896436,-0.9945653250000001,0.00317382,-5.00528,2.24322,-2.01432,72.0
1774821901.9604456,1.2874603271484375e-05,2026-03-29T22:05:01.960,2026-03-29T18:05:01.960,-31862.114999999998,-50102.145,-85577.625,-50446.619999999995,-15744.824999999999,-20789.1,4561.5599999999995,-54465.93,-2.4913723856721073,-7.235362248849113,-6.193818404711838,0.3495763300480957,-0.6770575039980428,-0.2081458645811714,7.542451216770812,2.6241581479870235,0.18896436,-0.9945653250000001,0.00317382,-5.00528,2.24322,-2.01432,72.0
1774821901.9643018,0.003856182098388672,2026-03-29T22:05:01.964,2026-03-29T18:05:01.964,-31852.53,-50090.354999999996,-85576.995,-50448.735,-15753.15,-20800.485,4542.885,-54468.405,0.5923361070373221,-2.1010009811058157,-0.11083748982399869,2.189973967082926,-1.9937689503217277,-3.0246564862343126,-4.235485443434445,3.0833111165556883,0.18786573,-0.99584706,0.003112785,-5.5699,0.51884,-1.51074,72.0
1774821901.964321,1.9073486328125e-05,2026-03-29T22:05:01.964,2026-03-29T18:05:01.964,-31839.12,-50080.68,-85563.98999999999,-50431.994999999995,-15741.945,-20791.44,4547.925,-54460.89,3.1597525161376967,4.014854040571613,5.838381390197704,2.8814811468038255,-2.352431527238082,-4.345483275882414,-14.1064126990861,1.8141287715916796,0.18786573,-0.99584706,0.003112785,-5.5699,0.51884,-1.51074,72.0
1774821901.970053,0.005732059478759766,2026-03-29T22:05:01.970,2026-03-29T18:05:01.970,-31845.914999999997,-50095.08,-85576.455,-50439.465,-15749.91,-20798.505,4532.04,-54456.03,4.157260136107977,8.50491889563072,9.08596237602726,2.18784024096255,-1.462007593553485,-3.4562034978420675,-17.39560141351421,-0.5443872199894706,0.18786573,-0.99584706,0.003112785,-5.5699,0.51884,-1.51074,72.0
1774821901.9700675,1.4543533325195312e-05,2026-03-29T22:05:01.970,2026-03-29T18:05:01.970,-31862.52,-50105.52,-85584.915,-50439.375,-15749.82,-20799.63,4519.26,-54469.665,3.3238209143928312,9.412229361139637,8.313521298837843,0.5433954785648489,0.31233907769574765,-0.7653277744097772,-12.498317984597112,-2.710936746459543,0.18786573,-0.99584706,0.003112785,-5.5699,0.51884,-1.51074,72.0
1774821901.9741113,0.0040438175201416016,2026-03-29T22:05:01.974,2026-03-29T18:05:01.974,-31878.0,-50100.93,-85588.92,-50433.705,-15728.939999999999,-20779.695,4534.5599999999995,-54495.494999999995,1.209845964269608,6.277380984184594,3.9838017738779574,-1.1975930956092131,2.0942155041342727,2.382357534328653,-1.68359376017942,-3.4600749031588003,0.18786573,-0.99584706,0.003112785,-5.5699,0.51884,-1.51074,72.0
1774821901.974126,1.4781951904296875e-05,2026-03-29T22:05:01.974,2026-03-29T18:05:01.974,-31875.3,-50099.13,-85601.16,-50444.505,-15724.98,-20770.92,4558.005,-54497.34,-1.165601524411653,0.3671856229376231,-1.9173944333855373,-2.2008969035036454,2.9285020214753104,4.378287031017535,9.944722035841332,-2.3127773846177377,0.18786573,-0.99584706,0.003112785,-5.5699,0.51884,-1.51074,72.0
1774821901.976412,0.0022859573364257812,2026-03-29T22:05:01.976,2026-03-29T18:05:01.976,-31869.495,-50102.64,-85615.425,-50448.78,-15728.265,-20772.495,4563.135,-54486.27,-2.8133865679154924,-5.827073081714387,-6.790715868297466,-2.056447800018456,2.2882129681243786,4.171901418754944,16.859570703578548,0.16779389264783187,0.18786573,-0.99584706,0.003112785,-5.5699,0.51884,-1.51074,72.0
1774821901.976425,1.2874603271484375e-05,2026-03-29T22:05:01.976,2026-03-29T18:05:01.976,-31854.015,-50092.47,-85585.14,-50423.67,-15728.625,-20782.575,4545.675,-54468.99,-3.1814817541622826,-9.628990258467628,-8.568162893202175,-0.9487239386118266,0.3887099618212681,1.821738424968204,15.753764271338815,2.6531761503052995,0.18786573,-0.99584706,0.003112785,-5.5699,0.51884,-1.51074,72.0
1774821901.987403,0.010977983474731445,2026-03-29T22:05:01.987,2026-03-29T18:05:01.987,-31837.995,-50084.595,-85574.87999999999,-50430.15,-15729.84,-20784.87,4557.51,-54452.204999999994,-2.3062755764392753,-9.327185457222726,-6.589666395023533,0.47941209423718495,-1.8716937797953346,-1.5127834557532096,7.143118657754513,3.7628171965497854,0.18786573,-0.99584706,0.003112785,-5.5699,0.51884,-1.51074,72.0
1774821901.9874203,1.7404556274414062e-05,2026-03-29T22:05:01.987,2026-03-29T18:05:01.987,-31828.815,-50076.63,-85567.36499999999,-50454.134999999995,-15733.439999999999,-20785.86,4572.045,-54448.38,-0.6906627253769363,-4.94647713905935,-1.8410517045410777,1.4846930291975533,-3.3377550643795693,-4.145051513323217,-4.856897865893591,2.8303113799401034,0.18786573,-0.99584706,0.003112785,-5.5699,0.51884,-1.51074,72.0
1774821901.987439,1.8596649169921875e-05,2026-03-29T22:05:01.987,2026-03-29T18:05:01.987,-31849.065,-50084.189999999995,-85547.565,-50436.72,-15736.904999999999,-20788.605,4575.69,-54469.979999999996,0.9804371667390118,1.7070681714203209,3.5280728570728375,1.6093284551866331,-3.1876054366672224,-4.715880868769494,-14.49258663364213,0.29844013848445694,0.189391605,-0.99987537,0.002136225,-2.1669199999999997,0.15259999999999999,-1.17502,72.0
1774821901.9874463,7.3909759521484375e-06,2026-03-29T22:05:01.987,2026-03-29T18:05:01.987,-31877.324999999997,-50089.095,-85525.065,-50397.615,-15734.115,-20786.265,4528.62,-54505.845,2.1280747345073223,7.776035842021103,7.173934706564177,0.8946789350980435,-1.3857539696691856,-2.895212262965433,-17.13842336288373,-2.4879753865090652,0.189391605,-0.99987537,0.002136225,-2.1669199999999997,0.15259999999999999,-1.17502,72.0
1774821901.9874554,9.059906005859375e-06,2026-03-29T22:05:01.987,2026-03-29T18:05:01.987,-31877.91,-50071.545,-85478.44499999999,-50350.545,-15705.045,-20765.43,4507.155,-54516.555,2.4514867463714762,10.570504281193001,7.580177146018183,-0.17983574454190193,1.2479867727700646,0.4316335058101254,-11.534059724403097,-3.99578525529156,0.189391605,-0.99987537,0.002136225,-2.1669199999999997,0.15259999999999999,-1.17502,72.0
1774821901.9874623,6.9141387939453125e-06,2026-03-29T22:05:01.987,2026-03-29T18:05:01.987,-31868.28,-50078.07,-85510.845,-50402.384999999995,-15726.465,-20785.5,4513.679999999999,-54500.579999999994,1.9531841434397563,8.76153381745878,4.687550405951454,-0.9869070056254096,3.412304196838567,3.5967981945778655,-0.40218346484101963,-3.3451162291200127,0.189391605,-0.99987537,0.002136225,-2.1669199999999997,0.15259999999999999,-1.17502,72.0
1774821901.9969456,0.00948333740234375,2026-03-29T22:05:01.996,2026-03-29T18:05:01.996,-31852.934999999998,-50077.665,-85535.09999999999,-50397.165,-15715.125,-20783.07,4536.855,-54477.494999999995,0.863046086233964,3.0201116371439234,-0.12863278886168353,-1.1047976098128076,3.970458546936965,4.989385649912591,10.86322346252946,-0.8181082080878719,0.189391605,-0.99987537,0.002136225,-2.1669199999999997,0.15259999999999999,-1.17502,72.0
1774821901.996969,2.3365020751953125e-05,2026-03-29T22:05:01.996,2026-03-29T18:05:01.996,-31848.75,-50067.854999999996,-85521.87,-50367.42,-15690.96,-20755.079999999998,4592.429999999999,-54465.93,-0.4660920694645922,-4.208551763735831,-4.703385865471432,-0.539496005847129,2.5466084872347623,3.877607709014713,16.810207959179326,2.2564573407012363,0.189391605,-0.99987537,0.002136225,-2.1669199999999997,0.15259999999999999,-1.17502,72.0
1774821901.9970086,3.9577484130859375e-05,2026-03-29T22:05:01.997,2026-03-29T18:05:01.997,-31856.94,-50070.465,-85520.655,-50375.025,-15693.93,-20751.48,4587.57,-54476.909999999996,-1.6450413165803452,-9.734686028958413,-7.050618441442053,0.3023850284913423,-0.2401880289923945,0.7927795411682164,14.576449551996125,4.199169035107801,0.189391605,-0.99987537,0.002136225,-2.1669199999999997,0.15259999999999999,-1.17502,72.0
1774821901.9970212,1.2636184692382812e-05,2026-03-29T22:05:01.997,2026-03-29T18:05:01.997,-31857.704999999998,-50076.72,-85536.45,-50383.17,-15709.904999999999,-20764.305,4565.16,-54478.619999999995,-2.316740050312087,-11.031382277381017,-6.224649494683593,0.8681751265289889,-3.0436819356834857,-2.726440714188473,5.2802101172458,3.892642071769251,0.189391605,-0.99987537,0.002136225,-2.1669199999999997,0.15259999999999999,-1.17502,72.0
1774821902.000766,0.003744840621948242,2026-03-29T22:05:02.000,2026-03-29T18:05:02.000,-31860.09,-50093.28,-85573.75499999999,-50420.744999999995,-15739.92,-20784.239999999998,4551.929999999999,-54474.119999999995,-2.2314097227796887,-7.399871633037431,-2.7019505139410396,0.7928966528567678,-4.445283891203295,-4.905954861096632,-6.527650381109281,1.4166643370758043,0.189391605,-0.99987537,0.002136225,-2.1669199999999997,0.15259999999999999,-1.17502,72.0
1774821902.0008,3.3855438232421875e-05,2026-03-29T22:05:02.000,2026-03-29T18:05:02.000,-31857.795,-50091.705,-85573.26,-50428.305,-15739.965,-20782.079999999998,4542.21,-54471.645,-1.3376445884927122,-0.3510263059432329,1.8711339173120427,0.12005148117058129,-3.6757108677377164,-4.635252790624737,-15.086500794777534,-1.9516096205426954,0.189391605,-0.99987537,0.002136225,-2.1669199999999997,0.15259999999999999,-1.17502,72.0
1774821902.004291,0.0034911632537841797,2026-03-29T22:05:02.004,2026-03-29T18:05:02.004,-31845.329999999998,-50082.615,-85574.06999999999,-50460.659999999996,-15732.63,-20774.88,4550.264999999999,-54463.77,0.14310883662017104,7.006675952680849,5.4381982176131825,-0.7192345372326936,-1.0347207845883273,-2.0358963722392405,-16.238643209288224,-4.393648671416698,0.189635745,-1.004330925,0.003478995,-0.30519999999999997,-0.25942,-0.39676,72.0
1774821902.00431,1.8835067749023438e-05,2026-03-29T22:05:02.004,2026-03-29T18:05:02.004,-31848.93,-50074.92,-85551.61499999999,-50421.33,-15697.935,-20751.03,4560.615,-54481.994999999995,1.7215909167399428,11.334900518631418,6.453808132291412,-1.160634667754369,2.219090484350152,1.5929541330932484,-9.455896747409232,-4.525210677511514,0.189635745,-1.004330925,0.003478995,-0.30519999999999997,-0.25942,-0.39676,72.0
1774821902.0083692,0.004059314727783203,2026-03-29T22:05:02.008,2026-03-29T18:05:02.008,-31861.664999999997,-50079.06,-85553.73,-50434.064999999995,-15711.525,-20754.54,4585.815,-54495.9,2.773443146482952,10.58959997661133,4.555370603962563,-0.8516734885206639,4.472304063737074,4.428016873386328,1.9119113728243335,-2.170199062263507,0.189635745,-1.004330925,0.003478995,-0.30519999999999997,-0.25942,-0.39676,72.0
1774821902.0083978,2.86102294921875e-05,2026-03-29T22:05:02.008,2026-03-29T18:05:02.008,-31852.079999999998,-50090.759999999995,-85581.36,-50464.755,-15750.72,-20787.12,4595.085,-54475.155,2.784105525485241,5.001587010885343,0.692986346942732,0.11269432047719967,4.56301283849658,5.044163528239642,12.286582593200638,1.4955971243177297,0.189635745,-1.004330925,0.003478995,-0.30519999999999997,-0.25942,-0.39676,72.0
1774821902.012519,0.004121065139770508,2026-03-29T22:05:02.012,2026-03-29T18:05:02.012,-31852.26,-50093.415,-85569.61499999999,-50448.735,-15754.635,-20797.965,4581.495,-54472.229999999996,1.610919559451329,-2.9638422076653583,-3.3302119962589796,1.2089677852179446,2.383885142702868,3.1364197537396246,16.59792481625005,4.53070064627005,0.189635745,-1.004330925,0.003478995,-0.30519999999999997,-0.25942,-0.39676,72.0
1774821902.0125415,2.2649765014648438e-05,2026-03-29T22:05:02.012,2026-03-29T18:05:02.012,-31863.465,-50107.68,-85569.03,-50431.68,-15737.625,-20787.614999999998,4545.72,-54484.604999999996,-0.37573332661996256,-9.68742837265011,-5.691096256792265,1.763095437257051,-1.032654628792097,-0.32662800343327414,12.763184028191692,5.251516162652608,0.189635745,-1.004330925,0.003478995,-0.30519999999999997,-0.25942,-0.39676,72.0
1774821902.016745,0.0042035579681396484,2026-03-29T22:05:02.016,2026-03-29T18:05:02.016,-31879.305,-50132.43,-85578.525,-50405.715,-15712.875,-20768.579999999998,4540.86,-54494.28,-2.378807788460221,-12.047402306880667,-5.372119087669306,1.342429466042512,-4.005994851081202,-3.596561604449754,2.694719912564489,3.154778819759075,0.189635745,-1.004330925,0.003478995,-0.30519999999999997,-0.25942,-0.39676,72.0
1774821902.0167716,2.6464462280273438e-05,2026-03-29T22:05:02.016,2026-03-29T18:05:02.016,-31884.885,-50130.405,-85562.73,-50360.805,-15689.385,-20755.844999999998,4541.76,-54501.345,-3.4913819943669235,-8.885334969170266,-2.6060314577995456,0.041430256632892674,-5.040852354580288,-5.033841503736705,-8.653066164433017,-0.7623792847988322,0.189635745,-1.004330925,0.003478995,-0.30519999999999997,-0.25942,-0.39676,72.0
1774821902.020501,0.0037293434143066406,2026-03-29T22:05:02.020,2026-03-29T18:05:02.020,-31874.219999999998,-50110.92,-85558.14,-50364.27,-15694.515,-20759.265,4550.8949999999995,-54494.505,-3.119738446210112,-1.5903645507584498,1.2576798437346062,-1.5132051904853114,-3.5865973425922175,-3.9374861968992048,-15.722444221661224,-4.477897800321835,0.189635745,-1.004330925,0.003478995,-0.30519999999999997,-0.25942,-0.39676,72.0
1774821902.0205252,2.4318695068359375e-05,2026-03-29T22:05:02.020,2026-03-29T18:05:02.020,-31864.77,-50094.63,-85598.50499999999,-50421.555,-15725.97,-20777.94,4548.0599999999995,-54491.895,-1.309205752993653,6.499565010401012,4.396953987218027,-2.4646945612369575,-0.3337575095657695,-0.8926515785486713,-15.07458669978627,-5.9880820605141025,0.189635745,-1.004330925,0.003478995,-0.30519999999999997,-0.25942,-0.39676,72.0
1774821902.0242949,0.0037696361541748047,2026-03-29T22:05:02.024,2026-03-29T18:05:02.024,-31847.67,-50067.63,-85600.75499999999,-50427.72,-15731.279999999999,-20785.005,4542.255,-54490.14,1.2092982507807135,11.627878804936296,5.370361212293012,-2.1899203051322407,3.113294363121546,2.5389439198597077,-7.060114762413859,-4.379860385319312,0.191344725,-1.004941275,0.003356925,0.82404,0.25942,0.6103999999999999,72.0
1774821902.0243087,1.3828277587890625e-05,2026-03-29T22:05:02.024,2026-03-29T18:05:02.024,-31826.52,-50055.165,-85604.76,-50447.115,-15735.734999999999,-20781.045,4558.5,-54474.975,3.3098397369272976,11.378315997932075,3.782418073995184,-0.6768627881343656,5.0329522475869695,4.623372344681003,4.373869683186013,-0.3609041400543496,0.191344725,-1.004941275,0.003356925,0.82404,0.25942,0.6103999999999999,72.0
1774821902.0296469,0.005338191986083984,2026-03-29T22:05:02.029,2026-03-29T18:05:02.029,-31814.82,-50047.65,-85567.905,-50433.705,-15716.205,-20760.84,4581.09,-54461.34,3.986384280580145,5.832053285647908,0.4521592895973125,1.4030477295998536,4.454732063539076,4.338297909679523,13.633529854966596,4.052389834774672,0.191344725,-1.004941275,0.003356925,0.82404,0.25942,0.6103999999999999,72.0
1774821902.0296593,1.239776611328125e-05,2026-03-29T22:05:02.029,2026-03-29T18:05:02.029,-31845.329999999998,-50096.655,-85584.915,-50469.659999999996,-15730.515,-20767.094999999998,4605.165,-54470.295,2.850824597513581,-2.439935365646231,-2.9915736644311184,2.993857302025373,1.657920134038464,1.8827001005236723,16.21849029666513,6.551078202267382,0.191344725,-1.004941275,0.003356925,0.82404,0.25942,0.6103999999999999,72.0
1774821902.0326722,0.0030128955841064453,2026-03-29T22:05:02.032,2026-03-29T18:05:02.032,-31863.195,-50125.32,-85591.395,-50482.08,-15749.91,-20791.665,4568.22,-54480.869999999995,0.36028500840317507,-9.56656258307965,-4.895094717536769,3.191914862836252,-1.959023829485707,-1.445281401340152,10.907243379090518,5.739355282295205,0.191344725,-1.004941275,0.003356925,0.82404,0.25942,0.6103999999999999,72.0
1774821902.0326812,9.059906005859375e-06,2026-03-29T22:05:02.032,2026-03-29T18:05:02.032,-31859.145,-50103.09,-85533.165,-50392.575,-15726.33,-20789.19,4551.48,-54479.475,-2.360197724233699,-12.19878593420664,-4.371524945481676,1.747176532508683,-4.579511729502013,-3.9324783995755954,0.3259512644327922,1.9004473556835892,0.191344725,-1.004941275,0.003356925,0.82404,0.25942,0.6103999999999999,72.0
1774821902.0365407,0.0038595199584960938,2026-03-29T22:05:02.036,2026-03-29T18:05:02.036,-31859.954999999998,-50088.825,-85541.4,-50417.189999999995,-15750.539999999999,-20806.245,4540.095,-54475.784999999996,-4.034886503892628,-9.101229020106935,-1.7207722299630148,-0.7449107606377855,-4.888377045301937,-4.337420322150168,-10.360999407938996,-3.0925905379572938,0.191344725,-1.004941275,0.003356925,0.82404,0.25942,0.6103999999999999,72.0
1774821902.0365536,1.2874603271484375e-05,2026-03-29T22:05:02.036,2026-03-29T18:05:02.036,-31866.84,-50078.79,-85553.055,-50449.095,-15764.49,-20818.44,4504.275,-54496.665,-3.852205559528279,-1.7482095679860155,1.7246150405168803,-3.087128347841751,-2.7416291253394074,-2.5189903536556457,-15.981124443874316,-6.699100511725492,0.191344725,-1.004941275,0.003356925,0.82404,0.25942,0.6103999999999999,72.0
1774821902.0430999,0.0065462589263916016,2026-03-29T22:05:02.043,2026-03-29T18:05:02.043,-31860.989999999998,-50067.674999999996,-85543.83,-50449.365,-15743.789999999999,-20793.645,4522.545,-54517.409999999996,-1.8731789708135855,6.3709845775799785,4.254866907902073,-4.061153536836309,0.7586525063310532,0.5150246938977432,-13.860129089098255,-7.007945292783431,0.191344725,-1.004941275,0.003356925,0.82404,0.25942,0.6103999999999999,72.0
1774821902.0431283,2.8371810913085938e-05,2026-03-29T22:05:02.043,2026-03-29T18:05:02.043,-31864.59,-50078.52,-85550.31,-50434.02,-15728.13,-20781.585,4560.21,-54511.02,0.9785618036113348,11.413208984631705,4.6231085400080305,-3.0608984032027133,3.8267173615168524,3.1564224430733807,-5.087613273094496,-3.7449199096083516,0.191344725,-1.004941275,0.003356925,0.82404,0.25942,0.6103999999999999,72.0
1774821902.062638,0.01950979232788086,2026-03-29T22:05:02.062,2026-03-29T18:05:02.062,-31852.215,-50065.02,-85521.735,-50389.965,-15696.18,-20758.14,4590.179999999999,-54480.329999999994,3.3524945192978075,11.015152977979014,2.6602812327296617,-0.4490540017385541,4.907354817235603,4.047572254877067,6.054538814295021,1.5388574632887146,0.19238232,-0.9973119,0.004943835,-2.65524,-0.19838,1.9227599999999998,72.0
1774821902.0626764,3.838539123535156e-05,2026-03-29T22:05:02.062,2026-03-29T18:05:02.062,-31846.905,-50068.71,-85532.4,-50400.54,-15709.904999999999,-20772.405,4574.88,-54469.395,4.124668465603858,5.417339370904437,-0.6394064527950376,2.566132874106701,3.4727423056023916,2.7854608358700164,14.197252166405208,6.214004654473439,0.19238232,-0.9973119,0.004943835,-2.65524,-0.19838,1.9227599999999998,72.0
1774821902.0627103,3.3855438232421875e-05,2026-03-29T22:05:02.062,2026-03-29T18:05:02.062,-31849.199999999997,-50079.42,-85552.69499999999,-50426.685,-15726.06,-20775.42,4573.215,-54478.215,2.9462182544651876,-2.664109634667024,-3.6098266677487816,4.497093414369823,0.29026095088385667,0.11138012434817456,15.481186630407429,7.890985251411808,0.19238232,-0.9973119,0.004943835,-2.65524,-0.19838,1.9227599999999998,72.0
1774821902.0627284,1.811981201171875e-05,2026-03-29T22:05:02.062,2026-03-29T18:05:02.062,-31852.305,-50088.96,-85560.03,-50432.354999999996,-15733.08,-20783.024999999998,4558.23,-54478.305,0.4118925643779628,-9.35502969433684,-4.743469595110841,4.317289812086376,-2.978864488005162,-2.5065400448955923,9.384528380371233,5.643988217708802,0.19238232,-0.9973119,0.004943835,-2.65524,-0.19838,1.9227599999999998,72.0
1774821902.0627496,2.1219253540039062e-05,2026-03-29T22:05:02.062,2026-03-29T18:05:02.062,-31855.454999999998,-50092.29,-85564.62,-50437.305,-15739.425,-20791.485,4536.179999999999,-54493.604999999996,-2.23767710393435,-11.490436972269475,-3.4511154076452093,2.004057771172213,-4.643674666782665,-3.6691482886079676,-1.083908699871186,0.5123315980233497,0.19238232,-0.9973119,0.004943835,-2.65524,-0.19838,1.9227599999999998,72.0
1774821902.0627663,1.6689300537109375e-05,2026-03-29T22:05:02.062,2026-03-29T18:05:02.062,-31873.454999999998,-50088.42,-85552.47,-50421.555,-15727.005,-20781.405,4526.6849999999995,-54536.715,-3.7313844545696067,-8.126075663767233,-0.3690681714409811,-1.4023259062825506,-3.862109361569826,-2.793125697396142,-10.886380180799987,-4.98859293850006,0.19238232,-0.9973119,0.004943835,-2.65524,-0.19838,1.9227599999999998,72.0
1774821902.062786,1.9788742065429688e-05,2026-03-29T22:05:02.062,2026-03-29T18:05:02.062,-31863.375,-50083.064999999995,-85547.34,-50415.975,-15722.414999999999,-20778.165,4543.155,-54514.079999999994,-3.3915059518454655,-0.9650630153056324,2.9476047474518694,-4.273424828868046,-1.0761378281808622,-0.41088395386374776,-15.396395652514203,-8.112692794321648,0.19238232,-0.9973119,0.004943835,-2.65524,-0.19838,1.9227599999999998,72.0
1774821902.0628028,1.6689300537109375e-05,2026-03-29T22:05:02.062,2026-03-29T18:05:02.062,-31852.395,-50078.34,-85539.465,-50410.395,-15719.175,-20772.809999999998,4577.22,-54474.345,-1.4534411901152209,6.498002102237369,4.801475105889951,-5.181122954797892,2.2251085725495794,2.1334454207539473,-12.588373553569443,-7.262652514677229,0.19238232,-0.9973119,0.004943835,-2.65524,-0.19838,1.9227599999999998,72.0
1774821902.0628223,1.9550323486328125e-05,2026-03-29T22:05:02.062,2026-03-29T18:05:02.062,-31850.504999999997,-50073.479999999996,-85523.67,-50390.64,-15705.81,-20761.695,4587.84,-54467.595,1.0751254423141245,10.687443184162424,4.214482103979941,-3.6132289133372875,4.291773890156241,3.4246792845358,-3.9375788084656054,-2.806686707148287,0.19238232,-0.9973119,0.004943835,-2.65524,-0.19838,1.9227599999999998,72.0
1774821902.0628393,1.6927719116210938e-05,2026-03-29T22:05:02.062,2026-03-29T18:05:02.062,-31853.699999999997,-50085.27,-85543.785,-50405.895,-15724.619999999999,-20784.239999999998,4546.62,-54478.215,2.936991756145293,9.671114585133745,1.439521188704953,-0.25505134105154353,4.037513030572999,2.7522798753142688,6.3645066234635435,3.0851421183230228,0.19238232,-0.9973119,0.004943835,-2.65524,-0.19838,1.9227599999999998,72.0
1774821902.0643964,0.0015571117401123047,2026-03-29T22:05:02.064,2026-03-29T18:05:02.064,-31846.5,-50086.485,-85557.105,-50413.545,-15731.955,-20793.87,4533.21,-54471.869999999995,3.25870674843332,4.061264434069734,-2.1451552219100796,3.3152307000499617,1.6146723850582694,0.5004298315625308,13.45932716602852,7.509966350483485,0.194152335,-0.988095615,0.00622557,-6.9433,-0.62566,3.052,72.0
1774821902.0644064,1.0013580322265625e-05,2026-03-29T22:05:02.064,2026-03-29T18:05:02.064,-31852.35,-50090.805,-85574.745,-50401.485,-15728.265,-20793.195,4550.4,-54477.09,1.9714726978217363,-3.333607766482795,-4.717674032482463,5.379280553699485,-1.6655576263362732,-2.0608684542914997,14.125501064736161,8.274362810181758,0.194152335,-0.988095615,0.00622557,-6.9433,-0.62566,3.052,72.0
1774821902.068618,0.0042116641998291016,2026-03-29T22:05:02.068,2026-03-29T18:05:02.068,-31858.469999999998,-50080.905,-85554.765,-50363.865,-15711.255,-20773.17,4574.565,-54494.865,-0.1882008012114857,-8.914995624731304,-4.934851762069648,4.915041219655959,-4.029849964082331,-3.4735008273407675,8.239841856970632,4.987980808551087,0.194152335,-0.988095615,0.00622557,-6.9433,-0.62566,3.052,72.0
1774821902.0686443,2.6226043701171875e-05,2026-03-29T22:05:02.068,2026-03-29T18:05:02.068,-31861.44,-50082.884999999995,-85545.135,-50375.43,-15728.849999999999,-20780.055,4577.535,-54502.92,-2.0860870686571715,-10.053789679212734,-2.629225657335188,2.105284727491185,-4.190722372136863,-2.901007010619402,-1.266230884750531,-0.7393718551337165,0.194152335,-0.988095615,0.00622557,-6.9433,-0.62566,3.052,72.0
1774821902.0726905,0.004046201705932617,2026-03-29T22:05:02.072,2026-03-29T18:05:02.072,-31852.8,-50085.09,-85552.92,-50426.189999999995,-15744.015,-20787.975,4556.835,-54496.53,-2.784704163506324,-6.337906867991738,1.0803095126219815,-1.7358860079350362,-2.0429481785800214,-0.608152737540444,-9.880801246000008,-6.095595342696737,0.194152335,-0.988095615,0.00622557,-6.9433,-0.62566,3.052,72.0
1774821902.0727103,1.9788742065429688e-05,2026-03-29T22:05:02.072,2026-03-29T18:05:02.072,-31841.64,-50086.395,-85589.01,-50505.165,-15742.439999999999,-20781.719999999998,4527.36,-54485.505,-2.012902348584046,0.2890435050596741,4.333325023476964,-4.7877252002497395,1.2664087048791366,2.158694222097433,-13.669492809227108,-8.459455587899113,0.194152335,-0.988095615,0.00622557,-6.9433,-0.62566,3.052,72.0
1774821902.0794408,0.006730556488037109,2026-03-29T22:05:02.079,2026-03-29T18:05:02.079,-31849.965,-50097.06,-85605.84,-50492.07,-15724.619999999999,-20776.364999999998,4528.08,-54487.305,-0.27229773613131514,6.538912375305318,5.463012851956717,-5.5967333270599475,3.9401220753202817,3.8375601853770056,-11.0784554763013,-6.693417811330109,0.194152335,-0.988095615,0.00622557,-6.9433,-0.62566,3.052,72.0
1774821902.0794668,2.5987625122070312e-05,2026-03-29T22:05:02.079,2026-03-29T18:05:02.079,-31881.914999999997,-50099.67,-85573.89,-50436.54,-15702.615,-20758.905,4565.565,-54517.454999999994,1.4619456302683145,9.415931135025682,3.850841171566372,-3.7751387949821327,4.492695447534056,3.411331067846569,-3.5539380786400594,-1.6942819086904755,0.194152335,-0.988095615,0.00622557,-6.9433,-0.62566,3.052,72.0
1774821902.082493,0.003026247024536133,2026-03-29T22:05:02.082,2026-03-29T18:05:02.082,-31876.875,-50092.47,-85537.215,-50402.25,-15709.59,-20768.175,4588.425,-54514.439999999995,2.2753276448155173,7.661327819427214,0.2614943828315993,-0.1855781790156656,2.5622028824761007,0.9962796330760322,5.258090529494263,4.06606946602521,0.194152335,-0.988095615,0.00622557,-6.9433,-0.62566,3.052,72.0
1774821902.082579,8.58306884765625e-05,2026-03-29T22:05:02.082,2026-03-29T18:05:02.082,-31866.21,-50082.75,-85518.94499999999,-50373.63,-15701.984999999999,-20767.59,4590.855,-54506.924999999996,1.7942852908925475,2.3041136475908295,-3.52305722952306,3.4750161178799206,-0.866704020597303,-2.1722066171886283,11.293092406059763,7.772820994531105,0.194152335,-0.988095615,0.00622557,-6.9433,-0.62566,3.052,72.0
1774821902.085024,0.002445220947265625,2026-03-29T22:05:02.085,2026-03-29T18:05:02.085,-31856.219999999998,-50085.765,-85534.965,-50377.365,-15703.785,-20768.355,4589.955,-54496.665,0.36048634199811874,-3.9236384638222095,-5.595057694213161,5.487599646719431,-3.960994322931911,-4.369534968489923,11.954088648082278,7.654748404828338,0.19457958,-0.9871800900000001,0.00524901,-7.614739999999999,-1.12924,5.096839999999999,72.0
1774821902.0850365,1.239776611328125e-05,2026-03-29T22:05:02.085,2026-03-29T18:05:02.085,-31857.48,-50097.195,-85552.83,-50387.895,-15713.685,-20772.989999999998,4583.295,-54493.424999999996,-1.1835796142031973,-7.982175562650834,-4.8897464574765035,4.9256526922507575,-5.007946551721263,-4.306690758624254,7.22316824392945,3.8374483097552514,0.19457958,-0.9871800900000001,0.00524901,-7.614739999999999,-1.12924,5.096839999999999,72.0
1774821902.0883107,0.003274202346801758,2026-03-29T22:05:02.088,2026-03-29T18:05:02.088,-31859.954999999998,-50101.74,-85574.745,-50417.235,-15722.73,-20774.88,4571.82,-54492.795,-1.9711642920174406,-8.016215895765585,-1.7362545872897355,2.0829690463062125,-3.3462393148539116,-1.8588752525420622,-0.4732261483588258,-1.7505007778699515,0.19457958,-0.9871800900000001,0.00524901,-7.614739999999999,-1.12924,5.096839999999999,72.0
1774821902.0883212,1.049041748046875e-05,2026-03-29T22:05:02.088,2026-03-29T18:05:02.088,-31861.934999999998,-50095.89,-85592.43,-50454.81,-15737.894999999999,-20788.38,4536.315,-54501.615,-1.5862981514818864,-4.2068340781741025,2.296880484799169,-1.682867945722476,0.2407964236737695,1.804269427928653,-7.511402495396497,-6.35659115324273,0.19457958,-0.9871800900000001,0.00524901,-7.614739999999999,-1.12924,5.096839999999999,72.0
1774821902.0952256,0.0069043636322021484,2026-03-29T22:05:02.095,2026-03-29T18:05:02.095,-31855.094999999998,-50074.965,-85575.465,-50449.32,-15731.82,-20784.42,4522.679999999999,-54511.56,-0.28045980941833315,1.4106758596517617,5.189942526362755,-4.60614779098748,3.8954642486569506,4.781740212111482,-10.788552819687133,-7.769486719488178,0.19457958,-0.9871800900000001,0.00524901,-7.614739999999999,-1.12924,5.096839999999999,72.0
1774821902.095246,2.0503997802734375e-05,2026-03-29T22:05:02.095,2026-03-29T18:05:02.095,-31856.895,-50075.415,-85560.39,-50429.564999999995,-15729.66,-20783.34,4539.825,-54516.735,1.1813073757717523,6.029853105097265,5.4954157838932565,-5.347356649318247,5.644007790062478,5.424386041907022,-9.092761514584764,-5.389165133471367,0.19457958,-0.9871800900000001,0.00524901,-7.614739999999999,-1.12924,5.096839999999999,72.0
1774821902.1040645,0.008818387985229492,2026-03-29T22:05:02.104,2026-03-29T18:05:02.104,-31846.274999999998,-50072.085,-85541.48999999999,-50400.27,-15719.31,-20777.219999999998,4556.97,-54499.454999999994,1.9543448526090446,7.482824352990186,3.073180602458834,-3.6090377456623224,4.449601487068222,3.230583899999365,-3.520124891049234,-0.4806893014346695,0.19457958,-0.9871800900000001,0.00524901,-7.614739999999999,-1.12924,5.096839999999999,72.0
1774821902.1040769,1.239776611328125e-05,2026-03-29T22:05:02.104,2026-03-29T18:05:02.104,-31855.725,-50088.825,-85575.69,-50420.025,-15730.515,-20783.79,4550.985,-54495.494999999995,1.5870751189061587,5.26490596046413,-0.84099772250055,-0.24977636589492647,0.8026630076658401,-0.8257863698332859,3.1850776296062415,4.494711478465714,0.19457958,-0.9871800900000001,0.00524901,-7.614739999999999,-1.12924,5.096839999999999,72.0
1774821902.104088,1.1205673217773438e-05,2026-03-29T22:05:02.104,2026-03-29T18:05:02.104,-31854.87,-50098.455,-85608.27,-50434.02,-15740.55,-20794.41,4529.025,-54493.56,0.2728109971876132,0.6857871791197481,-4.270121588497316,3.1432066155856,-3.4793309946181408,-4.73255503840898,7.98674124008676,7.118695953711479,0.19457958,-0.9871800900000001,0.00524901,-7.614739999999999,-1.12924,5.096839999999999,72.0
1774821902.1040924,4.291534423828125e-06,2026-03-29T22:05:02.104,2026-03-29T18:05:02.104,-31861.71,-50107.229999999996,-85619.87999999999,-50430.509999999995,-15750.63,-20808.405,4505.58,-54498.689999999995,-1.2562508711229101,-3.8825544391961393,-5.507040589288469,5.00795743276649,-6.161625794104747,-6.442948555908924,8.938039539222364,6.199009935163093,0.19457958,-0.9871800900000001,0.00524901,-7.614739999999999,-1.12924,5.096839999999999,72.0
1774821902.106928,0.0028357505798339844,2026-03-29T22:05:02.106,2026-03-29T18:05:02.106,-31853.475,-50100.659999999996,-85597.2,-50410.034999999996,-15734.385,-20791.8,4520.16,-54504.09,-2.1336380416369303,-6.238265513999615,-3.980199909410601,4.528202877695338,-5.7541062007451185,-4.942360097218517,5.957139628306629,2.314644281106496,0.1916499,-0.987851475,0.0042114150000000005,-6.1955599999999995,-1.2818399999999999,5.096839999999999,72.0
1774821902.1069458,1.7642974853515625e-05,2026-03-29T22:05:02.106,2026-03-29T18:05:02.106,-31855.949999999997,-50100.03,-85564.935,-50415.345,-15716.34,-20763.36,4585.32,-54515.52,-1.839696054544064,-5.420711956537378,-0.5282446640299778,1.9880076922281529,-2.3223847108715643,-0.8239632839517006,0.696889200267547,-2.5275836879735416,0.1916499,-0.987851475,0.0042114150000000005,-6.1955599999999995,-1.2818399999999999,5.096839999999999,72.0
1774821902.106962,1.621246337890625e-05,2026-03-29T22:05:02.106,2026-03-29T18:05:02.106,-31857.39,-50107.365,-85551.3,-50446.575,-15715.755,-20753.82,4594.545,-54510.119999999995,-0.49544540036518664,-2.0944662162828807,3.0539208075137396,-1.3909820790887821,2.4876808010663325,3.9444585009719066,-4.351368921304452,-5.928352042910392,0.1916499,-0.987851475,0.0042114150000000005,-6.1955599999999995,-1.2818399999999999,5.096839999999999,72.0
1774821902.106969,7.152557373046875e-06,2026-03-29T22:05:02.106,2026-03-29T18:05:02.106,-31859.954999999998,-50097.195,-85523.715,-50402.475,-15695.64,-20749.545,4569.4349999999995,-54504.81,1.1927441544227309,1.903357448165346,4.955139949785646,-4.037770966298487,6.248421109339638,6.971376333437742,-7.042080796103214,-6.2893182845952875,0.1916499,-0.987851475,0.0042114150000000005,-6.1955599999999995,-1.2818399999999999,5.096839999999999,72.0
1774821902.1125803,0.0056111812591552734,2026-03-29T22:05:02.112,2026-03-29T18:05:02.112,-31859.235,-50062.634999999995,-85498.245,-50360.85,-15687.675,-20754.899999999998,4550.76,-54509.49,2.309901105956889,4.569545947148277,4.2797121363703505,-4.761917088087603,6.980248305044193,6.645632661652815,-6.483812543545264,-3.5690373774304707,0.1916499,-0.987851475,0.0042114150000000005,-6.1955599999999995,-1.2818399999999999,5.096839999999999,72.0
1774821902.1125968,1.6450881958007812e-05,2026-03-29T22:05:02.112,2026-03-29T18:05:02.112,-31846.545,-50050.665,-85528.53,-50408.729999999996,-15713.865,-20772.27,4559.804999999999,-54506.564999999995,2.228008764807053,4.7477466738729674,1.4851678062979679,-3.286721726495511,4.187511075967366,2.9851925325506383,-3.290017464296597,0.7581462428924368,0.1916499,-0.987851475,0.0042114150000000005,-6.1955599999999995,-1.2818399999999999,5.096839999999999,72.0
1774821902.1167383,0.004141569137573242,2026-03-29T22:05:02.116,2026-03-29T18:05:02.116,-31844.07,-50062.409999999996,-85551.93,-50425.244999999995,-15727.769999999999,-20781.855,4580.6849999999995,-54498.689999999995,0.9523117154757388,2.6319526538957456,-1.8951321526454301,-0.34896045067972004,-0.8398193633303108,-2.31345957184028,0.8686755579145459,4.491699318635531,0.1916499,-0.987851475,0.0042114150000000005,-6.1955599999999995,-1.2818399999999999,5.096839999999999,72.0
1774821902.11676,2.1696090698242188e-05,2026-03-29T22:05:02.116,2026-03-29T18:05:02.116,-31848.48,-50072.04,-85563.855,-50444.145,-15742.439999999999,-20787.614999999998,4595.355,-54496.439999999995,-0.8703421559904599,-0.45978999250011554,-4.08634999494725,2.666418392143582,-5.632251435887526,-6.673474596333739,4.127342109198717,5.823616636489461,0.1916499,-0.987851475,0.0042114150000000005,-6.1955599999999995,-1.2818399999999999,5.096839999999999,72.0
1774821902.1205983,0.0038383007049560547,2026-03-29T22:05:02.120,2026-03-29T18:05:02.120,-31855.454999999998,-50084.415,-85572.62999999999,-50446.215,-15749.46,-20796.48,4578.525,-54503.64,-2.2884164072409243,-2.869072471446045,-4.012583912888241,4.376329762657728,-7.765113750551881,-7.902221133115379,5.263949389102864,4.2174501501885056,0.1916499,-0.987851475,0.0042114150000000005,-6.1955599999999995,-1.2818399999999999,5.096839999999999,72.0
1774821902.12062,2.1696090698242188e-05,2026-03-29T22:05:02.120,2026-03-29T18:05:02.120,-31866.12,-50076.494999999995,-85547.97,-50409.0,-15718.23,-20773.305,4567.545,-54529.29,-2.5493228639957723,-3.486615301224187,-1.8421216293144125,4.030909021640659,-6.088948614314804,-5.2964776717989945,4.135505907005489,0.6187133026998582,0.1916499,-0.987851475,0.0042114150000000005,-6.1955599999999995,-1.2818399999999999,5.096839999999999,72.0
1774821902.1249824,0.004362344741821289,2026-03-29T22:05:02.124,2026-03-29T18:05:02.124,-31853.43,-50069.564999999995,-85541.265,-50398.515,-15709.994999999999,-20768.715,4567.815,-54516.195,-1.5009986295361268,-2.271297045505678,1.1458287118627835,1.8402321602306844,-1.3396309234885557,-0.029834101438071997,1.5709573759130433,-3.082423895837094,0.184997085,-0.98449455,0.0061035,-7.29428,-2.10588,3.38772,72.0
1774821902.1250038,2.1457672119140625e-05,2026-03-29T22:05:02.125,2026-03-29T18:05:02.125,-31842.719999999998,-50063.354999999996,-85536.315,-50385.645,-15705.539999999999,-20766.51,4571.639999999999,-54507.015,0.32349706464076333,-0.15221283155856027,3.288318942736498,-1.1441718568602453,4.192378773638196,5.385859199075226,-1.150407308076571,-5.037784517793339,0.184997085,-0.98449455,0.0061035,-7.29428,-2.10588,3.38772,72.0
1774821902.1287637,0.0037598609924316406,2026-03-29T22:05:02.128,2026-03-29T18:05:02.128,-31840.065,-50061.6,-85540.095,-50378.49,-15698.744999999999,-20759.04,4573.304999999999,-54512.595,1.9842350105871076,1.5842933724838795,3.4557893632875563,-3.5290564116967014,7.781162450097702,8.312980137023665,-2.931397337128953,-4.36441973359773,0.184997085,-0.98449455,0.0061035,-7.29428,-2.10588,3.38772,72.0
1774821902.1287892,2.5510787963867188e-05,2026-03-29T22:05:02.128,2026-03-29T18:05:02.128,-31845.329999999998,-50082.615,-85568.12999999999,-50401.845,-15714.675,-20770.695,4551.525,-54523.755,2.627835737825835,2.0471422103855716,1.6568385180165806,-4.225522768746809,7.619468438939464,7.282660048958725,-3.290321617247963,-1.5428934789790498,0.184997085,-0.98449455,0.0061035,-7.29428,-2.10588,3.38772,72.0
1774821902.1325836,0.003794431686401367,2026-03-29T22:05:02.132,2026-03-29T18:05:02.132,-31842.09,-50092.02,-85581.62999999999,-50411.744999999995,-15720.345,-20778.165,4516.155,-54527.715,1.9339834874831388,1.2036709919277968,-0.9962979532758435,-2.944536666556024,3.7301695325712996,2.7315281538722105,-2.429678213293657,1.8887660283163594,0.184997085,-0.98449455,0.0061035,-7.29428,-2.10588,3.38772,72.0
1774821902.1326067,2.3126602172851562e-05,2026-03-29T22:05:02.132,2026-03-29T18:05:02.132,-31854.555,-50099.4,-85590.62999999999,-50446.665,-15735.42,-20783.114999999998,4543.47,-54515.655,0.2787205240729155,-0.18901672059912591,-2.9353220946769913,-0.317743050315033,-2.025448078602085,-3.188804987564944,-0.9786120801204254,4.1620776763897185,0.184997085,-0.98449455,0.0061035,-7.29428,-2.10588,3.38772,72.0
1774821902.1379375,0.005330801010131836,2026-03-29T22:05:02.137,2026-03-29T18:05:02.137,-31866.344999999998,-50100.255,-85584.06,-50476.32,-15737.76,-20771.19,4585.365,-54498.465,-1.470120553244709,-1.1131289823667943,-3.032281239723218,2.407453111252916,-6.852769884402724,-7.643354721380001,0.3983745130119189,4.185770726348355,0.184997085,-0.98449455,0.0061035,-7.29428,-2.10588,3.38772,72.0
1774821902.1379552,1.7642974853515625e-05,2026-03-29T22:05:02.137,2026-03-29T18:05:02.137,-31888.485,-50116.32,-85591.08,-50475.195,-15756.93,-20796.165,4550.49,-54518.13,-2.413980133134274,-0.946683114432424,-1.243132160852603,3.9546033456292484,-8.395668731521349,-8.485229390235459,1.301994719768707,2.0695353974158217,0.184997085,-0.98449455,0.0061035,-7.29428,-2.10588,3.38772,72.0
1774821902.140448,0.0024929046630859375,2026-03-29T22:05:02.140,2026-03-29T18:05:02.140,-31872.239999999998,-50091.795,-85554.495,-50428.35,-15737.49,-20786.489999999998,4569.345,-54517.59,-2.094356185970365,0.14909935229893578,1.3637116851233615,3.6140252232157852,-5.894926743389574,-5.297222545769529,1.6741795031704738,-0.9876481220484941,0.184997085,-0.98449455,0.0061035,-7.29428,-2.10588,3.38772,72.0
1774821902.1404595,1.1444091796875e-05,2026-03-29T22:05:02.140,2026-03-29T18:05:02.140,-31857.21,-50077.305,-85539.555,-50416.064999999995,-15725.88,-20777.805,4576.995,-54511.11,-0.7237106558187166,1.3413815985390223,3.2146780214137887,1.5710285543374367,-0.5599022875816873,0.40483875630040034,1.6646918011972525,-3.3621645231550152,0.184997085,-0.98449455,0.0061035,-7.29428,-2.10588,3.38772,72.0
1774821902.1463568,0.0058972835540771484,2026-03-29T22:05:02.146,2026-03-29T18:05:02.146,-31856.715,-50089.095,-85570.47,-50440.229999999996,-15743.07,-20793.78,4542.885,-54514.125,0.9427201397911203,1.667490585042158,3.138662528406346,-1.1866046995117951,5.027634612561739,5.904544798372952,1.421997597583975,-3.8607154259020593,0.17846634,-0.9803441700000001,0.00756834,-13.59666,-6.45498,3.00622,72.0
1774821902.1463706,1.3828277587890625e-05,2026-03-29T22:05:02.146,2026-03-29T18:05:02.146,-31851.315,-50085.945,-85568.94,-50432.895,-15732.359999999999,-20782.665,4558.724999999999,-54507.284999999996,2.020541178495336,0.6796186531341162,1.0653156442857294,-3.3394297506062434,8.17847303779933,8.593848380989654,0.9661705802432294,-2.318201689595863,0.17846634,-0.9803441700000001,0.00756834,-13.59666,-6.45498,3.00622,72.0
1774821902.149189,0.0028183460235595703,2026-03-29T22:05:02.149,2026-03-29T18:05:02.149,-31860.629999999997,-50085.045,-85561.29,-50421.195,-15719.22,-20768.265,4572.54,-54511.2,1.9699238422531429,-1.2037111935903027,-1.8883321903235966,-3.8648603364505503,7.402891205074504,7.221040548162389,0.22603540735315103,0.3605505813224168,0.17846634,-0.9803441700000001,0.00756834,-13.59666,-6.45498,3.00622,72.0
1774821902.1492076,1.8596649169921875e-05,2026-03-29T22:05:02.149,2026-03-29T18:05:02.149,-31871.835,-50093.145,-85566.915,-50425.56,-15725.43,-20776.184999999998,4556.79,-54527.4,0.8746979082279704,-2.8725204657687367,-4.010940327215543,-2.5258291000918534,3.11869625005127,2.475608761666062,-0.8000664705108189,2.7165147974960173,0.17846634,-0.9803441700000001,0.00756834,-13.59666,-6.45498,3.00622,72.0
1774821902.155324,0.006116390228271484,2026-03-29T22:05:02.155,2026-03-29T18:05:02.155,-31862.295,-50088.24,-85558.905,-50415.39,-15725.789999999999,-20780.64,4551.705,-54520.244999999995,-0.6202513156409192,-3.1541106619355594,-3.9572796596857014,0.01527396494868121,-2.5776663615976094,-3.3641119575788014,-1.8927231378460097,3.521803390737907,0.17846634,-0.9803441700000001,0.00756834,-13.59666,-6.45498,3.00622,72.0
1774821902.1553385,1.4543533325195312e-05,2026-03-29T22:05:02.155,2026-03-29T18:05:02.155,-31858.02,-50085.18,-85551.39,-50401.08,-15725.43,-20781.045,4558.545,-54513.63,-1.6744165870464378,-1.5476199903456551,-1.5470983510753529,2.5160903037064606,-6.950144574645923,-7.537808940539455,-2.605796518956047,2.4157524571175926,0.17846634,-0.9803441700000001,0.00756834,-13.59666,-6.45498,3.00622,72.0
1774821902.15536,2.1457672119140625e-05,2026-03-29T22:05:02.155,2026-03-29T18:05:02.155,-31861.305,-50088.825,-85554.09,-50400.494999999995,-15727.769999999999,-20780.64,4561.65,-54514.305,-1.7175402501381818,1.3691800091770356,2.055090528898113,3.7575939946398256,-7.9513206648317505,-8.12094667718346,-2.4543933448154127,0.0636302901957714,0.17846634,-0.9803441700000001,0.00756834,-13.59666,-6.45498,3.00622,72.0
1774821902.1553679,7.867813110351562e-06,2026-03-29T22:05:02.155,2026-03-29T18:05:02.155,-31855.77,-50086.53,-85556.52,-50409.765,-15728.175,-20776.635,4553.595,-54511.38,-0.7605464481117629,4.132844531918813,4.909028053038511,3.140807599079446,-5.188649668864112,-4.918470278541786,-1.214118086087353,-2.230659414484813,0.17846634,-0.9803441700000001,0.00756834,-13.59666,-6.45498,3.00622,72.0
1774821902.162357,0.006989240646362305,2026-03-29T22:05:02.162,2026-03-29T18:05:02.162,-31860.719999999998,-50095.935,-85574.025,-50451.884999999995,-15732.135,-20774.295,4558.1849999999995,-54518.579999999994,0.6180161570351628,5.130916034040114,5.335383012830147,0.9839861364869293,-0.06939229256909213,0.4832309892208999,0.8431662738213322,-3.2378907976324762,0.17846634,-0.9803441700000001,0.00756834,-13.59666,-6.45498,3.00622,72.0
1774821902.1623902,3.314018249511719e-05,2026-03-29T22:05:02.162,2026-03-29T18:05:02.162,-31861.44,-50101.92,-85592.7,-50469.39,-15718.455,-20765.204999999998,4566.915,-54520.695,1.601641266129116,3.5093342207959957,2.868420215500511,-1.6311836586213038,4.923362504143189,5.5101979126601055,2.9457936887224663,-2.456826974979695,0.17846634,-0.9803441700000001,0.00756834,-13.59666,-6.45498,3.00622,72.0
1774821902.1651535,0.0027632713317871094,2026-03-29T22:05:02.165,2026-03-29T18:05:02.165,-31855.635,-50096.88,-85573.305,-50426.369999999995,-15714.404999999999,-20768.76,4557.014999999999,-54516.24,1.599698280179139,-0.24907775177618724,-1.4044148292005545,-3.3953244387895936,7.447923219681295,7.839746520271791,4.108415272498924,-0.3625063024964794,0.174743205,-0.985532145,0.005432115,-13.993419999999999,-8.13358,3.7234399999999996,72.0
1774821902.1651816,2.8133392333984375e-05,2026-03-29T22:05:02.165,2026-03-29T18:05:02.165,-31860.045,-50085.405,-85539.95999999999,-50398.56,-15719.715,-20775.329999999998,4539.465,-54527.354999999996,0.5885804528751111,-4.429987672892087,-5.332370646394845,-3.4275302620001167,6.4118765376786335,6.482455921004768,3.6031090109475805,1.8732486766013015,0.174743205,-0.985532145,0.005432115,-13.993419999999999,-8.13358,3.7234399999999996,72.0
1774821902.1687324,0.0035507678985595703,2026-03-29T22:05:02.168,2026-03-29T18:05:02.168,-31857.795,-50080.455,-85546.08,-50401.35,-15716.789999999999,-20772.899999999998,4545.585,-54523.17,-0.8616463664297738,-6.880476126529421,-6.795121865730991,-1.7235020683254765,2.4421175459929834,2.199377569332797,1.386369571455607,3.0288924004939273,0.174743205,-0.985532145,0.005432115,-13.993419999999999,-8.13358,3.7234399999999996,72.0
1774821902.168754,2.1696090698242188e-05,2026-03-29T22:05:02.168,2026-03-29T18:05:02.168,-31858.515,-50094.405,-85581.36,-50407.65,-15718.32,-20776.815,4554.72,-54517.545,-1.8960938385939672,-6.116749418250978,-4.838895722953887,0.8357542921325866,-2.4832864507953314,-2.919402241406014,-1.758640503502226,2.4945651081416806,0.174743205,-0.985532145,0.005432115,-13.993419999999999,-8.13358,3.7234399999999996,72.0
1774821902.1728485,0.004094362258911133,2026-03-29T22:05:02.172,2026-03-29T18:05:02.172,-31862.969999999998,-50104.665,-85597.69499999999,-50403.33,-15727.545,-20788.38,4549.635,-54517.14,-1.855477630818691,-2.175841212276077,-0.2482998721928586,2.9281926280666264,-6.029414789653305,-6.483526582316312,-4.484745125435999,0.5925362293698342,0.174743205,-0.985532145,0.005432115,-13.993419999999999,-8.13358,3.7234399999999996,72.0
1774821902.1728752,2.6702880859375e-05,2026-03-29T22:05:02.172,2026-03-29T18:05:02.172,-31868.954999999998,-50105.924999999996,-85590.72,-50384.34,-15730.92,-20794.95,4533.389999999999,-54528.84,-0.6654584668025155,3.26254050291373,4.7744352803394445,3.4694718848326134,-6.62111781696602,-6.928099127881047,-5.467989584863544,-1.6111406606041703,0.174743205,-0.985532145,0.005432115,-13.993419999999999,-8.13358,3.7234399999999996,72.0
1774821902.1765547,0.003679513931274414,2026-03-29T22:05:02.176,2026-03-29T18:05:02.176,-31861.89,-50093.505,-85565.87999999999,-50383.125,-15736.095,-20798.864999999998,4516.38,-54526.005,1.0852258315831964,7.60233302596484,7.688732023132979,2.180336367028773,-4.143392855477918,-4.201956735193182,-4.058656321561973,-2.896416720053255,0.174743205,-0.985532145,0.005432115,-13.993419999999999,-8.13358,3.7234399999999996,72.0
1774821902.1765652,1.049041748046875e-05,2026-03-29T22:05:02.176,2026-03-29T18:05:02.176,-31854.059999999998,-50076.134999999995,-85561.29,-50445.81,-15743.205,-20788.785,4523.535,-54527.265,2.434315198804493,8.585624789460983,6.914416454614525,-0.25582642895327773,0.08584858898232794,0.28439033248938983,-0.6728111099167655,-2.5579195133864676,0.174743205,-0.985532145,0.005432115,-13.993419999999999,-8.13358,3.7234399999999996,72.0
1774821902.1850965,0.008531332015991211,2026-03-29T22:05:02.185,2026-03-29T18:05:02.185,-31855.364999999998,-50081.13,-85585.275,-50478.975,-15727.32,-20770.875,4542.255,-54527.805,2.560612126052398,5.461297294737349,2.679508663487489,-2.5389737945532764,4.0165866527440395,4.389320352062299,3.2996567681365723,-0.7893824835397124,0.174743205,-0.985532145,0.005432115,-13.993419999999999,-8.13358,3.7234399999999996,72.0
1774821902.1851225,2.5987625122070312e-05,2026-03-29T22:05:02.185,2026-03-29T18:05:02.185,-31860.945,-50098.14,-85606.83,-50471.369999999995,-15720.93,-20772.899999999998,4550.804999999999,-54521.82,1.2526200846199738,-0.5358435013484296,-3.0356757812067996,-3.433960157887433,5.868252896039075,6.270318229605565,6.071268280279715,1.4242523682367976,0.174743205,-0.985532145,0.005432115,-13.993419999999999,-8.13358,3.7234399999999996,72.0
1774821902.1851454,2.288818359375e-05,2026-03-29T22:05:02.185,2026-03-29T18:05:02.185,-31855.23,-50094.54,-85583.565,-50444.325,-15724.125,-20779.92,4559.849999999999,-54509.4,-0.9265104756195498,-6.676843170046088,-7.451649284931974,-2.436082669539171,4.938928452269232,5.21469239736762,6.275696956131638,2.8481736227915757,0.174010785,-0.99047598,0.0036621,-12.269039999999999,-9.842699999999999,3.02148,72.0
1774821902.1851578,1.239776611328125e-05,2026-03-29T22:05:02.185,2026-03-29T18:05:02.185,-31851.135,-50097.555,-85579.875,-50450.715,-15735.33,-20785.5,4572.045,-54495.36,-2.8836586064907115,-10.002563152235863,-8.369511067377925,-0.06412342775367662,1.853364707428236,1.8947838855565904,3.6475453887194655,2.6782516286204388,0.174010785,-0.99047598,0.0036621,-12.269039999999999,-9.842699999999999,3.02148,72.0
1774821902.1888623,0.003704547882080078,2026-03-29T22:05:02.188,2026-03-29T18:05:02.188,-31844.879999999997,-50078.79,-85548.555,-50440.994999999995,-15727.814999999999,-20773.035,4579.5599999999995,-54505.034999999996,-3.541983572609908,-8.763244843295244,-5.279968857723487,2.390843633922717,-1.8261688044992628,-2.0344410607577887,-0.7774884963577852,0.9896497394859287,0.174010785,-0.99047598,0.0036621,-12.269039999999999,-9.842699999999999,3.02148,72.0
1774821902.188891,2.86102294921875e-05,2026-03-29T22:05:02.188,2026-03-29T18:05:02.188,-31850.235,-50070.015,-85522.185,-50412.96,-15726.375,-20777.535,4558.32,-54527.04,-2.415614658443174,-3.3263131233107144,0.3646498145762599,3.547393368331502,-4.394102199633505,-4.763324909951883,-5.070234501995423,-1.2939789529981174,0.174010785,-0.99047598,0.0036621,-12.269039999999999,-9.842699999999999,3.02148,72.0
1774821902.1955287,0.0066378116607666016,2026-03-29T22:05:02.195,2026-03-29T18:05:02.195,-31858.245,-50078.97,-85538.565,-50415.615,-15728.67,-20781.54,4554.855,-54532.439999999995,0.08834698179900786,3.9145879539321107,5.858110947215326,2.6948516026185154,-4.795345114736274,-5.165382600447632,-7.263272745979847,-2.899324467337433,0.174010785,-0.99047598,0.0036621,-12.269039999999999,-9.842699999999999,3.02148,72.0
1774821902.1955504,2.1696090698242188e-05,2026-03-29T22:05:02.195,2026-03-29T18:05:02.195,-31849.515,-50069.97,-85536.18,-50409.45,-15715.08,-20769.344999999998,4564.44,-54521.055,2.8135689438648046,9.616881476661641,8.57242430156438,0.2214257038162612,-3.047669410018905,-3.2552719837808515,-6.268010418847586,-2.903502738429426,0.174010785,-0.99047598,0.0036621,-12.269039999999999,-9.842699999999999,3.02148,72.0
1774821902.2005498,0.004999399185180664,2026-03-29T22:05:02.200,2026-03-29T18:05:02.200,-31847.805,-50069.43,-85540.095,-50409.99,-15714.269999999999,-20768.219999999998,4562.955,-54524.79,4.394304648647454,11.055839456919013,7.243614585039918,-2.543331011885639,-0.13036945229071317,-0.08499168330577024,-2.419308736547501,-1.2547935300215427,0.174010785,-0.99047598,0.0036621,-12.269039999999999,-9.842699999999999,3.02148,72.0
1774821902.2005787,2.8848648071289062e-05,2026-03-29T22:05:02.200,2026-03-29T18:05:02.200,-31855.004999999997,-50076.314999999995,-85542.165,-50400.54,-15712.695,-20769.48,4566.96,-54523.799999999996,3.935921551531143,7.434760285942286,2.568905488542692,-4.01856801945118,2.5562995763654253,2.8260318136995224,2.6265648535000006,1.1753514378727217,0.174010785,-0.99047598,0.0036621,-12.269039999999999,-9.842699999999999,3.02148,72.0
1774821902.2006028,2.4080276489257812e-05,2026-03-29T22:05:02.200,2026-03-29T18:05:02.200,-31865.129999999997,-50096.79,-85570.965,-50401.979999999996,-15721.83,-20778.93,4554.8099999999995,-54522.314999999995,1.4977369297768768,0.3041477468339966,-3.171625281793076,-3.2463470745149903,3.8654577523573104,4.221740299343924,6.616015376624371,3.0483619830849165,0.174010785,-0.99047598,0.0036621,-12.269039999999999,-9.842699999999999,3.02148,72.0
1774821902.2006137,1.0967254638671875e-05,2026-03-29T22:05:02.200,2026-03-29T18:05:02.200,-31863.96,-50126.085,-85591.62,-50394.869999999995,-15713.82,-20770.02,4564.98,-54511.515,-1.8748912105255389,-7.123327863462919,-7.260155428151582,-0.4781595702558499,3.385729897071007,3.6484762598148475,7.722315206627357,3.285605123197034,0.174010785,-0.99047598,0.0036621,-12.269039999999999,-9.842699999999999,3.02148,72.0
1774821902.2050037,0.00439000129699707,2026-03-29T22:05:02.205,2026-03-29T18:05:02.205,-31868.504999999997,-50146.02,-85600.665,-50398.965,-15712.47,-20769.57,4564.53,-54506.295,-4.606818397922966,-11.448311404169562,-7.8643627504238625,2.871597674443971,1.5328923550276172,1.5728664890139172,5.396328221025003,1.6756404130492673,0.170898,-0.994809465,0.005432115,-9.55276,-9.94952,3.6013599999999997,72.0
1774821902.205021,1.71661376953125e-05,2026-03-29T22:05:02.205,2026-03-29T18:05:02.205,-31866.164999999997,-50133.78,-85600.98,-50437.665,-15727.5,-20776.905,4556.115,-54508.14,-5.334073658237625,-10.659254494197466,-4.878204123853455,4.926240234775521,-0.7406254838892924,-0.9311817089647848,0.6411360572841087,-0.9744774830536247,0.170898,-0.994809465,0.005432115,-9.55276,-9.94952,3.6013599999999997,72.0
1774821902.208913,0.003892183303833008,2026-03-29T22:05:02.208,2026-03-29T18:05:02.208,-31860.09,-50101.424999999996,-85582.305,-50455.395,-15724.755,-20771.505,4551.48,-54514.71,-3.5779956913315245,-5.067535135759254,0.11545589977021486,4.3636597262004235,-2.4336566157987485,-2.7341106034789306,-4.427696397020609,-3.241650812012607,0.170898,-0.994809465,0.005432115,-9.55276,-9.94952,3.6013599999999997,72.0
1774821902.2089305,1.7404556274414062e-05,2026-03-29T22:05:02.208,2026-03-29T18:05:02.208,-31846.23,-50052.104999999996,-85538.52,-50428.125,-15716.519999999999,-20769.795,4552.38,-54520.965,-0.02151491567120046,2.831422260333089,4.700052858393634,1.211426423041868,-2.9320614091468027,-3.159115187295231,-7.540084102186917,-3.842781480976844,0.170898,-0.994809465,0.005432115,-9.55276,-9.94952,3.6013599999999997,72.0
1774821902.213023,0.00409245491027832,2026-03-29T22:05:02.213,2026-03-29T18:05:02.213,-31815.585,-50020.56,-85494.33,-50373.945,-15694.785,-20759.67,4570.92,-54509.49,3.7610388410893245,9.499915265702445,6.83138922387021,-3.0384861046468905,-2.205566802923467,-2.219319141179,-7.30609764300439,-2.345734204640688,0.170898,-0.994809465,0.005432115,-9.55276,-9.94952,3.6013599999999997,72.0
1774821902.213045,2.193450927734375e-05,2026-03-29T22:05:02.213,2026-03-29T18:05:02.213,-31818.105,-50033.43,-85498.73999999999,-50380.244999999995,-15699.779999999999,-20760.614999999998,4600.755,-54512.369999999995,6.01040900827258,11.966355469031887,5.777157407640942,-6.11738434445525,-0.7200800114302072,-0.5112701884906284,-3.847433693599272,0.5528468618726261,0.170898,-0.994809465,0.005432115,-9.55276,-9.94952,3.6013599999999997,72.0
1774821902.216828,0.0037832260131835938,2026-03-29T22:05:02.216,2026-03-29T18:05:02.216,-31862.565,-50084.235,-85551.345,-50422.725,-15723.045,-20773.395,4569.3,-54531.765,5.603251352890999,9.157417213995338,2.3444336054353623,-6.161913344127009,0.8417244747146405,1.1372104489297163,1.2662612808272262,3.3508322779583293,0.170898,-0.994809465,0.005432115,-9.55276,-9.94952,3.6013599999999997,72.0
1774821902.2168405,1.239776611328125e-05,2026-03-29T22:05:02.216,2026-03-29T18:05:02.216,-31857.254999999997,-50086.215,-85556.52,-50416.92,-15722.73,-20774.835,4557.78,-54514.979999999996,2.602875392065482,2.3531859230685166,-1.66073739436897,-2.785674481510266,1.8903798902514104,2.065635756821341,5.742868196975379,4.5151551581402485,0.170898,-0.994809465,0.005432115,-9.55276,-9.94952,3.6013599999999997,72.0
1774821902.2207036,0.003863096237182617,2026-03-29T22:05:02.220,2026-03-29T18:05:02.220,-31859.414999999997,-50087.025,-85573.08,-50442.345,-15738.164999999999,-20782.079999999998,4567.545,-54516.015,-1.7262590584401365,-5.420846134267602,-4.404232391411739,2.556173785917778,2.131339439482453,2.0351784377764277,7.61384859650175,3.3093913897410756,0.170898,-0.994809465,0.005432115,-9.55276,-9.94952,3.6013599999999997,72.0
1774821902.2207265,2.288818359375e-05,2026-03-29T22:05:02.220,2026-03-29T18:05:02.220,-31868.91,-50097.555,-85589.955,-50459.265,-15744.195,-20786.175,4561.965,-54532.845,-5.461056224556388,-10.764489355204137,-4.896413069981511,7.172858637386608,1.6030880659032039,1.2471167616715038,6.114864907162831,0.23220873914067947,0.170898,-0.994809465,0.005432115,-9.55276,-9.94952,3.6013599999999997,72.0
1774821902.2264366,0.005710124969482422,2026-03-29T22:05:02.226,2026-03-29T18:05:02.226,-31873.995,-50107.229999999996,-85593.33,-50456.655,-15749.955,-20797.92,4539.735,-54539.369999999995,-6.881424607335605,-11.402943743436412,-3.336267815655887,8.474394071471488,0.5850269348463567,0.1618989689084001,1.9998866654084546,-3.184900333314901,0.17315629500000002,-0.9987157050000001,0.00769041,-8.82028,-9.12548,4.15072,72.0
1774821902.2264488,1.2159347534179688e-05,2026-03-29T22:05:02.226,2026-03-29T18:05:02.226,-31866.524999999998,-50101.515,-85587.345,-50451.75,-15747.57,-20795.715,4545.36,-54535.545,-5.261505877411096,-7.148582787372938,-0.8143029495348505,5.382409377247786,-0.5449392300560923,-0.7557722410126788,-2.8413470594299106,-5.140723669047963,0.17315629500000002,-0.9987157050000001,0.00769041,-8.82028,-9.12548,4.15072,72.0
1774821902.2288508,0.002402067184448242,2026-03-29T22:05:02.228,2026-03-29T18:05:02.228,-31859.64,-50093.549999999996,-85577.895,-50442.93,-15740.099999999999,-20789.73,4549.995,-54532.665,-1.2270553470033005,0.07777009304141504,1.3881518088071103,-0.9378471692917061,-1.4325668762317525,-1.229562897325947,-6.26717748450863,-4.5072495268267545,0.17315629500000002,-0.9987157050000001,0.00769041,-8.82028,-9.12548,4.15072,72.0
1774821902.2288773,2.6464462280273438e-05,2026-03-29T22:05:02.228,2026-03-29T18:05:02.228,-31860.719999999998,-50095.125,-85576.77,-50438.88,-15739.92,-20793.239999999998,4535.01,-54535.365,3.4917472535277065,7.137490294076024,2.474769095566542,-7.47834660496886,-1.8221390919778437,-1.2257602118492221,-6.848577378093961,-1.4609723676419688,0.17315629500000002,-0.9987157050000001,0.00769041,-8.82028,-9.12548,4.15072,72.0
1774821902.2342856,0.005408287048339844,2026-03-29T22:05:02.234,2026-03-29T18:05:02.234,-31858.605,-50104.53,-85590.315,-50448.195,-15748.605,-20801.52,4532.715,-54525.825,6.8107549443293935,11.052655844128674,2.4196294839327233,-10.809027610043545,-1.5966260247205357,-0.8809977490530846,-4.471866618249677,2.5438472808011294,0.17315629500000002,-0.9987157050000001,0.00769041,-8.82028,-9.12548,4.15072,72.0
1774821902.2343123,2.6702880859375e-05,2026-03-29T22:05:02.234,2026-03-29T18:05:02.234,-31851.989999999998,-50098.994999999995,-85587.39,-50444.189999999995,-15744.105,-20796.255,4547.745,-54517.905,7.2160262513674285,10.259890170258403,1.7603115698810812,-8.852546517768058,-0.8043965524606296,-0.3790122363687505,-0.321960012244254,5.473840485055008,0.17315629500000002,-0.9987157050000001,0.00769041,-8.82028,-9.12548,4.15072,72.0
1774821902.2367132,0.0024008750915527344,2026-03-29T22:05:02.236,2026-03-29T18:05:02.236,-31850.684999999998,-50086.71,-85567.36499999999,-50428.665,-15731.414999999999,-20785.68,4563.179999999999,-54513.18,4.450560673115543,5.213971377209909,1.0970934217098764,-2.103669337434258,0.3279378612290363,0.13966130967390245,3.7146793957271798,5.749284841898897,0.17315629500000002,-0.9987157050000001,0.00769041,-8.82028,-9.12548,4.15072,72.0
1774821902.2367375,2.4318695068359375e-05,2026-03-29T22:05:02.236,2026-03-29T18:05:02.236,-31864.815,-50081.31,-85550.08499999999,-50409.27,-15714.494999999999,-20768.895,4567.095,-54540.99,-0.3458080005321473,-1.8789526640872132,0.6559857220355287,6.396921865052376,1.4236554198288573,0.5937281196443648,5.923953908369962,3.0858329767568575,0.17315629500000002,-0.9987157050000001,0.00769041,-8.82028,-9.12548,4.15072,72.0
1774821902.250658,0.01392054557800293,2026-03-29T22:05:02.250,2026-03-29T18:05:02.250,-31857.254999999997,-50076.314999999995,-85541.625,-50399.64,-15711.705,-20767.005,4565.835,-54537.255,-5.1128257775008175,-8.041264020039225,0.20321810519693337,12.423884459415056,2.0539269792168393,0.9216093237213867,5.502476207889765,-1.2997897144962558,0.17315629500000002,-0.9987157050000001,0.00769041,-8.82028,-9.12548,4.15072,72.0
1774821902.2506769,1.8835067749023438e-05,2026-03-29T22:05:02.250,2026-03-29T18:05:02.250,-31852.71,-50081.715,-85547.565,-50400.54,-15716.744999999999,-20773.53,4554.45,-54528.345,-7.7600354005513354,-10.77453933363898,-0.6501231138638615,12.659264294848823,1.900158065830684,1.0425144071739527,2.8370102292273485,-5.250972245066623,0.17315629500000002,-0.9987157050000001,0.00769041,-8.82028,-9.12548,4.15072,72.0
1774821902.2507038,2.6941299438476562e-05,2026-03-29T22:05:02.250,2026-03-29T18:05:02.250,-31853.789999999997,-50092.695,-85564.89,-50413.994999999995,-15727.32,-20782.53,4535.595,-54524.61,-7.084110362833023,-9.056479038687005,-1.9845640673556817,6.482500408910754,0.9223767071977975,0.8669837855365412,-0.7649701167456863,-6.737997504141258,0.18078567,-1.00780992,0.00500487,-4.6085199999999995,-7.84364,5.32574,72.0
1774821902.250712,8.106231689453125e-06,2026-03-29T22:05:02.250,2026-03-29T18:05:02.250,-31869.449999999997,-50106.465,-85585.275,-50432.58,-15737.76,-20790.54,4527.585,-54532.845,-3.3111326271823334,-3.6963971152892388,-3.3014879254059886,-3.4942059817226703,-0.5583419262096254,0.36164128465322076,-3.7255078182786403,-4.8997536278007106,0.18078567,-1.00780992,0.00500487,-4.6085199999999995,-7.84364,5.32574,72.0
1774821902.2507217,9.775161743164062e-06,2026-03-29T22:05:02.250,2026-03-29T18:05:02.250,-31869.989999999998,-50106.509999999995,-85597.875,-50444.64,-15732.99,-20784.329999999998,4543.2,-54538.244999999995,1.9780634216688677,3.0572085742179813,-3.68684008196515,-12.51529663457532,-1.937751525129445,-0.3765335462467213,-4.89992729698883,-0.5257045885263576,0.18078567,-1.00780992,0.00500487,-4.6085199999999995,-7.84364,5.32574,72.0
1774821902.2507284,6.67572021484375e-06,2026-03-29T22:05:02.250,2026-03-29T18:05:02.250,-31872.824999999997,-50110.515,-85615.02,-50464.71,-15734.88,-20785.995,4534.245,-54547.424999999996,6.514566993785396,8.462100046261394,-2.3703410156526554,-15.951179819715714,-2.568611053619,-1.1010562974154368,-4.014110993762317,4.285957490044243,0.18078567,-1.00780992,0.00500487,-4.6085199999999995,-7.84364,5.32574,72.0
1774821902.2551825,0.004454135894775391,2026-03-29T22:05:02.255,2026-03-29T18:05:02.255,-31859.1,-50098.275,-85595.67,-50445.54,-15732.18,-20785.14,4530.285,-54531.27,8.31725938557072,10.383071608440744,0.6412439846218118,-11.663422999236692,-2.0714312406481423,-1.4909812277262755,-1.6710090212410391,7.144776511302777,0.18078567,-1.00780992,0.00500487,-4.6085199999999995,-7.84364,5.32574,72.0
1774821902.2551951,1.2636184692382812e-05,2026-03-29T22:05:02.255,2026-03-29T18:05:02.255,-31846.184999999998,-50076.54,-85544.73,-50390.549999999996,-15713.01,-20772.765,4539.6449999999995,-54520.155,6.557711024331401,8.114410917534647,4.282289607808278,-1.260899802726246,-0.563126909371443,-1.301190092688445,1.0218505785971854,6.5622398251973815,0.18078567,-1.00780992,0.00500487,-4.6085199999999995,-7.84364,5.32574,72.0
1774821902.2592876,0.00409245491027832,2026-03-29T22:05:02.259,2026-03-29T18:05:02.259,-31853.655,-50074.965,-85542.39,-50389.47,-15715.89,-20774.52,4563.315,-54536.04,1.9373079320376159,2.6200406808019254,6.765823268922956,10.466049045707162,1.3333683213367167,-0.5134920973253315,2.9853784305124704,2.7240377702671474,0.18078567,-1.00780992,0.00500487,-4.6085199999999995,-7.84364,5.32574,72.0
1774821902.2593012,1.3589859008789062e-05,2026-03-29T22:05:02.259,2026-03-29T18:05:02.259,-31875.704999999998,-50094.81,-85560.97499999999,-50395.905,-15727.814999999999,-20786.085,4583.16,-54554.265,-3.5933999263793184,-3.878571859680302,6.459078544537153,17.758540793845356,2.7384842042226545,0.6026760230407775,3.6014825958199896,-2.5595600816763446,0.18078567,-1.00780992,0.00500487,-4.6085199999999995,-7.84364,5.32574,72.0
1774821902.2635956,0.004294395446777344,2026-03-29T22:05:02.263,2026-03-29T18:05:02.263,-31867.245,-50084.775,-85536.62999999999,-50380.515,-15723.81,-20782.844999999998,4571.775,-54544.725,-7.660534074766557,-8.790046418526932,2.8677010486452628,16.72416718585537,2.929230524394632,1.5739344315407535,2.8715311859949173,-6.718412431082727,0.18078567,-1.00780992,0.00500487,-4.6085199999999995,-7.84364,5.32574,72.0
1774821902.2636101,1.4543533325195312e-05,2026-03-29T22:05:02.263,2026-03-29T18:05:02.263,-31868.55,-50082.165,-85519.935,-50373.314999999995,-15719.445,-20775.195,4563.8099999999995,-54540.674999999996,-8.487891552435961,-10.168567609135872,-2.8376531499949995,7.394763414106081,1.7194118844515418,1.9299261891224002,1.2843865395596257,-7.684502770402764,0.18078567,-1.00780992,0.00500487,-4.6085199999999995,-7.84364,5.32574,72.0
1774821902.267001,0.003390789031982422,2026-03-29T22:05:02.267,2026-03-29T18:05:02.267,-31862.43,-50083.74,-85536.54,-50436.72,-15743.88,-20786.67,4555.215,-54539.369999999995,-5.67379983009195,-7.470187906446521,-8.138476336652664,-6.07413022888548,-0.3965469043329416,1.439606380360447,-0.48336360965760594,-4.926356017829248,0.18713331,-1.012387545,0.00195312,-0.42728,-7.52318,5.753019999999999,72.0
1774821902.2670116,1.0728836059570312e-05,2026-03-29T22:05:02.267,2026-03-29T18:05:02.267,-31850.82,-50078.79,-85555.44,-50472.09,-15737.355,-20784.645,4548.6449999999995,-54530.505,-0.38390325330981134,-1.764417480511024,-10.287106286798892,-17.25920065506181,-2.4359400763486274,0.25452754214674583,-1.8595978263729298,0.26438328696015856,0.18713331,-1.012387545,0.00195312,-0.42728,-7.52318,5.753019999999999,72.0
1774821902.27634,0.009328365325927734,2026-03-29T22:05:02.276,2026-03-29T18:05:02.276,-31844.789999999997,-50079.104999999996,-85573.70999999999,-50436.27,-15708.42,-20768.399999999998,4540.1849999999995,-54525.015,5.132035571473761,4.6800586229552685,-7.726337106074775,-20.550367199261984,-3.3874229798409066,-1.1267996635646644,-2.532947400939425,5.386880247278194,0.18713331,-1.012387545,0.00195312,-0.42728,-7.52318,5.753019999999999,72.0
1774821902.2763684,2.8371810913085938e-05,2026-03-29T22:05:02.276,2026-03-29T18:05:02.276,-31850.37,-50084.549999999996,-85583.06999999999,-50459.04,-15724.529999999999,-20774.295,4541.985,-54533.159999999996,8.499527929050371,9.2814929878219,-1.0769263666981046,-13.970804030656373,-2.7212474973038603,-2.0727603080787484,-2.449480010127116,7.94988518901985,0.18713331,-1.012387545,0.00195312,-0.42728,-7.52318,5.753019999999999,72.0
1774821902.2763932,2.47955322265625e-05,2026-03-29T22:05:02.276,2026-03-29T18:05:02.276,-31852.17,-50082.03,-85561.2,-50436.63,-15722.369999999999,-20773.395,4557.285,-54534.465,8.245436270888426,10.166759097711143,6.893439374209414,-0.31476013396079533,-0.6885922075969987,-2.116471628662607,-1.7195439436548936,6.695380713408039,0.18713331,-1.012387545,0.00195312,-0.42728,-7.52318,5.753019999999999,72.0
1774821902.2764044,1.1205673217773438e-05,2026-03-29T22:05:02.276,2026-03-29T18:05:02.276,-31856.67,-50090.805,-85558.185,-50418.9,-15733.035,-20787.885,4554.045,-54533.835,4.446054999119492,6.931636913918783,12.424076671383263,14.034890554955009,1.7604263348123566,-1.1927848904538576,-0.5334645902151591,2.2207508734131385,0.18713331,-1.012387545,0.00195312,-0.42728,-7.52318,5.753019999999999,72.0
1774821902.276418,1.3589859008789062e-05,2026-03-29T22:05:02.276,2026-03-29T18:05:02.276,-31869.09,-50103.99,-85569.56999999999,-50407.74,-15726.779999999999,-20785.005,4537.62,-54548.82,-1.2896124273244143,0.8319919621755175,12.555985357616565,22.11238242934496,3.422116048950922,0.30850665601095917,0.8587800635762813,-3.310451509215247,0.18713331,-1.012387545,0.00195312,-0.42728,-7.52318,5.753019999999999,72.0
1774821902.2764292,1.1205673217773438e-05,2026-03-29T22:05:02.276,2026-03-29T18:05:02.276,-31875.614999999998,-50121.54,-85592.16,-50389.155,-15706.305,-20768.67,4539.375,-54561.375,-6.502586308794888,-5.688323664298599,6.700666154861078,19.772519435966654,3.43846449415268,1.7095429061424365,2.1260049922721223,-7.227214646087104,0.18713331,-1.012387545,0.00195312,-0.42728,-7.52318,5.753019999999999,72.0
1774821902.2865736,0.010144472122192383,2026-03-29T22:05:02.286,2026-03-29T18:05:02.286,-31859.64,-50116.634999999995,-85575.33,-50361.615,-15679.935,-20745.765,4559.535,-54552.42,-8.943118168383638,-9.965089474102806,-2.8444935372349507,7.818419857292312,1.7481811312564133,2.3583296616149076,2.866687427271491,-7.655859124345572,0.18713331,-1.012387545,0.00195312,-0.42728,-7.52318,5.753019999999999,72.0
1774821902.286588,1.430511474609375e-05,2026-03-29T22:05:02.286,2026-03-29T18:05:02.286,-31859.82,-50121.0,-85590.9,-50385.869999999995,-15685.515,-20753.1,4559.175,-54552.015,-7.548386320107735,-10.20052814311168,-11.78726909280645,-8.239974296324748,-0.8510930498043286,1.9403143829399814,2.7136373485040433,-4.4270419098197165,0.18713331,-1.012387545,0.00195312,-0.42728,-7.52318,5.753019999999999,72.0
1774821902.286603,1.5020370483398438e-05,2026-03-29T22:05:02.286,2026-03-29T18:05:02.286,-31850.594999999998,-50102.189999999995,-85594.455,-50429.7,-15703.425,-20763.045,4578.885,-54529.604999999996,-2.91077342814641,-6.226790127095315,-15.798056631561044,-20.747138253382644,-3.078691655809415,0.6349001912561828,1.52078122245607,0.8588465323547305,0.190001955,-1.0073826750000001,0.00073242,-1.84646,-9.079699999999999,5.55464,72.0
1774821902.2866096,6.67572021484375e-06,2026-03-29T22:05:02.286,2026-03-29T18:05:02.286,-31852.98,-50079.689999999995,-85587.165,-50477.67,-15745.949999999999,-20787.885,4580.73,-54518.354999999996,2.972467784252884,0.3827275687280461,-12.627426898987059,-23.582762960067004,-3.8079789583867396,-0.9625290733833277,-0.46449885079639236,5.632378295508634,0.190001955,-1.0073826750000001,0.00073242,-1.84646,-9.079699999999999,5.55464,72.0
1774821902.3016496,0.015039920806884766,2026-03-29T22:05:02.301,2026-03-29T18:05:02.301,-31853.295,-50077.89,-85587.12,-50494.68,-15778.215,-20809.62,4566.78,-54521.82,7.563670703742161,6.925056653635515,-3.3375279652388827,-15.177867753124907,-2.6445591396654917,-2.1183400871196363,-2.5745670741769295,7.618264350267087,0.190001955,-1.0073826750000001,0.00073242,-1.84646,-9.079699999999999,5.55464,72.0
1774821902.3016756,2.5987625122070312e-05,2026-03-29T22:05:02.301,2026-03-29T18:05:02.301,-31834.754999999997,-50065.244999999995,-85544.81999999999,-50452.92,-15769.26,-20809.8,4567.545,-54516.869999999995,8.88776132358949,10.671260443621815,8.016740546050952,0.6304435080502983,-0.14488604091138774,-2.305299060212811,-3.9197468722232265,5.933973109995087,0.190001955,-1.0073826750000001,0.00073242,-1.84646,-9.079699999999999,5.55464,72.0
1774821902.3017163,4.076957702636719e-05,2026-03-29T22:05:02.301,2026-03-29T18:05:02.301,-31832.594999999998,-50050.439999999995,-85514.265,-50420.924999999996,-15734.115,-20787.165,4581.99,-54527.354999999996,6.390686264255233,10.012258436794482,16.183878061600634,16.366997499053213,2.4479412735073383,-1.4484090332415456,-3.7700681537442726,1.4871533326408577,0.190001955,-1.0073826750000001,0.00073242,-1.84646,-9.079699999999999,5.55464,72.0
1774821902.3017273,1.0967254638671875e-05,2026-03-29T22:05:02.301,2026-03-29T18:05:02.301,-31842.315,-50063.04,-85534.29,-50425.29,-15726.734999999999,-20779.29,4576.275,-54536.985,1.1758197913890727,5.1613915838103805,17.180366463464974,24.48767903071396,3.8267190866024205,0.045151464458611394,-1.9538376164373306,-3.5095568013612266,0.190001955,-1.0073826750000001,0.00073242,-1.84646,-9.079699999999999,5.55464,72.0
1774821902.301741,1.3589859008789062e-05,2026-03-29T22:05:02.301,2026-03-29T18:05:02.301,-31863.914999999997,-50076.765,-85538.205,-50417.145,-15723.675,-20773.89,4552.335,-54554.985,-4.485278489841573,-1.8992785542507276,10.249737751010775,21.02976397478688,3.2869867129285524,1.4835577529156507,0.9448884366302756,-6.64857209288943,0.190001955,-1.0073826750000001,0.00073242,-1.84646,-9.079699999999999,5.55464,72.0
1774821902.3017516,1.0728836059570312e-05,2026-03-29T22:05:02.301,2026-03-29T18:05:02.301,-31859.82,-50086.755,-85556.655,-50430.42,-15735.375,-20782.44,4542.3,-54547.829999999994,-8.150538364540802,-8.226648499437811,-1.65539989304996,7.5613006772086075,1.0941592661348396,2.2172903094487304,3.7400739911369763,-6.501600767475439,0.190001955,-1.0073826750000001,0.00073242,-1.84646,-9.079699999999999,5.55464,72.0
1774821902.3017647,1.3113021850585938e-05,2026-03-29T22:05:02.301,2026-03-29T18:05:02.301,-31861.844999999998,-50091.165,-85563.495,-50430.96,-15734.744999999999,-20781.18,4553.01,-54547.155,-8.271731335288875,-11.150202405777796,-13.151710000727942,-9.537329403685018,-1.6437450531698283,1.9376682005690284,5.1319264543527,-3.2792783465524877,0.190001955,-1.0073826750000001,0.00073242,-1.84646,-9.079699999999999,5.55464,72.0
1774821902.3017752,1.049041748046875e-05,2026-03-29T22:05:02.301,2026-03-29T18:05:02.301,-31859.37,-50079.15,-85542.075,-50407.784999999996,-15713.55,-20759.13,4570.514999999999,-54551.475,-4.85636019079924,-9.410543911220172,-18.89975225355555,-22.127767036772823,-3.5383994909466763,0.8071805679419638,4.327574444832306,1.3328406263306325,0.190001955,-1.0073826750000001,0.00073242,-1.84646,-9.079699999999999,5.55464,72.0
1774821902.3063397,0.004564523696899414,2026-03-29T22:05:02.306,2026-03-29T18:05:02.306,-31858.02,-50080.275,-85545.045,-50414.354999999996,-15717.779999999999,-20767.5,4561.29,-54551.34,0.560098330811412,-3.711150291838626,-16.117726839167588,-24.227527464457044,-3.631861794278408,-0.6334280071113543,1.4908454587930318,5.054445372512121,0.19103955,-1.00085193,-0.00048828,-5.73776,-12.17748,7.2485,72.0
1774821902.3063557,1.5974044799804688e-05,2026-03-29T22:05:02.306,2026-03-29T18:05:02.306,-31846.364999999998,-50070.42,-85537.305,-50408.505,-15711.93,-20770.739999999998,4539.96,-54547.74,5.60996116686458,3.5631710160038184,-5.934643218628918,-14.882460015325629,-1.8885740927534234,-1.7284918730756962,-2.2324102605472764,6.147759190761175,0.19103955,-1.00085193,-0.00048828,-5.73776,-12.17748,7.2485,72.0
1774821902.3146389,0.008283138275146484,2026-03-29T22:05:02.314,2026-03-29T18:05:02.314,-31829.94,-50053.634999999995,-85525.875,-50389.74,-15697.89,-20764.44,4533.4349999999995,-54541.305,8.139522629357542,9.349886490207135,7.079034866165435,1.3957178485856798,0.7876935135761063,-2.0104932026740867,-5.175228107171386,4.240580573898478,0.19103955,-1.00085193,-0.00048828,-5.73776,-12.17748,7.2485,72.0
1774821902.3146567,1.7881393432617188e-05,2026-03-29T22:05:02.314,2026-03-29T18:05:02.314,-31822.559999999998,-50051.07,-85522.995,-50387.759999999995,-15700.14,-20767.05,4536.945,-54530.729999999996,7.138052927500001,11.208668228227987,17.001733249321692,16.83011067011769,3.022310235724425,-1.400400408301848,-5.912870559053235,0.4401728247451146,0.19103955,-1.00085193,-0.00048828,-5.73776,-12.17748,7.2485,72.0
1774821902.3146956,3.886222839355469e-05,2026-03-29T22:05:02.314,2026-03-29T18:05:02.314,-31841.82,-50080.14,-85556.7,-50417.145,-15725.07,-20786.85,4559.49,-54537.435,3.143562610809323,8.36003367844933,19.297149852931557,24.134548945371296,3.6807955055444372,-0.21917482857847406,-3.9713862091811083,-3.2887168663598847,0.19103955,-1.00085193,-0.00048828,-5.73776,-12.17748,7.2485,72.0
1774821902.3147027,7.152557373046875e-06,2026-03-29T22:05:02.314,2026-03-29T18:05:02.314,-31856.309999999998,-50101.695,-85579.83,-50442.525,-15742.439999999999,-20789.684999999998,4545.8099999999995,-54549.314999999995,-2.0389495027810054,2.0156282596877553,12.912074082028331,19.99242991314263,2.452278521373286,0.9822404952010101,-0.12130417852782273,-5.139693236148318,0.19103955,-1.00085193,-0.00048828,-5.73776,-12.17748,7.2485,72.0
1774821902.3168163,0.0021135807037353516,2026-03-29T22:05:02.316,2026-03-29T18:05:02.316,-31873.635,-50105.88,-85566.015,-50433.659999999996,-15735.555,-20777.355,4546.755,-54564.704999999994,-6.161809256846519,-5.141290472500048,0.7539915598723914,6.5790724604805595,0.0018370134063491258,1.6836779857602397,3.9204454098154566,-4.349035741520032,0.19103955,-1.00085193,-0.00048828,-5.73776,-12.17748,7.2485,72.0
1774821902.3168297,1.33514404296875e-05,2026-03-29T22:05:02.316,2026-03-29T18:05:02.316,-31878.045,-50105.34,-85564.215,-50428.08,-15735.555,-20779.515,4580.01,-54560.655,-7.5209633933534015,-10.099789747428536,-11.665400938438005,-9.579655593594461,-2.3857876216387073,1.6218680499591103,6.269887583612978,-1.511620582644342,0.19103955,-1.00085193,-0.00048828,-5.73776,-12.17748,7.2485,72.0
1774821902.3227067,0.005877017974853516,2026-03-29T22:05:02.322,2026-03-29T18:05:02.322,-31871.16,-50116.994999999995,-85596.12,-50441.04,-15750.494999999999,-20797.875,4565.474999999999,-54544.5,-5.6657466791732665,-10.79682024073921,-18.77249693915307,-20.81465159792116,-3.481770299245836,0.8832003347392364,5.776666180594297,1.8024173034091562,0.19103955,-1.00085193,-0.00048828,-5.73776,-12.17748,7.2485,72.0
1774821902.3227282,2.1457672119140625e-05,2026-03-29T22:05:02.322,2026-03-29T18:05:02.322,-31876.965,-50130.63,-85618.44,-50445.09,-15742.08,-20791.71,4549.095,-54557.28,-1.5335158446100057,-6.979349692201881,-17.466425321568977,-21.996430526722346,-2.751943582246483,-0.1656729529627826,2.6056199047329422,3.9009203584437984,0.19103955,-1.00085193,-0.00048828,-5.73776,-12.17748,7.2485,72.0
1774821902.3251255,0.002397298812866211,2026-03-29T22:05:02.325,2026-03-29T18:05:02.325,-31875.344999999998,-50120.865,-85607.955,-50437.979999999996,-15722.414999999999,-20773.395,4553.46,-54567.405,3.0222649137006994,-0.2911608086570342,-8.47744550905682,-12.905251377570188,-0.6239305971830743,-1.0619889180164115,-1.8020198016370623,3.8348195603589383,0.194762685,-0.999936405,6.1035e-05,-6.21082,-13.734,7.73682,72.0
1774821902.3251357,1.0251998901367188e-05,2026-03-29T22:05:02.325,2026-03-29T18:05:02.325,-31858.469999999998,-50102.1,-85587.84,-50425.875,-15715.439999999999,-20765.204999999998,4552.155,-54558.945,6.07317943715131,6.441849910498362,4.048277595531616,1.8203318483918172,1.7540766969423156,-1.4521956959575466,-5.39117070205088,1.83225304224414,0.194762685,-0.999936405,6.1035e-05,-6.21082,-13.734,7.73682,72.0
1774821902.328896,0.0037603378295898438,2026-03-29T22:05:02.328,2026-03-29T18:05:02.328,-31844.295,-50073.84,-85532.265,-50378.85,-15700.23,-20758.725,4538.115,-54558.18,6.439639656193837,10.413079944109272,14.500044082190708,15.060557215843998,3.1302211536738684,-1.2267585625037145,-6.471205027077886,-0.8989896059700492,0.194762685,-0.999936405,6.1035e-05,-6.21082,-13.734,7.73682,72.0
1774821902.3289173,2.1219253540039062e-05,2026-03-29T22:05:02.328,2026-03-29T18:05:02.328,-31855.364999999998,-50068.395,-85517.685,-50384.744999999995,-15715.305,-20771.82,4534.0199999999995,-54574.38,4.141508271262686,10.008586272824354,18.35359643580021,20.69506124288726,2.8112067500919675,-0.5358700660753747,-4.535416816110081,-2.8655092622599017,0.194762685,-0.999936405,6.1035e-05,-6.21082,-13.734,7.73682,72.0
1774821902.3330705,0.004153251647949219,2026-03-29T22:05:02.333,2026-03-29T18:05:02.333,-31857.524999999998,-50076.405,-85538.52,-50427.765,-15740.369999999999,-20785.364999999998,4568.8949999999995,-54569.07,0.30632038163182884,5.460417639195473,14.143904480701707,16.46857008698618,1.018317084442467,0.3037027828788143,-0.5145481102489012,-3.0915651124614456,0.194762685,-0.999936405,6.1035e-05,-6.21082,-13.734,7.73682,72.0
1774821902.3330927,2.2172927856445312e-05,2026-03-29T22:05:02.333,2026-03-29T18:05:02.333,-31859.055,-50083.064999999995,-85568.355,-50471.64,-15755.58,-20798.774999999998,4581.405,-54554.445,-3.385570688205663,-1.2824401347662069,3.992972287280546,4.882800052012578,-1.2483794607016918,0.9552302237674103,3.668874691517214,-1.6042541586761712,0.194762685,-0.999936405,6.1035e-05,-6.21082,-13.734,7.73682,72.0
1774821902.3371272,0.004034519195556641,2026-03-29T22:05:02.337,2026-03-29T18:05:02.337,-31863.239999999998,-50094.045,-85593.78,-50476.59,-15738.885,-20786.355,4577.264999999999,-54549.494999999995,-5.444598814127233,-7.394404586030276,-7.479291972787615,-8.232433190357172,-2.759438221189953,1.193586013851549,6.03246502363253,0.6411397378574216,0.194762685,-0.999936405,6.1035e-05,-6.21082,-13.734,7.73682,72.0
1774821902.337138,1.0728836059570312e-05,2026-03-29T22:05:02.337,2026-03-29T18:05:02.337,-31863.285,-50092.695,-85581.0,-50471.009999999995,-15737.265,-20781.63,4566.735,-54554.985,-5.171485438093656,-10.359645908104469,-15.294216358557124,-16.672086435886015,-2.7204457756263207,0.9724429296965609,5.4947334285411555,2.331103477159923,0.194762685,-0.999936405,6.1035e-05,-6.21082,-13.734,7.73682,72.0
1774821902.3410237,0.0038857460021972656,2026-03-29T22:05:02.341,2026-03-29T18:05:02.341,-31856.309999999998,-50083.604999999996,-85545.27,-50433.93,-15734.115,-20782.575,4558.7699999999995,-54549.36,-2.872219109995521,-9.005469045485457,-16.295996690863788,-16.82906290893565,-1.1935193369458326,0.4141338076585921,2.389834623242382,2.5329950459707655,0.194762685,-0.999936405,6.1035e-05,-6.21082,-13.734,7.73682,72.0
1774821902.3410485,2.47955322265625e-05,2026-03-29T22:05:02.341,2026-03-29T18:05:02.341,-31861.98,-50092.83,-85555.845,-50417.64,-15725.385,-20782.305,4555.98,-54557.549999999996,0.3635020731636415,-3.9602468612375694,-10.41012528377427,-9.24623112222153,0.9489779388941448,-0.257450573856146,-1.7173584402584328,1.197377793591765,0.194762685,-0.999936405,6.1035e-05,-6.21082,-13.734,7.73682,72.0
1774821902.348714,0.0076656341552734375,2026-03-29T22:05:02.348,2026-03-29T18:05:02.348,-31860.629999999997,-50093.549999999996,-85561.605,-50422.68,-15724.215,-20781.09,4547.429999999999,-54563.579999999994,3.1811169900842207,2.63883528641341,-0.48667784944446163,1.9255334376776536,2.5099984942687525,-0.8044862427428635,-4.8197550264849305,-0.842648478922775,0.19970652,-1.002377805,-0.001403805,-2.5179,-12.269039999999999,8.36248,72.0
1774821902.3487372,2.3126602172851562e-05,2026-03-29T22:05:02.348,2026-03-29T18:05:02.348,-31864.68,-50099.13,-85563.765,-50422.095,-15725.07,-20781.135,4547.429999999999,-54575.055,4.528681279939905,8.051320555970834,9.103521650243326,11.173320330579541,2.6268966368185653,-1.0504226899222882,-5.462280139482751,-2.3621075884825413,0.19970652,-1.002377805,-0.001403805,-2.5179,-12.269039999999999,8.36248,72.0
1774821902.3487594,2.2172927856445312e-05,2026-03-29T22:05:02.348,2026-03-29T18:05:02.348,-31865.445,-50098.77,-85553.235,-50388.479999999996,-15717.465,-20779.92,4552.92,-54572.49,4.035087052864203,10.068691509437558,14.418081019853448,14.367355249828366,1.2449220428400896,-0.9248231490918043,-3.443504659761041,-2.4454386339469516,0.19970652,-1.002377805,-0.001403805,-2.5179,-12.269039999999999,8.36248,72.0
1774821902.34877,1.049041748046875e-05,2026-03-29T22:05:02.348,2026-03-29T18:05:02.348,-31868.55,-50093.369999999995,-85542.61499999999,-50348.475,-15704.775,-20766.96,4567.815,-54563.13,2.07170514196108,7.91133743565089,13.557304100510986,10.62787822697857,-0.853116054321438,-0.4749052373490302,0.12183774932678756,-1.0083905377101912,0.19970652,-1.002377805,-0.001403805,-2.5179,-12.269039999999999,8.36248,72.0
1774821902.3557408,0.006970882415771484,2026-03-29T22:05:02.355,2026-03-29T18:05:02.355,-31859.19,-50085.765,-85550.67,-50372.729999999996,-15722.144999999999,-20776.454999999998,4556.429999999999,-54555.659999999996,-0.4817807321283332,2.5262701917760912,7.287354537031311,2.4593058208808545,-2.478304559342316,0.15144890844129402,3.3996058402081295,1.1472543952666276,0.19970652,-1.002377805,-0.001403805,-2.5179,-12.269039999999999,8.36248,72.0
1774821902.355753,1.2159347534179688e-05,2026-03-29T22:05:02.355,2026-03-29T18:05:02.355,-31853.565,-50085.81,-85583.025,-50431.005,-15735.06,-20782.17,4551.389999999999,-54560.43,-2.6308236721404223,-3.8255491706744826,-1.496328985463433,-5.783750942693185,-2.694292545550779,0.7457530020827026,4.778634202425639,2.7762969294660915,0.19970652,-1.002377805,-0.001403805,-2.5179,-12.269039999999999,8.36248,72.0
1774821902.3626664,0.006913423538208008,2026-03-29T22:05:02.362,2026-03-29T18:05:02.362,-31844.07,-50077.53,-85594.14,-50481.81,-15727.185,-20769.614999999998,4572.99,-54553.905,-3.642891405157561,-8.513851262316901,-9.12576461308341,-10.204681104364004,-1.3436329260236053,1.0971054580797839,3.674386738402694,2.8875634163681934,0.19970652,-1.002377805,-0.001403805,-2.5179,-12.269039999999999,8.36248,72.0
1774821902.3626876,2.1219253540039062e-05,2026-03-29T22:05:02.362,2026-03-29T18:05:02.362,-31843.44,-50076.765,-85588.47,-50476.725,-15717.33,-20764.215,4582.98,-54549.225,-3.2712483503379692,-9.624181914702113,-12.692988814674335,-9.229073741148886,0.8490079897022188,1.0597121072542879,0.7881166816900234,1.3131332633342732,0.19970652,-1.002377805,-0.001403805,-2.5179,-12.269039999999999,8.36248,72.0
1774821902.3627088,2.1219253540039062e-05,2026-03-29T22:05:02.362,2026-03-29T18:05:02.362,-31849.875,-50086.215,-85575.645,-50469.84,-15734.88,-20779.92,4572.675,-54553.275,-1.7740663178705385,-6.739136576931803,-11.119157152275095,-4.123367855952924,2.660130722683537,0.6125038451094755,-2.2987185073584904,-1.166557284786349,0.19970652,-1.002377805,-0.001403805,-2.5179,-12.269039999999999,8.36248,72.0
1774821902.3627195,1.0728836059570312e-05,2026-03-29T22:05:02.362,2026-03-29T18:05:02.362,-31861.17,-50091.57,-85555.17,-50433.345,-15736.05,-20790.315,4544.01,-54575.415,0.23800121285701287,-1.0980651760603781,-5.3913235980641225,1.9766645908353444,3.0358715203803164,-0.11334291033583499,-3.9713752830440137,-3.2189519875852635,0.19970652,-1.002377805,-0.001403805,-2.5179,-12.269039999999999,8.36248,72.0
1774821902.3687997,0.006080150604248047,2026-03-29T22:05:02.368,2026-03-29T18:05:02.368,-31864.545,-50086.53,-85545.405,-50412.465,-15730.335,-20790.719999999998,4525.785,-54585.54,2.0424257922045155,4.927615275534546,2.019632126497235,5.89257555574394,1.6851779592084823,-0.8602597611148963,-3.4227026561909843,-3.671866099628256,0.20056101,-0.995908095,-0.001647945,-2.65524,-12.055399999999999,8.27092,72.0
1774821902.368812,1.239776611328125e-05,2026-03-29T22:05:02.368,2026-03-29T18:05:02.368,-31858.065,-50088.42,-85567.05,-50428.215,-15735.33,-20789.505,4544.505,-54566.595,3.043744153330766,8.825871123016725,8.229319692236787,6.0548720320436145,-0.7291162118812482,-1.3277680629244666,-1.0510888191074224,-2.1625658583670053,0.20056101,-0.995908095,-0.001647945,-2.65524,-12.055399999999999,8.27092,72.0
1774821902.3688242,1.2159347534179688e-05,2026-03-29T22:05:02.368,2026-03-29T18:05:02.368,-31850.01,-50076.63,-85556.87999999999,-50420.564999999995,-15721.289999999999,-20772.54,4573.08,-54545.625,2.945037313464667,8.991758083901235,11.03389437746427,3.1231649240695436,-2.916925894807401,-1.291202383957459,1.784098813738364,0.6289490615736426,0.20056101,-0.995908095,-0.001647945,-2.65524,-12.055399999999999,8.27092,72.0
1774821902.3688288,4.5299530029296875e-06,2026-03-29T22:05:02.368,2026-03-29T18:05:02.368,-31858.155,-50087.025,-85565.655,-50440.32,-15737.039999999999,-20786.535,4553.82,-54553.814999999995,1.8191106175784737,5.395261633083676,9.630853422007164,-0.6643966845548724,-3.6430059177627263,-0.7096293181730713,3.510428966692682,3.298736848717316,0.20056101,-0.995908095,-0.001647945,-2.65524,-12.055399999999999,8.27092,72.0
1774821902.3878593,0.01903057098388672,2026-03-29T22:05:02.387,2026-03-29T18:05:02.387,-31862.835,-50093.189999999995,-85565.11499999999,-50444.189999999995,-15740.055,-20788.739999999998,4547.745,-54562.14,0.0732448268807713,-0.4119398566466572,4.769688699764996,-2.9457653000744357,-2.4058405289291946,0.22920034947324183,3.191858160697766,4.4344559378788615,0.20056101,-0.995908095,-0.001647945,-2.65524,-12.055399999999999,8.27092,72.0
1774821902.387885,2.574920654296875e-05,2026-03-29T22:05:02.387,2026-03-29T18:05:02.387,-31863.824999999997,-50093.369999999995,-85554.94499999999,-50430.284999999996,-15730.199999999999,-20783.024999999998,4546.98,-54566.595,-1.680205746224079,-5.957196771993353,-1.6372864038470616,-2.617997964534324,0.2535477081243437,1.1596338122289043,1.0281011097831954,3.3590399922756404,0.20056101,-0.995908095,-0.001647945,-2.65524,-12.055399999999999,8.27092,72.0
1774821902.3879073,2.2172927856445312e-05,2026-03-29T22:05:02.387,2026-03-29T18:05:02.387,-31846.995,-50067.765,-85519.845,-50397.93,-15713.279999999999,-20778.75,4538.745,-54562.32,-2.8184060473887165,-8.899177689948347,-7.246640815177541,-0.3686181194614137,2.9918011544069443,1.677207740519158,-1.7596906345994867,0.5120986581644404,0.20056101,-0.995908095,-0.001647945,-2.65524,-12.055399999999999,8.27092,72.0
1774821902.3879142,6.9141387939453125e-06,2026-03-29T22:05:02.387,2026-03-29T18:05:02.387,-31843.17,-50064.255,-85525.92,-50386.59,-15703.244999999999,-20774.61,4543.47,-54557.325,-2.919290293226384,-8.025360907404263,-10.091691809008488,1.8994260711148092,4.343479937990221,1.5146821475929098,-3.5943371943070233,-2.738587129581861,0.20056101,-0.995908095,-0.001647945,-2.65524,-12.055399999999999,8.27092,72.0
1774821902.387923,8.821487426757812e-06,2026-03-29T22:05:02.387,2026-03-29T18:05:02.387,-31848.254999999997,-50076.27,-85549.77,-50392.799999999996,-15709.59,-20773.8,4557.96,-54557.415,-1.923832808852132,-3.7659047220817325,-9.219066587275647,2.3572618410502577,3.4953026238054052,0.6779644579535016,-3.403846636502256,-4.769777218191257,0.20056101,-0.995908095,-0.001647945,-2.65524,-12.055399999999999,8.27092,72.0
1774821902.38793,6.9141387939453125e-06,2026-03-29T22:05:02.387,2026-03-29T18:05:02.387,-31854.735,-50089.545,-85570.47,-50406.39,-15722.82,-20784.6,4556.34,-54567.27,-0.18317288189286626,2.001442523829465,-4.980536890284604,0.45956701523088767,0.7483154538241502,-0.5267155338174985,-1.2179696053931148,-4.522102078909461,0.20056101,-0.995908095,-0.001647945,-2.65524,-12.055399999999999,8.27092,72.0
1774821902.3879385,8.58306884765625e-06,2026-03-29T22:05:02.387,2026-03-29T18:05:02.387,-31861.079999999998,-50095.35,-85574.97,-50410.619999999995,-15730.289999999999,-20788.695,4543.38,-54567.27,1.6469521310612953,6.7745942924914155,1.0937789805141147,-2.658007057360914,-2.5858995168114647,-1.6000133547829543,1.8224585484318536,-2.048770141920237,0.19818064500000002,-0.98705802,-0.000671385,-5.508859999999999,-11.58234,8.20988,72.0
1774821902.3879454,6.9141387939453125e-06,2026-03-29T22:05:02.387,2026-03-29T18:05:02.387,-31851.495,-50088.015,-85570.83,-50437.17,-15740.505,-20784.015,4539.195,-54554.445,2.8455977506693824,8.520849674795741,6.805891200426705,-4.8410630699713035,-4.820178904957252,-2.056060485361098,4.056700739411549,1.48923088395286,0.19818064500000002,-0.98705802,-0.000671385,-5.508859999999999,-11.58234,8.20988,72.0
1774821902.39249,0.004544496536254883,2026-03-29T22:05:02.392,2026-03-29T18:05:02.392,-31853.385,-50086.845,-85555.75499999999,-50447.97,-15736.005,-20773.26,4532.3099999999995,-54557.369999999995,2.917324431992076,6.559775166682509,10.04139280722904,-4.258674333459023,-4.74592938531712,-1.642870726133845,4.190353581624695,4.384586379031911,0.19818064500000002,-0.98705802,-0.000671385,-5.508859999999999,-11.58234,8.20988,72.0
1774821902.392508,1.811981201171875e-05,2026-03-29T22:05:02.392,2026-03-29T18:05:02.392,-31866.254999999997,-50085.854999999996,-85521.33,-50415.525,-15719.49,-20767.454999999998,4560.929999999999,-54579.104999999996,1.8133356410260393,1.8432909177180945,9.53180811509151,-0.6337571856167655,-2.272933903589712,-0.47606286457846086,2.0102207361554925,5.222973702286966,0.19818064500000002,-0.98705802,-0.000671385,-5.508859999999999,-11.58234,8.20988,72.0
1774821902.394418,0.0019099712371826172,2026-03-29T22:05:02.394,2026-03-29T18:05:02.394,-31868.864999999998,-50088.195,-85522.36499999999,-50411.79,-15723.99,-20781.765,4560.12,-54581.085,-0.02407598301705029,-3.49154974093566,5.363489223683254,4.39018548638466,1.4793848700945291,0.983341534341496,-1.4560188047028817,3.581042301378678,0.19818064500000002,-0.98705802,-0.000671385,-5.508859999999999,-11.58234,8.20988,72.0
1774821902.3944302,1.2159347534179688e-05,2026-03-29T22:05:02.394,2026-03-29T18:05:02.394,-31856.985,-50085.54,-85538.565,-50391.27,-15714.314999999999,-20783.835,4542.705,-54574.244999999995,-1.8314528174344304,-7.09379682880296,-0.9794352443044994,8.021308073998092,4.7009593463373776,2.1097340092426684,-4.434047394204343,0.2355634649453754,0.19818064500000002,-0.98705802,-0.000671385,-5.508859999999999,-11.58234,8.20988,72.0
1774821902.4013815,0.006951332092285156,2026-03-29T22:05:02.401,2026-03-29T18:05:02.401,-31853.52,-50088.735,-85563.54,-50419.215,-15722.505,-20779.425,4572.09,-54566.549999999996,-2.8479327439662234,-7.451756587212989,-7.104640156730494,7.85462921164182,5.773477336752673,2.38188941120426,-5.308753973552595,-3.217755727232486,0.19818064500000002,-0.98705802,-0.000671385,-5.508859999999999,-11.58234,8.20988,72.0
1774821902.4013948,1.33514404296875e-05,2026-03-29T22:05:02.401,2026-03-29T18:05:02.401,-31865.355,-50102.325,-85602.42,-50475.15,-15736.904999999999,-20785.184999999998,4580.6849999999995,-54572.85,-2.6524862132995928,-4.5483996805991636,-10.59708703266561,3.331954895929557,4.08124342336726,1.6238269070285174,-3.479316538750503,-5.142825902113747,0.19818064500000002,-0.98705802,-0.000671385,-5.508859999999999,-11.58234,8.20988,72.0
1774821902.4014096,1.4781951904296875e-05,2026-03-29T22:05:02.401,2026-03-29T18:05:02.401,-31861.71,-50094.54,-85605.66,-50493.015,-15739.605,-20787.84,4560.84,-54576.134999999995,-1.3566790426602464,0.17615049587339163,-9.98160941663519,-3.718484158061923,0.34424508059667924,0.10615554146996542,0.2825543055553314,-4.651754445766388,0.19818064500000002,-0.98705802,-0.000671385,-5.508859999999999,-11.58234,8.20988,72.0
1774821902.401414,4.291534423828125e-06,2026-03-29T22:05:02.401,2026-03-29T18:05:02.401,-31846.545,-50076.27,-85565.52,-50446.619999999995,-15724.89,-20780.73,4568.625,-54565.47,0.4446951307614028,4.527298765083469,-5.371588448342931,-9.839296498370036,-3.7002743015441357,-1.546980908806937,4.170338011183066,-2.0175605130764724,0.19818064500000002,-0.98705802,-0.000671385,-5.508859999999999,-11.58234,8.20988,72.0
1774821902.4065292,0.0051152706146240234,2026-03-29T22:05:02.406,2026-03-29T18:05:02.406,-31841.414999999997,-50063.22,-85511.43,-50386.32,-15708.644999999999,-20771.505,4593.105,-54559.799999999996,1.9489919717608244,6.5858611775373355,1.495900205332958,-11.673741009252264,-6.120499563176712,-2.615104860926212,6.222310346369805,1.4821260015340143,0.19726512000000002,-0.98376213,-0.002014155,-6.36342,-11.18558,6.9890799999999995,72.0
1774821902.4065418,1.2636184692382812e-05,2026-03-29T22:05:02.406,2026-03-29T18:05:02.406,-31845.645,-50068.08,-85525.11,-50404.545,-15712.154999999999,-20773.485,4570.47,-54565.695,2.518805066731668,5.577371780227286,7.900808447112153,-7.787632109393029,-5.7200986691059335,-2.5963219765268724,5.309134227574429,4.199884720009284,0.19726512000000002,-0.98376213,-0.002014155,-6.36342,-11.18558,6.9890799999999995,72.0
1774821902.4192443,0.012702465057373047,2026-03-29T22:05:02.419,2026-03-29T18:05:02.419,-31858.289999999997,-50104.799999999996,-85568.76,-50422.545,-15722.189999999999,-20781.765,4536.405,-54579.24,1.9723075137732702,2.176182645014408,11.228239168768381,0.39871175893141286,-2.6240355033040244,-1.4416912175070808,1.7323626908022007,4.910140495132535,0.19726512000000002,-0.98376213,-0.002014155,-6.36342,-11.18558,6.9890799999999995,72.0
1774821902.4192572,1.2874603271484375e-05,2026-03-29T22:05:02.419,2026-03-29T18:05:02.419,-31878.899999999998,-50152.32,-85610.7,-50441.58,-15741.0,-20795.715,4516.92,-54589.32,0.6485328033273863,-1.8837252899268526,10.061654462331882,9.125247761916015,1.7649684062011097,0.3999898563972492,-2.875875565105154,3.3702424677564546,0.19726512000000002,-0.98376213,-0.002014155,-6.36342,-11.18558,6.9890799999999995,72.0
1774821902.4192762,1.9073486328125e-05,2026-03-29T22:05:02.419,2026-03-29T18:05:02.419,-31883.76,-50162.13,-85617.9,-50428.979999999996,-15734.699999999999,-20793.285,4523.3099999999995,-54587.07,-0.7823929026693346,-4.683655414543759,4.8091633476751205,14.067720530717404,5.419712169438116,2.1561715126714254,-6.316573913110144,0.3904307354456506,0.19726512000000002,-0.98376213,-0.002014155,-6.36342,-11.18558,6.9890799999999995,72.0
1774821902.4192805,4.291534423828125e-06,2026-03-29T22:05:02.419,2026-03-29T18:05:02.419,-31873.23,-50132.97,-85597.73999999999,-50391.09,-15707.295,-20767.545,4552.0199999999995,-54575.055,-1.664046741758691,-5.042750729065437,-2.426714155188442,12.512978669103031,6.638836507400924,3.0559344084447346,-6.884806990730759,-2.5984664492515424,0.19726512000000002,-0.98376213,-0.002014155,-6.36342,-11.18558,6.9890799999999995,72.0
1774821902.4261708,0.006890296936035156,2026-03-29T22:05:02.426,2026-03-29T18:05:02.426,-31868.1,-50068.08,-85525.92,-50354.82,-15691.365,-20753.774999999998,4554.495,-54591.075,-1.674109549172618,-3.0377397963169637,-8.702636997601479,4.82581171564881,4.841976666907341,2.66896004648789,-4.210660700341716,-4.2470188365014225,0.19726512000000002,-0.98376213,-0.002014155,-6.36342,-11.18558,6.9890799999999995,72.0
1774821902.4261856,1.4781951904296875e-05,2026-03-29T22:05:02.426,2026-03-29T18:05:02.426,-31869.09,-50064.479999999996,-85541.58,-50412.645,-15739.695,-20789.415,4533.795,-54605.744999999995,-0.9556200696777902,0.12001149394919272,-11.457860283707053,-5.577770583903264,0.8363718096656974,1.1086311642374873,0.5335784765929064,-3.9082175379875763,0.19726512000000002,-0.98376213,-0.002014155,-6.36342,-11.18558,6.9890799999999995,72.0
1774821902.4262028,1.71661376953125e-05,2026-03-29T22:05:02.426,2026-03-29T18:05:02.426,-31864.32,-50081.354999999996,-85586.265,-50511.915,-15781.68,-20818.395,4533.3,-54585.225,0.0030145737945792,2.7633936152262444,-9.583997969598858,-13.795331235185435,-3.5633779518694024,-0.9957003461121418,5.166777817764485,-1.8865089358499438,0.19726512000000002,-0.98376213,-0.002014155,-6.36342,-11.18558,6.9890799999999995,72.0
1774821902.426211,8.344650268554688e-06,2026-03-29T22:05:02.426,2026-03-29T18:05:02.426,-31850.145,-50056.515,-85553.055,-50465.115,-15726.555,-20780.145,4578.12,-54563.939999999995,0.664937102095371,3.640379113173386,-3.879885639632202,-15.80153786196908,-6.375163729832946,-2.7536430992412173,7.520794254348683,0.7779206688785226,0.19726512000000002,-0.98376213,-0.002014155,-6.36342,-11.18558,6.9890799999999995,72.0
1774821902.426221,9.775161743164062e-06,2026-03-29T22:05:02.426,2026-03-29T18:05:02.426,-31853.34,-50067.045,-85555.125,-50442.21,-15722.595,-20782.215,4571.55,-54561.645,0.7484262056881985,2.525215773565339,3.300759278587507,-10.44704922633214,-6.351759676287526,-3.3919848846315057,6.4633471103043,2.851499774129736,0.197082015,-0.98791251,-0.00512694,-3.0672599999999997,-9.36964,6.4397199999999994,72.0
1774821902.4262269,5.9604644775390625e-06,2026-03-29T22:05:02.426,2026-03-29T18:05:02.426,-31850.504999999997,-50068.53,-85549.36499999999,-50428.305,-15725.34,-20786.715,4562.1449999999995,-54565.244999999995,0.36524968403508834,0.26392207619193325,9.04768817820059,-0.08841361401674064,-3.5304283079030294,-2.594736461430074,2.4355959348191067,3.490938165864574,0.197082015,-0.98791251,-0.00512694,-3.0672599999999997,-9.36964,6.4397199999999994,72.0
1774821902.4351883,0.00896143913269043,2026-03-29T22:05:02.435,2026-03-29T18:05:02.435,-31850.64,-50072.04,-85545.18,-50412.015,-15727.365,-20788.785,4565.115,-54566.505,-0.0827102922700305,-1.75004835445867,11.100311290650934,10.486656933023783,0.8105831093011144,-0.6553327013358398,-2.747825350648703,2.5866168710736854,0.197082015,-0.98791251,-0.00512694,-3.0672599999999997,-9.36964,6.4397199999999994,72.0
1774821902.4352107,2.2411346435546875e-05,2026-03-29T22:05:02.435,2026-03-29T18:05:02.435,-31851.045,-50083.695,-85565.43,-50412.465,-15735.869999999999,-20797.065,4512.69,-54569.204999999994,-0.18438247373600344,-2.373580685842847,8.746546869382065,16.330106931180215,4.749923442950247,1.6308973661902635,-6.737455601977026,0.725989838018822,0.197082015,-0.98791251,-0.00512694,-3.0672599999999997,-9.36964,6.4397199999999994,72.0
1774821902.4352343,2.3603439331054688e-05,2026-03-29T22:05:02.435,2026-03-29T18:05:02.435,-31856.265,-50098.994999999995,-85596.525,-50426.055,-15741.72,-20798.774999999998,4487.67,-54570.465,0.1928733038556815,-1.3472584117942012,3.05050507758844,14.696992761887197,6.587217657146455,3.294641867539346,-7.72893691161971,-1.1642255591370212,0.197082015,-0.98791251,-0.00512694,-3.0672599999999997,-9.36964,6.4397199999999994,72.0
1774821902.4352455,1.1205673217773438e-05,2026-03-29T22:05:02.435,2026-03-29T18:05:02.435,-31872.285,-50115.555,-85612.31999999999,-50455.755,-15746.984999999999,-20796.075,4527.315,-54576.045,0.7894990055086746,0.5809059047702884,-3.6522438530232355,6.351106432401275,5.578358450438505,3.6047699148886245,-5.281088733193674,-2.2874513990182868,0.197082015,-0.98791251,-0.00512694,-3.0672599999999997,-9.36964,6.4397199999999994,72.0
1774821902.4372437,0.0019981861114501953,2026-03-29T22:05:02.437,2026-03-29T18:05:02.437,-31892.579999999998,-50107.32,-85588.155,-50461.335,-15735.42,-20779.065,4572.0,-54607.005,1.0969898617736573,2.1078889768619926,-8.741552617399158,-4.815242718199237,2.2237017702910262,2.3888341715183836,-0.5007080257151153,-2.3174795531790022,0.197082015,-0.98791251,-0.00512694,-3.0672599999999997,-9.36964,6.4397199999999994,72.0
1774821902.4372685,2.47955322265625e-05,2026-03-29T22:05:02.437,2026-03-29T18:05:02.437,-31880.565,-50093.28,-85558.59,-50442.255,-15734.115,-20786.579999999998,4570.65,-54600.84,0.6881770163559409,2.153549067052049,-10.348723346435639,-13.647788878005807,-1.9946806484227673,0.12163962964536851,4.476931642958725,-1.4622204629333881,0.197082015,-0.98791251,-0.00512694,-3.0672599999999997,-9.36964,6.4397199999999994,72.0
1774821902.441096,0.0038275718688964844,2026-03-29T22:05:02.441,2026-03-29T18:05:02.441,-31864.995,-50079.24,-85538.97,-50420.79,-15724.215,-20784.105,4556.25,-54598.095,-0.45763298919566925,0.528168163068345,-8.024257180971347,-16.16498968153903,-5.283528615486267,-2.261409275174915,7.459168229788069,-0.26175211305451035,0.197082015,-0.98791251,-0.00512694,-3.0672599999999997,-9.36964,6.4397199999999994,72.0
1774821902.4411209,2.47955322265625e-05,2026-03-29T22:05:02.441,2026-03-29T18:05:02.441,-31861.35,-50079.96,-85542.435,-50415.93,-15725.609999999999,-20780.19,4566.6449999999995,-54593.865,-1.8435465706094494,-1.89606525851159,-2.8084314039712024,-11.385697433669051,-6.306105186779604,-3.752051828678672,7.169077519432251,0.7345107011830644,0.197082015,-0.98791251,-0.00512694,-3.0672599999999997,-9.36964,6.4397199999999994,72.0
1774821902.4478629,0.006742000579833984,2026-03-29T22:05:02.447,2026-03-29T18:05:02.447,-31852.89,-50068.395,-85520.61,-50407.604999999996,-15724.89,-20778.255,4570.5599999999995,-54574.875,-2.6594977367101036,-3.630829754902075,3.262507642120025,-1.6960635163572537,-4.716164702766871,-3.696324997069214,3.785971433549049,1.2250526510393782,0.19909617000000002,-0.98949942,-0.00830076,-0.04578,-8.454039999999999,4.3491,72.0
1774821902.4478788,1.5974044799804688e-05,2026-03-29T22:05:02.447,2026-03-29T18:05:02.447,-31855.59,-50066.415,-85510.215,-50413.814999999995,-15721.244999999999,-20776.094999999998,4550.67,-54577.125,-2.2241928528707664,-3.414209101863088,7.967028450812789,8.371351940446942,-1.250472212293944,-2.0798117427183627,-1.1713402369572856,1.225032477372555,0.19909617000000002,-0.98949942,-0.00830076,-0.04578,-8.454039999999999,4.3491,72.0
1774821902.4529033,0.005024433135986328,2026-03-29T22:05:02.452,2026-03-29T18:05:02.452,-31860.989999999998,-50071.77,-85512.19499999999,-50390.505,-15703.154999999999,-20769.704999999998,4530.69,-54590.85,-0.4331591352240279,-0.994296454460073,9.693260406900453,14.309428068791162,2.6272044236792165,0.45279620653933583,-5.542434201433001,0.9470132731472747,0.19909617000000002,-0.98949942,-0.00830076,-0.04578,-8.454039999999999,4.3491,72.0
1774821902.4529262,2.288818359375e-05,2026-03-29T22:05:02.452,2026-03-29T18:05:02.452,-31858.155,-50073.884999999995,-85514.04,-50347.935,-15684.345,-20760.21,4553.73,-54587.43,2.0539547869311114,2.5973712599536904,7.9427218020647965,13.695609354100958,5.352572966315762,2.8565975215502837,-7.476253512292906,0.6020634826700972,0.19909617000000002,-0.98949942,-0.00830076,-0.04578,-8.454039999999999,4.3491,72.0
1774821902.4529438,1.7642974853515625e-05,2026-03-29T22:05:02.452,2026-03-29T18:05:02.452,-31855.77,-50076.854999999996,-85537.485,-50382.765,-15704.505,-20766.195,4569.075,-54577.665,4.038238050468182,5.480285676804469,3.4153676697576034,7.17874660459012,5.885952478559094,4.118860496829836,-6.2127288394750995,0.2617088715001616,0.19909617000000002,-0.98949942,-0.00830076,-0.04578,-8.454039999999999,4.3491,72.0
1774821902.4529517,7.867813110351562e-06,2026-03-29T22:05:02.452,2026-03-29T18:05:02.452,-31850.864999999998,-50079.509999999995,-85576.23,-50440.049999999996,-15718.23,-20771.19,4552.38,-54576.45,4.353518987423662,5.887112044335438,-2.29153174823117,-2.006204457835134,4.090036270370056,3.6852712539779913,-2.367376604588653,-0.13545801267905386,0.19909617000000002,-0.98949942,-0.00830076,-0.04578,-8.454039999999999,4.3491,72.0
1774821902.463808,0.010856389999389648,2026-03-29T22:05:02.463,2026-03-29T18:05:02.463,-31847.805,-50079.465,-85592.7,-50483.79,-15727.005,-20771.954999999998,4549.1849999999995,-54577.845,2.5148044424010525,3.1685682013266283,-7.229298154815481,-9.67557353566154,0.7344870338811513,1.700803947882067,2.3784860024999945,-0.654060942503012,0.19909617000000002,-0.98949942,-0.00830076,-0.04578,-8.454039999999999,4.3491,72.0
1774821902.4638207,1.2636184692382812e-05,2026-03-29T22:05:02.463,2026-03-29T18:05:02.463,-31857.344999999998,-50096.79,-85610.47499999999,-50501.52,-15739.199999999999,-20783.52,4553.73,-54581.174999999996,-0.9059633149134211,-1.7065467297468537,-9.710434618827348,-12.644541460154,-2.8436110603862654,-1.0383373734383818,6.021886685889076,-1.217166106863267,0.19909617000000002,-0.98949942,-0.00830076,-0.04578,-8.454039999999999,4.3491,72.0
1774821902.463832,1.1205673217773438e-05,2026-03-29T22:05:02.463,2026-03-29T18:05:02.463,-31866.795,-50101.2,-85577.535,-50445.225,-15738.074999999999,-20796.39,4535.01,-54585.945,-4.42006759049715,-6.475661255397515,-8.827047113310192,-10.059360402720817,-5.269316076623195,-3.4055465480062885,7.083596758178048,-1.5677194971912976,0.19909617000000002,-0.98949942,-0.00830076,-0.04578,-8.454039999999999,4.3491,72.0
1774821902.463836,4.0531158447265625e-06,2026-03-29T22:05:02.463,2026-03-29T18:05:02.463,-31864.184999999998,-50089.229999999996,-85541.44499999999,-50410.17,-15727.949999999999,-20790.719999999998,4536.224999999999,-54586.755,-6.2702385732778945,-8.63490474203174,-4.753008266550624,-3.553277118070967,-5.641984901714544,-4.407327253358749,5.199219558219455,-1.3883980998736982,0.19909617000000002,-0.98949942,-0.00830076,-0.04578,-8.454039999999999,4.3491,72.0
1774821902.467972,0.004136085510253906,2026-03-29T22:05:02.467,2026-03-29T18:05:02.467,-31860.719999999998,-50073.84,-85529.43,-50397.165,-15701.085,-20758.41,4580.325,-54593.865,-5.304838173458182,-6.728629480972281,1.2510731040564806,3.732775825360136,-3.8489985586853392,-3.598696895492946,1.2262029840672308,-0.5226524559836428,0.19970652,-0.986508705,-0.013732875,-1.2055399999999998,-6.8517399999999995,4.4254,72.0
1774821902.4679897,1.7642974853515625e-05,2026-03-29T22:05:02.467,2026-03-29T18:05:02.467,-31863.555,-50074.695,-85535.415,-50402.25,-15700.545,-20754.045,4592.16,-54594.945,-1.6442065199060072,-1.220004934560614,7.162255849121115,8.695759416065588,-0.5843996794634908,-1.2775924229078806,-3.1521240537701196,0.8416938689843323,0.19970652,-0.986508705,-0.013732875,-1.2055399999999998,-6.8517399999999995,4.4254,72.0
1774821902.4680183,2.86102294921875e-05,2026-03-29T22:05:02.468,2026-03-29T18:05:02.468,-31857.704999999998,-50083.38,-85555.17,-50423.985,-15723.314999999999,-20773.26,4572.36,-54583.38,3.2311563819245555,5.5470185199593125,10.807836272228013,9.609388991067183,2.918273575155277,1.6251595964426995,-6.140322053285513,2.1640057978712917,0.19970652,-0.986508705,-0.013732875,-1.2055399999999998,-6.8517399999999995,4.4254,72.0
1774821902.468026,7.62939453125e-06,2026-03-29T22:05:02.468,2026-03-29T18:05:02.468,-31857.03,-50085.72,-85560.84,-50425.965,-15726.689999999999,-20783.024999999998,4559.535,-54584.909999999996,7.076464486794623,10.35203949523343,10.623963330677904,6.671053069467481,5.337342779517488,3.9192099728465597,-6.5606559591792735,2.7650611933400877,0.19970652,-0.986508705,-0.013732875,-1.2055399999999998,-6.8517399999999995,4.4254,72.0
1774821902.4743955,0.006369590759277344,2026-03-29T22:05:02.474,2026-03-29T18:05:02.474,-31846.545,-50072.4,-85545.09,-50406.479999999996,-15709.545,-20772.719999999998,4564.665,-54579.42,7.9247817582247375,10.635114343092704,6.319906560939191,1.6183268552107382,5.7423318009755455,4.641518518164032,-4.307114267465554,2.178907244820401,0.19970652,-0.986508705,-0.013732875,-1.2055399999999998,-6.8517399999999995,4.4254,72.0
1774821902.4744227,2.7179718017578125e-05,2026-03-29T22:05:02.474,2026-03-29T18:05:02.474,-31847.175,-50067.9,-85536.98999999999,-50391.045,-15691.32,-20758.274999999998,4563.63,-54589.59,5.087515937463151,5.830118589408587,-0.8302380127037644,-3.266340634351867,3.9389979826837607,3.4582720373792495,-0.35509183535042654,0.4587023734195543,0.19970652,-0.986508705,-0.013732875,-1.2055399999999998,-6.8517399999999995,4.4254,72.0
1774821902.4787245,0.004301786422729492,2026-03-29T22:05:02.478,2026-03-29T18:05:02.478,-31846.05,-50076.134999999995,-85561.245,-50411.744999999995,-15700.41,-20759.895,4566.51,-54584.505,-0.39434380167665395,-2.189871811777257,-8.270273416585441,-6.204304570720091,0.5594871156699511,0.8154544964078602,3.660080824796172,-1.749234069680225,0.19970652,-0.986508705,-0.013732875,-1.2055399999999998,-6.8517399999999995,4.4254,72.0
1774821902.4787474,2.288818359375e-05,2026-03-29T22:05:02.478,2026-03-29T18:05:02.478,-31866.524999999998,-50102.415,-85576.185,-50420.07,-15714.404999999999,-20771.28,4570.2,-54593.82,-6.118100130633686,-9.839862577171942,-13.022129502481715,-6.533378619913894,-3.1434535589487433,-2.2282141125894332,6.1149262936699555,-3.4430027135772345,0.19970652,-0.986508705,-0.013732875,-1.2055399999999998,-6.8517399999999995,4.4254,72.0
1774821902.4812012,0.0024538040161132812,2026-03-29T22:05:02.481,2026-03-29T18:05:02.481,-31885.965,-50126.22,-85590.18,-50431.725,-15742.394999999999,-20797.559999999998,4551.66,-54607.994999999995,-9.384666080968108,-13.44179938331101,-12.866685523210446,-4.695673258060543,-5.741170967434503,-4.423700721850057,6.047884655972927,-3.729801148629161,0.19970652,-0.986508705,-0.013732875,-1.2055399999999998,-6.8517399999999995,4.4254,72.0
1774821902.481214,1.2874603271484375e-05,2026-03-29T22:05:02.481,2026-03-29T18:05:02.481,-31870.17,-50102.415,-85565.025,-50423.939999999995,-15737.715,-20787.84,4556.88,-54598.275,-8.483271622680329,-10.9962372658909,-7.384028718805756,-1.755737736407582,-6.166645445921134,-4.8417996108441415,3.531764543152251,-2.297363664256235,0.19970652,-0.986508705,-0.013732875,-1.2055399999999998,-6.8517399999999995,4.4254,72.0
1774821902.4851727,0.003958702087402344,2026-03-29T22:05:02.485,2026-03-29T18:05:02.485,-31858.559999999998,-50071.634999999995,-85535.50499999999,-50423.085,-15725.699999999999,-20781.63,4553.415,-54598.994999999995,-3.578324831664045,-3.25121579535778,1.6364749052999614,1.195717658518345,-4.1504249140516585,-3.264048894891432,-0.3733366991888197,0.3572176710304183,0.1977534,-0.981870045,-0.015930135,-5.5393799999999995,-6.37868,2.10588,72.0
1774821902.4851947,2.193450927734375e-05,2026-03-29T22:05:02.485,2026-03-29T18:05:02.485,-31852.53,-50063.22,-85543.605,-50448.284999999996,-15721.425,-20779.695,4540.545,-54605.34,3.2586523754653123,6.489557306650496,10.70291894935525,3.425904577375804,-0.3779439265153482,-0.2913385312867319,-4.061815021461218,3.08757186595974,0.1977534,-0.981870045,-0.015930135,-5.5393799999999995,-6.37868,2.10588,72.0
1774821902.4925823,0.007387638092041016,2026-03-29T22:05:02.492,2026-03-29T18:05:02.492,-31839.39,-50062.95,-85548.87,-50424.03,-15704.144999999999,-20770.38,4537.98,-54596.97,8.934014508051707,13.792772608220945,15.950826155207842,4.609971801554915,3.719932933430088,2.8817672522206723,-6.038641129319605,4.602810596795829,0.1977534,-0.981870045,-0.015930135,-5.5393799999999995,-6.37868,2.10588,72.0
1774821902.492612,2.956390380859375e-05,2026-03-29T22:05:02.492,2026-03-29T18:05:02.492,-31825.17,-50055.03,-85531.00499999999,-50392.665,-15690.285,-20762.594999999998,4539.96,-54579.24,10.750986571796288,15.132058544562986,14.802663477213388,4.65937761707616,6.494099475780041,4.94380388614409,-5.524824004826736,4.0898238145947845,0.1977534,-0.981870045,-0.015930135,-5.5393799999999995,-6.37868,2.10588,72.0
1774821902.5032885,0.01067662239074707,2026-03-29T22:05:02.503,2026-03-29T18:05:02.503,-31837.815,-50074.424999999996,-85546.575,-50404.77,-15702.21,-20765.745,4553.955,-54579.15,7.7028368679050505,9.590757538862274,7.238741552281464,3.558078230918367,6.736826079988214,5.00582629767014,-2.767569027874615,1.6476920772122636,0.1977534,-0.981870045,-0.015930135,-5.5393799999999995,-6.37868,2.10588,72.0
1774821902.5033193,3.075599670410156e-05,2026-03-29T22:05:02.503,2026-03-29T18:05:02.503,-31876.965,-50132.115,-85596.705,-50416.47,-15723.045,-20781.719999999998,4548.42,-54605.295,1.0145224540601445,-0.5918969265538193,-3.9498481536833534,1.3753651820538857,4.212148896977897,2.983242009529316,1.070816504744206,-1.697138673154301,0.1977534,-0.981870045,-0.015930135,-5.5393799999999995,-6.37868,2.10588,72.0
1774821902.5033572,3.790855407714844e-05,2026-03-29T22:05:02.503,2026-03-29T18:05:02.503,-31886.055,-50136.345,-85599.72,-50394.195,-15719.939999999999,-20783.16,4550.535,-54617.4,-6.353346192675441,-10.934483599132994,-14.153664844139515,-1.5575447823286126,-0.1783113214565246,-0.34301286020184796,4.399617802095307,-4.429273116420091,0.1977534,-0.981870045,-0.015930135,-5.5393799999999995,-6.37868,2.10588,72.0
1774821902.503374,1.6927719116210938e-05,2026-03-29T22:05:02.503,2026-03-29T18:05:02.503,-31881.015,-50123.744999999995,-85597.245,-50411.7,-15734.609999999999,-20793.645,4548.96,-54609.84,-11.03536670307208,-16.70927062544923,-18.851813726853575,-4.490166225810092,-4.697416787188529,-3.622814721300562,5.860836753253067,-5.245412701585388,0.1977534,-0.981870045,-0.015930135,-5.5393799999999995,-6.37868,2.10588,72.0
1774821902.5033932,1.9073486328125e-05,2026-03-29T22:05:02.503,2026-03-29T18:05:02.503,-31859.64,-50087.159999999996,-85568.84999999999,-50428.979999999996,-15723.585,-20768.13,4573.53,-54585.99,-10.81920373505723,-15.120411977281208,-15.64109597275507,-6.332779620658299,-7.453184016505276,-5.481082617338066,4.889327140089211,-3.686886894955945,0.1977534,-0.981870045,-0.015930135,-5.5393799999999995,-6.37868,2.10588,72.0
1774821902.503409,1.5735626220703125e-05,2026-03-29T22:05:02.503,2026-03-29T18:05:02.503,-31853.07,-50066.955,-85550.4,-50453.189999999995,-15727.769999999999,-20774.52,4558.59,-54589.095,-5.699761754497531,-6.653280092885692,-5.464449417972766,-6.056739506099718,-7.1950192312726555,-5.092802023959531,1.9371869601133633,-0.39194309041962067,0.1977534,-0.981870045,-0.015930135,-5.5393799999999995,-6.37868,2.10588,72.0
