unix_time_s,dt_s,UTC,LOCAL,EMG1_Raw,EMG2_Raw,EMG3_Raw,EMG4_Raw,EMG5_Raw,EMG6_Raw,EMG7_Raw,EMG8_Raw,EMG1_Filtered,EMG2_Filtered,EMG3_Filtered,EMG4_Filtered,EMG5_Filtered,EMG6_Filtered,EMG7_Filtered,EMG8_Filtered,Accel1_Raw,Accel2_Raw,Accel3_Raw,Gyro1_Raw,Gyro2_Raw,Gyro3_Raw,Battery
1774822757.1857305,,2026-03-29T22:19:17.185,2026-03-29T18:19:17.185,-33329.025,-46264.545,-85616.19,-50594.895,-12491.414999999999,-17864.73,6819.48,-44255.205,-1.3766700763990554,-1.3559533460302027,-0.5788692724385284,0.4757383479153239,1.0606032866458868,1.2921893691476722,-0.7426923841428119,-0.8895561509888521,0.180846705,-0.25158627,0.953061525,-3.6013599999999997,-11.33818,-47.321259999999995,69.0
1774822757.1857488,1.8358230590820312e-05,2026-03-29T22:19:17.185,2026-03-29T18:19:17.185,-33358.409999999996,-46280.34,-85624.605,-50599.125,-12487.32,-17851.815,6845.445,-44263.53,2.2237162525070664,1.9782365825966413,3.6022148185310354,4.014760737332522,4.129799207850956,2.1472250750908435,0.402463764319202,3.4898131648031647,0.180846705,-0.25158627,0.953061525,-3.6013599999999997,-11.33818,-47.321259999999995,69.0
1774822757.1960192,0.010270357131958008,2026-03-29T22:19:17.196,2026-03-29T18:19:17.196,-33392.88,-46299.735,-85649.805,-50636.115,-12517.875,-17873.684999999998,6831.63,-44285.22,4.748717751676779,4.148345610027267,5.776866606929382,5.5627133213560205,5.122767546999207,1.6621852161168713,0.9816321096818912,6.221339978846417,0.180846705,-0.25158627,0.953061525,-3.6013599999999997,-11.33818,-47.321259999999995,69.0
1774822757.1960435,2.4318695068359375e-05,2026-03-29T22:19:17.196,2026-03-29T18:19:17.196,-33383.115,-46315.845,-85671.855,-50649.03,-12534.57,-17894.969999999998,6798.599999999999,-44282.97,5.074530751848657,4.060578928065241,4.821619964545796,4.337384599855761,3.507802427357326,-0.02020018948620499,0.7013771595290095,6.1627471538164595,0.180846705,-0.25158627,0.953061525,-3.6013599999999997,-11.33818,-47.321259999999995,69.0
1774822757.1960642,2.0742416381835938e-05,2026-03-29T22:19:17.196,2026-03-29T18:19:17.196,-33403.86,-46342.979999999996,-85697.09999999999,-50648.31,-12538.755,-17912.475,6705.0,-44300.115,3.107133920207991,1.8307581695145898,1.2826705323232486,0.9412351363355103,0.076309690652502,-2.0050220667418848,-0.14011361770070782,3.4415326445264247,0.1855464,-0.24682554,0.93798588,-0.82404,-13.13886,-45.15434,69.0
1774822757.1960733,9.059906005859375e-06,2026-03-29T22:19:17.196,2026-03-29T18:19:17.196,-33410.34,-46339.11,-85687.37999999999,-50636.159999999996,-12526.38,-17901.27,6700.23,-44316.314999999995,-0.20811387635145326,-1.3012233520503025,-2.9132767245634112,-2.9227832658588064,-3.43480102139669,-3.1042859555081312,-0.8699665359073921,-0.6576001103681939,0.1855464,-0.24682554,0.93798588,-0.82404,-13.13886,-45.15434,69.0
1774822757.1960845,1.1205673217773438e-05,2026-03-29T22:19:17.196,2026-03-29T18:19:17.196,-33426.54,-46333.35,-85664.06999999999,-50617.305,-12504.555,-17874.855,6758.235,-44334.765,-3.3497424450046154,-3.644840618474319,-5.4837612594083005,-5.298839021792207,-5.214561095382012,-2.5076486194472563,-0.8880974446257272,-4.3116120153820265,0.1855464,-0.24682554,0.93798588,-0.82404,-13.13886,-45.15434,69.0
1774822757.1960928,8.344650268554688e-06,2026-03-29T22:19:17.196,2026-03-29T18:19:17.196,-33408.405,-46306.89,-85628.025,-50600.07,-12494.205,-17868.015,6802.514999999999,-44340.39,-4.925125762129788,-3.9602314362576054,-5.014949930695939,-4.970332546381308,-4.309128260550983,-0.2992175263391655,-0.07138552347795168,-5.980578957840313,0.1855464,-0.24682554,0.93798588,-0.82404,-13.13886,-45.15434,69.0
1774822757.196103,1.0251998901367188e-05,2026-03-29T22:19:17.196,2026-03-29T18:19:17.196,-33376.095,-46282.229999999996,-85609.845,-50614.064999999995,-12509.73,-17879.579999999998,6800.67,-44329.68,-4.287091931158355,-2.1108827153209386,-1.7355431796952356,-2.0925959768770084,-1.1350100435227422,2.4864979308023285,1.1148452904611694,-5.056359784247861,0.1855464,-0.24682554,0.93798588,-0.82404,-13.13886,-45.15434,69.0
1774822757.196112,8.821487426757812e-06,2026-03-29T22:19:17.196,2026-03-29T18:19:17.196,-33377.4,-46287.854999999996,-85628.745,-50617.439999999995,-12506.49,-17875.125,6789.195,-44343.72,-1.7895262044585083,0.874767652186492,2.5815139998190113,1.8666403823924953,2.70237440727312,4.342844527497997,1.876200880123536,-2.06554899388743,0.1855464,-0.24682554,0.93798588,-0.82404,-13.13886,-45.15434,69.0
1774822757.1995032,0.003391265869140625,2026-03-29T22:19:17.199,2026-03-29T18:19:17.199,-33364.979999999996,-46284.659999999996,-85626.36,-50590.17,-12476.699999999999,-17848.53,6805.17,-44343.99,1.4129484463698925,3.361976464991124,5.553996572613401,4.864276061024926,5.21120934054846,4.085329323487097,1.5769517539707296,1.629165289699307,0.1855464,-0.24682554,0.93798588,-0.82404,-13.13886,-45.15434,69.0
1774822757.199516,1.2874603271484375e-05,2026-03-29T22:19:17.199,2026-03-29T18:19:17.199,-33357.24,-46294.424999999996,-85642.515,-50605.2,-12490.605,-17861.85,6796.98,-44336.744999999995,3.906888229848445,3.989966423955428,5.477817083983533,5.331247360600792,5.039570046214942,1.5503263730664496,0.17050716580174713,4.460900514858474,0.1855464,-0.24682554,0.93798588,-0.82404,-13.13886,-45.15434,69.0
1774822757.2040336,0.004517555236816406,2026-03-29T22:19:17.204,2026-03-29T18:19:17.204,-33368.805,-46287.314999999995,-85624.245,-50622.39,-12512.115,-17881.469999999998,6765.929999999999,-44353.755,4.645314648172278,2.4052689677323786,2.281298397769823,2.9973916005497148,2.199474082272764,-2.196147067496503,-1.6935469817996918,5.325484163026388,0.1855464,-0.24682554,0.93798588,-0.82404,-13.13886,-45.15434,69.0
1774822757.20406,2.6464462280273438e-05,2026-03-29T22:19:17.204,2026-03-29T18:19:17.204,-33380.865,-46289.295,-85609.44,-50585.13,-12476.07,-17850.105,6775.469999999999,-44379.18,3.3791395837072646,-0.5429639683366703,-2.3794726606221777,-0.943197149057954,-1.8974863465875718,-5.3000735564881,-2.975852027914238,3.99843735492108,0.1855464,-0.24682554,0.93798588,-0.82404,-13.13886,-45.15434,69.0
1774822757.2077396,0.003679513931274414,2026-03-29T22:19:17.207,2026-03-29T18:19:17.207,-33377.354999999996,-46306.08,-85629.555,-50588.145,-12474.18,-17840.07,6835.95,-44374.725,0.7216635429108507,-3.2522824528734957,-5.963840612747277,-4.429498345603355,-5.133892403621992,-6.0326388926050125,-2.819692679723022,1.15266470710528,0.19213818,-0.2429193,0.94152591,4.97476,-13.1999,-43.65886,69.0
1774822757.2078738,0.0001342296600341797,2026-03-29T22:19:17.207,2026-03-29T18:19:17.207,-33376.635,-46312.65,-85669.245,-50650.11,-12528.765,-17874.899999999998,6839.82,-44376.03,-2.156143948678034,-4.2253190035360655,-6.404944980246169,-5.600655660716816,-5.772134390598042,-3.7266643738530685,-1.0768068859443722,-1.988427003891818,0.19213818,-0.2429193,0.94152591,4.97476,-13.1999,-43.65886,69.0
1774822757.2137856,0.005911827087402344,2026-03-29T22:19:17.213,2026-03-29T18:19:17.213,-33373.305,-46303.65,-85683.78,-50681.07,-12557.609999999999,-17898.57,6818.58,-44397.674999999996,-4.044945771041392,-2.882163141291292,-3.266950341613195,-3.784699345096072,-3.378524014863656,0.7619640965039175,1.5214564689540808,-4.181281449851329,0.19213818,-0.2429193,0.94152591,4.97476,-13.1999,-43.65886,69.0
1774822757.213812,2.6464462280273438e-05,2026-03-29T22:19:17.213,2026-03-29T18:19:17.213,-33355.845,-46294.56,-85669.245,-50662.439999999995,-12540.24,-17889.344999999998,6797.384999999999,-44399.52,-4.199185978026648,0.10835972289742862,1.9341751409411165,0.11470444838894386,0.9025767002151435,5.354054169219968,3.6756643262637274,-4.644005401564071,0.19213818,-0.2429193,0.94152591,4.97476,-13.1999,-43.65886,69.0
1774822757.2156494,0.0018372535705566406,2026-03-29T22:19:17.215,2026-03-29T18:19:17.215,-33355.44,-46297.665,-85664.97,-50637.15,-12516.119999999999,-17870.579999999998,6801.3,-44398.979999999996,-2.6172839839788073,3.1627295484341817,6.456616531105954,4.055946952130729,4.890957748520699,7.714471157360802,4.177522217373924,-3.3092373766629164,0.19213818,-0.2429193,0.94152591,4.97476,-13.1999,-43.65886,69.0
1774822757.2156627,1.33514404296875e-05,2026-03-29T22:19:17.215,2026-03-29T18:19:17.215,-33382.799999999996,-46276.965,-85596.525,-50555.475,-12443.355,-17813.34,6834.78,-44425.17,-0.003264197662639222,4.614849066555338,7.760958791275395,5.91530649571327,6.474921392269438,6.435328599081331,2.57840160451261,-0.7830410425438846,0.19213818,-0.2429193,0.94152591,4.97476,-13.1999,-43.65886,69.0
1774822757.2212837,0.0056209564208984375,2026-03-29T22:19:17.221,2026-03-29T18:19:17.221,-33357.465,-46265.174999999996,-85605.20999999999,-50605.064999999995,-12502.26,-17869.41,6835.139999999999,-44412.479999999996,2.5509467512035946,3.6114479815894565,4.90330407212691,4.620136029797905,4.720688999962213,1.8366439359602138,-0.49926374287242536,1.9350177771326607,0.19213818,-0.2429193,0.94152591,4.97476,-13.1999,-43.65886,69.0
1774822757.2212994,1.5735626220703125e-05,2026-03-29T22:19:17.221,2026-03-29T18:19:17.221,-33342.075,-46282.409999999996,-85643.595,-50634.09,-12521.52,-17888.67,6811.875,-44401.86,4.017325773311584,0.5946786437170415,-0.8589728427937079,0.7589360561657299,0.4069141427711681,-4.0581348713918075,-3.6026533338760474,3.8391128598771114,0.19213818,-0.2429193,0.94152591,4.97476,-13.1999,-43.65886,69.0
1774822757.2239966,0.0026972293853759766,2026-03-29T22:19:17.223,2026-03-29T18:19:17.223,-33379.74,-46305.585,-85650.39,-50612.445,-12498.885,-17875.62,6769.9349999999995,-44437.229999999996,3.833619154844596,-2.894317476966271,-6.614203512949834,-3.6752529214417513,-4.316259731802913,-8.418229183010842,-5.14918352500548,4.266693835410573,0.19213818,-0.2429193,0.94152591,4.97476,-13.1999,-43.65886,69.0
1774822757.2240205,2.384185791015625e-05,2026-03-29T22:19:17.224,2026-03-29T18:19:17.224,-33403.815,-46323.18,-85654.125,-50589.09,-12476.789999999999,-17852.445,6769.304999999999,-44469.585,2.1055107404828526,-5.0028623283846585,-9.262241954194462,-6.3026950059512625,-6.997652538175281,-8.974340917430174,-4.242610125640487,3.103043348259553,0.19213818,-0.2429193,0.94152591,4.97476,-13.1999,-43.65886,69.0
1774822757.227956,0.003935575485229492,2026-03-29T22:19:17.227,2026-03-29T18:19:17.227,-33411.915,-46321.92,-85645.89,-50595.119999999995,-12483.72,-17853.434999999998,6786.63,-44468.189999999995,-0.4552092263975695,-4.542761165422455,-7.163399586074669,-5.620827054798215,-6.15278032901713,-5.194070584705542,-1.1800322143986655,0.7948312528683706,0.197936505,-0.238463745,0.95068116,8.042019999999999,-12.08592,-41.99552,69.0
1774822757.2279797,2.3603439331054688e-05,2026-03-29T22:19:17.227,2026-03-29T18:19:17.227,-33402.104999999996,-46294.92,-85643.37,-50643.54,-12530.385,-17884.89,6781.905,-44472.104999999996,-2.8204975822509137,-1.6437633818415212,-1.1012972774128127,-1.8479294288430934,-2.074567424633129,1.3433431103369171,2.632487679071427,-1.8144677956557047,0.197936505,-0.238463745,0.95068116,8.042019999999999,-12.08592,-41.99552,69.0
1774822757.2321625,0.0041828155517578125,2026-03-29T22:19:17.232,2026-03-29T18:19:17.232,-33390.945,-46295.595,-85640.12999999999,-50614.38,-12506.039999999999,-17870.085,6782.4,-44475.615,-4.048340486285603,2.2688612913870236,5.987825426819157,3.1213691425595504,3.252037946950472,7.608001623937883,5.340217733557758,-3.7709329566781453,0.197936505,-0.238463745,0.95068116,8.042019999999999,-12.08592,-41.99552,69.0
1774822757.232196,3.361701965332031e-05,2026-03-29T22:19:17.232,2026-03-29T18:19:17.232,-33396.255,-46306.845,-85639.00499999999,-50627.205,-12512.34,-17867.204999999998,6795.315,-44474.805,-3.6466978295992574,5.179439903293067,10.440248238792384,6.661058313145751,7.118795554225022,10.539738763473004,5.559178091368502,-4.33503818832891,0.197936505,-0.238463745,0.95068116,8.042019999999999,-12.08592,-41.99552,69.0
1774822757.238489,0.006292819976806641,2026-03-29T22:19:17.238,2026-03-29T18:19:17.238,-33383.115,-46300.365,-85649.715,-50653.89,-12540.33,-17894.204999999998,6785.325,-44473.77,-1.7654022172652362,5.518928567028043,9.751617374101913,6.79102803021784,7.472883942914277,8.555121683306089,3.091556428725112,-3.249476487325623,0.197936505,-0.238463745,0.95068116,8.042019999999999,-12.08592,-41.99552,69.0
1774822757.2385056,1.6689300537109375e-05,2026-03-29T22:19:17.238,2026-03-29T18:19:17.238,-33393.06,-46298.61,-85637.025,-50623.064999999995,-12514.095,-17878.5,6769.53,-44495.325,0.8558738411539579,3.000866075015247,3.9561593136791036,3.268384918643062,4.002896008130512,2.3933870019252708,-0.9359732026288842,-0.8601013927597069,0.197936505,-0.238463745,0.95068116,8.042019999999999,-12.08592,-41.99552,69.0
1774822757.2385178,1.2159347534179688e-05,2026-03-29T22:19:17.238,2026-03-29T18:19:17.238,-33388.244999999995,-46289.564999999995,-85629.19499999999,-50608.305,-12502.845,-17873.145,6773.264999999999,-44507.564999999995,3.1684486206420663,-1.1852222503151553,-4.250560491612304,-2.202620506177474,-1.6413832447747112,-5.147791859128485,-4.59821060662234,1.9686133146986453,0.197936505,-0.238463745,0.95068116,8.042019999999999,-12.08592,-41.99552,69.0
1774822757.2385225,4.76837158203125e-06,2026-03-29T22:19:17.238,2026-03-29T18:19:17.238,-33367.815,-46276.02,-85614.795,-50595.119999999995,-12494.744999999999,-17870.805,6791.085,-44502.21,4.224235048506194,-4.941335859749444,-10.771068019741083,-6.792022084050875,-6.6370674620587,-10.499626230719263,-6.110923528184255,4.141719114059358,0.197936505,-0.238463745,0.95068116,8.042019999999999,-12.08592,-41.99552,69.0
1774822757.2438948,0.005372285842895508,2026-03-29T22:19:17.243,2026-03-29T18:19:17.243,-33360.57,-46267.064999999995,-85599.675,-50575.455,-12471.66,-17845.965,6830.505,-44499.825,3.5604161079486527,-6.316109185539177,-12.15716321101614,-8.003142461548519,-8.40685588352449,-11.033083675951458,-4.717056350737568,4.745326593941244,0.197936505,-0.238463745,0.95068116,8.042019999999999,-12.08592,-41.99552,69.0
1774822757.2439198,2.5033950805664062e-05,2026-03-29T22:19:17.243,2026-03-29T18:19:17.243,-33365.159999999996,-46280.655,-85622.94,-50600.475,-12489.84,-17853.75,6828.705,-44507.205,1.405478620159158,-4.515326993740474,-7.423661801008179,-5.019057679087534,-5.952684456047129,-6.363505878356679,-1.0722552474135378,3.4342977038061497,0.197936505,-0.238463745,0.95068116,8.042019999999999,-12.08592,-41.99552,69.0
1774822757.2476292,0.0037093162536621094,2026-03-29T22:19:17.247,2026-03-29T18:19:17.247,-33388.83,-46305.09,-85654.17,-50634.09,-12519.09,-17869.364999999998,6777.719999999999,-44535.915,-1.387098702733663,-0.3458890006973743,1.3258032185204331,0.7851792038810361,-0.41234792804329506,1.4044596959007358,3.0694023441624454,0.6299198735222039,0.210021435,-0.22497501,0.959897445,7.065379999999999,-8.63716,-40.95784,69.0
1774822757.2476447,1.5497207641601562e-05,2026-03-29T22:19:17.247,2026-03-29T18:19:17.247,-33383.835,-46295.685,-85637.295,-50610.869999999995,-12498.029999999999,-17856.719999999998,6755.219999999999,-44553.6,-3.6674158573020774,4.149447208583832,9.835860063665542,6.472694661795715,5.469322166833072,8.638656583052212,5.71634920772657,-2.585464519176817,0.210021435,-0.22497501,0.959897445,7.065379999999999,-8.63716,-40.95784,69.0
1774822757.2517023,0.004057645797729492,2026-03-29T22:19:17.251,2026-03-29T18:19:17.251,-33360.03,-46273.095,-85605.84,-50579.325,-12468.645,-17836.695,6789.554999999999,-44551.665,-4.459663021911953,6.699400946632872,13.781760166889079,9.031277329707248,8.709320191972749,11.903103763933055,5.617433035787674,-4.872342532606753,0.210021435,-0.22497501,0.959897445,7.065379999999999,-8.63716,-40.95784,69.0
1774822757.2517183,1.5974044799804688e-05,2026-03-29T22:19:17.251,2026-03-29T18:19:17.251,-33376.905,-46295.369999999995,-85621.72499999999,-50580.854999999996,-12474.99,-17853.84,6761.745,-44565.21,-3.3840278498490686,5.953984229850307,10.972614150701245,6.963907802779964,7.609374356406199,9.614661185431641,2.867931637573577,-5.1941751164218335,0.210021435,-0.22497501,0.959897445,7.065379999999999,-8.63716,-40.95784,69.0
1774822757.2555568,0.0038385391235351562,2026-03-29T22:19:17.255,2026-03-29T18:19:17.255,-33403.229999999996,-46315.439999999995,-85648.275,-50621.715,-12513.869999999999,-17884.71,6765.615,-44582.759999999995,-0.8451373401819163,2.1937728984540485,2.5505209221767484,1.1453870761040534,2.651313528373167,2.822967742737808,-1.15632844780375,-3.298627302191918,0.210021435,-0.22497501,0.959897445,7.065379999999999,-8.63716,-40.95784,69.0
1774822757.2555802,2.3365020751953125e-05,2026-03-29T22:19:17.255,2026-03-29T18:19:17.255,-33374.655,-46299.6,-85671.72,-50663.88,-12560.31,-17925.39,6780.15,-44586.99,2.1097835269228202,-2.771802540258532,-7.4643383480922685,-5.5378055906838055,-3.709454342837525,-5.2763013250410085,-4.496631186620556,0.10904740171198614,0.210021435,-0.22497501,0.959897445,7.065379999999999,-8.63716,-40.95784,69.0
1774822757.2613683,0.005788087844848633,2026-03-29T22:19:17.261,2026-03-29T18:19:17.261,-33366.42,-46318.545,-85710.105,-50686.92,-12574.89,-17934.48,6785.1449999999995,-44588.07,4.2204418923260425,-6.482434188608928,-14.107620372377923,-9.62285575995951,-8.267147078271599,-10.86745506569429,-5.583410763714742,3.61164449289721,0.210021435,-0.22497501,0.959897445,7.065379999999999,-8.63716,-40.95784,69.0
1774822757.2613904,2.2172927856445312e-05,2026-03-29T22:19:17.261,2026-03-29T18:19:17.261,-33349.635,-46318.86,-85705.37999999999,-50678.595,-12565.664999999999,-17929.26,6772.995,-44578.755,4.556311042098519,-7.051937899286927,-13.947118429284306,-8.866339433695796,-8.693610264049683,-11.342008880389256,-3.992479880374416,5.6697488972618615,0.210021435,-0.22497501,0.959897445,7.065379999999999,-8.63716,-40.95784,69.0
1774822757.2639396,0.0025491714477539062,2026-03-29T22:19:17.263,2026-03-29T18:19:17.263,-33334.604999999996,-46292.67,-85663.8,-50661.9,-12554.369999999999,-17916.165,6763.86,-44573.174999999996,2.936184762765684,-4.127785752117348,-6.859480842467092,-3.4685609667502124,-4.7395024044701755,-6.539222332705884,-0.6128291087964244,5.310240819901057,0.210021435,-0.22497501,0.959897445,7.065379999999999,-8.63716,-40.95784,69.0
1774822757.2639706,3.0994415283203125e-05,2026-03-29T22:19:17.263,2026-03-29T18:19:17.263,-33353.865,-46290.284999999996,-85658.04,-50659.2,-12549.6,-17901.989999999998,6775.65,-44600.4,0.030241685742883915,0.9032448515800547,3.8140882739630846,3.9384805034827126,1.6159195148145578,1.2007365245226294,2.8419192595459446,2.5997351049657804,0.210021435,-0.22497501,0.959897445,7.065379999999999,-8.63716,-40.95784,69.0
1774822757.268596,0.0046253204345703125,2026-03-29T22:19:17.268,2026-03-29T18:19:17.268,-33417.36,-46305.765,-85647.19499999999,-50607.314999999995,-12490.02,-17847.945,6828.57,-44661.06,-2.9146590009024873,5.578935003496965,12.855349576114403,9.577804351819742,7.1572124265400845,8.18882722761295,4.713163470288919,-1.3334310022573623,0.220519455,-0.21398871,0.969418905,2.25848,-7.889419999999999,-41.38512,69.0
1774822757.268624,2.8133392333984375e-05,2026-03-29T22:19:17.268,2026-03-29T18:19:17.268,-33407.19,-46319.445,-85659.66,-50591.79,-12480.255,-17852.805,6813.8099999999995,-44671.14,-4.615726034618446,7.574429140985295,15.740285976994494,10.45870885660286,9.06939924735383,11.172669242763558,4.2123871877099655,-4.766912896244651,0.220519455,-0.21398871,0.969418905,2.25848,-7.889419999999999,-41.38512,69.0
1774822757.2877233,0.01909923553466797,2026-03-29T22:19:17.287,2026-03-29T18:19:17.287,-33398.28,-46310.805,-85636.575,-50604.705,-12488.31,-17844.12,6810.21,-44672.085,-4.323653689354611,5.863246178309108,10.918432856400102,5.962926458783583,6.382029127555548,8.879821647561899,1.7631048241690923,-6.149217815909958,0.220519455,-0.21398871,0.969418905,2.25848,-7.889419999999999,-41.38512,69.0
1774822757.287753,2.9802322387695312e-05,2026-03-29T22:19:17.287,2026-03-29T18:19:17.287,-33399.99,-46304.729999999996,-85642.37999999999,-50628.42,-12515.31,-17870.445,6785.46,-44683.244999999995,-2.1623265158295935,1.2445897325731092,0.6451056229477695,-1.7554219120092744,0.4743171533986201,2.5734011004179607,-1.2836153057936441,-4.816805523211631,0.220519455,-0.21398871,0.969418905,2.25848,-7.889419999999999,-41.38512,69.0
1774822757.287802,4.887580871582031e-05,2026-03-29T22:19:17.287,2026-03-29T18:19:17.287,-33412.815,-46316.835,-85659.25499999999,-50598.945,-12487.994999999999,-17862.12,6759.63,-44707.814999999995,0.9203972524629124,-4.033595602993547,-10.07974485860597,-8.802668564465694,-5.6265299445573715,-4.62925466779992,-3.3868977311835544,-1.3242965566912626,0.220519455,-0.21398871,0.969418905,2.25848,-7.889419999999999,-41.38512,69.0
1774822757.287814,1.1920928955078125e-05,2026-03-29T22:19:17.287,2026-03-29T18:19:17.287,-33377.94,-46305.09,-85660.29,-50632.155,-12519.99,-17882.82,6758.955,-44696.97,3.573548336660709,-7.376364787963249,-15.964286485172027,-11.515960672517023,-8.799318963880706,-9.312865311368968,-3.6073689031760314,2.7815721901176444,0.220519455,-0.21398871,0.969418905,2.25848,-7.889419999999999,-41.38512,69.0
1774822757.2878292,1.52587890625e-05,2026-03-29T22:19:17.287,2026-03-29T18:19:17.287,-33346.755,-46288.034999999996,-85649.715,-50660.82,-12555.449999999999,-17904.105,6771.87,-44683.515,4.646232978740842,-7.125036645633041,-14.057602236331057,-8.371397070172188,-7.436415494370812,-9.412348262089527,-2.0410126376669164,5.654919084865293,0.220519455,-0.21398871,0.969418905,2.25848,-7.889419999999999,-41.38512,69.0
1774822757.2878406,1.1444091796875e-05,2026-03-29T22:19:17.287,2026-03-29T18:19:17.287,-33365.25,-46274.625,-85596.20999999999,-50595.884999999995,-12500.324999999999,-17855.594999999998,6801.66,-44691.119999999995,3.698123325300171,-3.384197447082037,-5.243262814599975,-0.8342089633067923,-2.2727740927082887,-5.145174734173532,0.3115200215946744,5.996252223508077,0.220519455,-0.21398871,0.969418905,2.25848,-7.889419999999999,-41.38512,69.0
1774822757.2921896,0.0043489933013916016,2026-03-29T22:19:17.292,2026-03-29T18:19:17.292,-33375.465,-46271.295,-85589.28,-50583.78,-12490.515,-17848.665,6804.45,-44704.979999999996,1.1848274215465169,2.0215339224871824,6.168126587512513,7.320384171592499,3.9965888337033184,1.2032870497413097,2.141445608005727,3.6556920062629352,0.220519455,-0.21398871,0.969418905,2.25848,-7.889419999999999,-41.38512,69.0
1774822757.29221,2.0503997802734375e-05,2026-03-29T22:19:17.292,2026-03-29T18:19:17.292,-33365.52,-46280.564999999995,-85611.78,-50602.14,-12511.89,-17872.605,6796.71,-44704.08,-1.762755674247823,6.443248292658434,14.560695362221455,11.90272221502834,8.116441205581022,6.49206441149449,2.552640001159212,-0.29348823918303607,0.220519455,-0.21398871,0.969418905,2.25848,-7.889419999999999,-41.38512,69.0
1774822757.2922516,4.1484832763671875e-05,2026-03-29T22:19:17.292,2026-03-29T18:19:17.292,-33384.24,-46281.6,-85588.69499999999,-50558.445,-12465.045,-17830.305,6799.005,-44725.455,-3.8575126397929034,7.713756133676935,15.799035120301882,10.466623029460086,7.963815057372724,8.295952514940495,1.512878800073982,-4.05058261588221,0.23388612,-0.20825142,0.97228755,1.69386,-7.29428,-42.6517,69.0
1774822757.292258,6.4373016357421875e-06,2026-03-29T22:19:17.292,2026-03-29T18:19:17.292,-33375.104999999996,-46273.049999999996,-85579.965,-50565.06,-12465.855,-17824.454999999998,6804.36,-44728.83,-4.230357473221922,5.216533315026571,9.286490154497068,3.6158526791949903,3.652339493333094,6.0428627559865316,-0.1967011796561027,-5.921660946466643,0.23388612,-0.20825142,0.97228755,1.69386,-7.29428,-42.6517,69.0
1774822757.2922654,7.3909759521484375e-06,2026-03-29T22:19:17.292,2026-03-29T18:19:17.292,-33351.119999999995,-46265.49,-85597.37999999999,-50583.6,-12483.855,-17846.055,6802.0199999999995,-44723.79,-2.7971405193893664,0.18749242527246057,-1.7372788201388758,-5.23843166921442,-2.529728323071812,1.1726038791461528,-1.483122564311879,-5.099500421158358,0.23388612,-0.20825142,0.97228755,1.69386,-7.29428,-42.6517,69.0
1774822757.2922704,5.0067901611328125e-06,2026-03-29T22:19:17.292,2026-03-29T18:19:17.292,-33345.54,-46278.674999999996,-85627.215,-50610.645,-12504.24,-17860.5,6800.67,-44725.005,-0.2596771848218247,-4.899200739522505,-11.812114109910057,-11.578345927938178,-7.3193124836553425,-3.7133351427473533,-1.5953834855148894,-2.022403832713329,0.23388612,-0.20825142,0.97228755,1.69386,-7.29428,-42.6517,69.0
1774822757.3000398,0.007769346237182617,2026-03-29T22:19:17.300,2026-03-29T18:19:17.300,-33374.835,-46304.235,-85650.66,-50627.07,-12514.23,-17870.805,6795.855,-44739.494999999995,2.24317298646259,-7.554913660693053,-15.978563810957649,-12.08868220572514,-8.192129777522691,-6.230877640260803,-0.5544399906430857,1.8528494335255388,0.23388612,-0.20825142,0.97228755,1.69386,-7.29428,-42.6517,69.0
1774822757.3000607,2.09808349609375e-05,2026-03-29T22:19:17.300,2026-03-29T18:19:17.300,-33423.659999999996,-46333.979999999996,-85659.25499999999,-50603.13,-12491.46,-17861.13,6788.565,-44776.439999999995,3.6585314784005476,-6.5017623540656,-12.240895141455477,-6.392359921620335,-4.69336668524094,-5.394364491871256,0.8831714083852323,4.748441783004783,0.23388612,-0.20825142,0.97228755,1.69386,-7.29428,-42.6517,69.0
1774822757.300088,2.7179718017578125e-05,2026-03-29T22:19:17.300,2026-03-29T18:19:17.300,-33426.225,-46348.38,-85670.685,-50583.104999999996,-12468.33,-17850.51,6789.87,-44786.564999999995,3.4705730724207,-2.292745591600532,-2.53936053609862,2.6972185299169147,1.3158318324362497,-2.0072872558165114,1.7017950078937125,5.3956938040213025,0.23388612,-0.20825142,0.97228755,1.69386,-7.29428,-42.6517,69.0
1774822757.3000944,6.4373016357421875e-06,2026-03-29T22:19:17.300,2026-03-29T18:19:17.300,-33392.7,-46311.795,-85624.37999999999,-50565.195,-12468.465,-17860.23,6775.155,-44777.97,1.8819549701685039,2.9763697747636724,8.248951074810122,10.565947170798006,6.632459625209692,1.8948724248263573,1.2634394616758422,3.6034205586554084,0.23388612,-0.20825142,0.97228755,1.69386,-7.29428,-42.6517,69.0
1774822757.3065755,0.006481170654296875,2026-03-29T22:19:17.306,2026-03-29T18:19:17.306,-33365.43,-46252.439999999995,-85585.05,-50608.799999999996,-12526.74,-17898.975,6754.1849999999995,-44787.42,-0.33473771363919497,6.714060575240394,14.768838511550026,13.143582380183819,8.401780869418829,4.207692349291045,-0.27056620252339647,0.3037285618880766,0.23388612,-0.20825142,0.97228755,1.69386,-7.29428,-42.6517,69.0
1774822757.3065948,1.9311904907226562e-05,2026-03-29T22:19:17.306,2026-03-29T18:19:17.306,-33365.565,-46276.92,-85647.42,-50658.479999999996,-12551.31,-17897.13,6776.009999999999,-44798.13,-2.22037138942807,7.1142457961152115,13.862302510327506,9.010000058468544,5.637653563622118,3.882399649370752,-1.9907094804598244,-2.9291376981997916,0.23388612,-0.20825142,0.97228755,1.69386,-7.29428,-42.6517,69.0
1774822757.3066127,1.7881393432617188e-05,2026-03-29T22:19:17.306,2026-03-29T18:19:17.306,-33380.595,-46313.82,-85675.05,-50656.59,-12536.865,-17880.704999999998,6792.165,-44803.89,-3.05381698913638,4.03533642331873,6.116431646545747,0.17257710193264122,-0.2318222724382601,1.4151887033326103,-2.7525516643756354,-4.63953015892919,0.249572115,-0.20239206,0.97704828,3.0977799999999998,-6.31764,-39.43184,69.0
1774822757.3066208,8.106231689453125e-06,2026-03-29T22:19:17.306,2026-03-29T18:19:17.306,-33361.65,-46290.645,-85647.42,-50631.165,-12517.02,-17865.18,6791.3099999999995,-44806.229999999996,-2.624830875198916,-0.9534420622556194,-4.48262969154164,-8.90823858366302,-6.0929441595543565,-1.5329639331956413,-1.8709735297849077,-4.15854553129077,0.249572115,-0.20239206,0.97704828,3.0977799999999998,-6.31764,-39.43184,69.0
1774822757.3131752,0.006554365158081055,2026-03-29T22:19:17.313,2026-03-29T18:19:17.313,-33350.445,-46280.52,-85637.34,-50611.77,-12501.404999999999,-17862.39,6794.6849999999995,-44807.445,-1.253268763767046,-5.371164170723382,-12.595702423626122,-13.571649686515805,-8.780378354897875,-3.1430574001638254,0.40509517653055077,-1.8668008955900737,0.249572115,-0.20239206,0.97704828,3.0977799999999998,-6.31764,-39.43184,69.0
1774822757.3131952,2.002716064453125e-05,2026-03-29T22:19:17.313,2026-03-29T18:19:17.313,-33372.0,-46297.845,-85659.12,-50629.005,-12516.57,-17879.355,6793.11,-44824.455,0.4189324130752587,-7.062794791037356,-14.227721578086518,-11.348200795645099,-6.765013075040359,-2.494212664914071,2.9332377848084477,1.0522815430678634,0.249572115,-0.20239206,0.97704828,3.0977799999999998,-6.31764,-39.43184,69.0
1774822757.3267918,0.013596534729003906,2026-03-29T22:19:17.326,2026-03-29T18:19:17.326,-33395.174999999996,-46325.655,-85689.675,-50656.095,-12540.195,-17894.88,6782.49,-44844.659999999996,1.7366395842647133,-5.256017230405649,-8.709759383612935,-3.2626915040521363,-1.0034963033262232,-0.07783256097275264,4.250277814089128,3.222290159775732,0.249572115,-0.20239206,0.97704828,3.0977799999999998,-6.31764,-39.43184,69.0
1774822757.326816,2.4318695068359375e-05,2026-03-29T22:19:17.326,2026-03-29T18:19:17.326,-33343.065,-46309.455,-85679.145,-50638.365,-12530.925,-17892.225,6789.6449999999995,-44821.845,2.2887422951425247,-0.9165600732627789,1.0237536339819975,6.637091859985973,5.514688837091727,2.512309078541806,3.390036475966898,3.7326183717075696,0.249572115,-0.20239206,0.97704828,3.0977799999999998,-6.31764,-39.43184,69.0
1774822757.3268592,4.315376281738281e-05,2026-03-29T22:19:17.326,2026-03-29T18:19:17.326,-33312.78,-46289.924999999996,-85660.065,-50617.034999999996,-12508.064999999999,-17876.52,6820.11,-44800.47,2.0120581853361346,3.7624996726093305,9.978759835296328,13.309170096102285,9.30818589353023,3.5341183879542264,0.49907089783792774,2.5263107438764005,0.249572115,-0.20239206,0.97704828,3.0977799999999998,-6.31764,-39.43184,69.0
1774822757.3268695,1.0251998901367188e-05,2026-03-29T22:19:17.326,2026-03-29T18:19:17.326,-33390.09,-46289.205,-85609.575,-50577.84,-12483.404999999999,-17867.7,6791.804999999999,-44849.79,1.131855218271365,6.4691849509049595,13.659721103992464,13.284760835428607,8.241520147041001,2.153297724503232,-3.1157097011720793,0.3487169434020103,0.249572115,-0.20239206,0.97704828,3.0977799999999998,-6.31764,-39.43184,69.0
1774822757.3268812,1.1682510375976562e-05,2026-03-29T22:19:17.326,2026-03-29T18:19:17.326,-33412.635,-46296.45,-85621.77,-50585.534999999996,-12494.16,-17880.524999999998,6760.259999999999,-44880.165,0.008183058024839391,5.918115177194914,10.332572683284235,6.466195702046756,2.6971003672940985,-1.0042059071878418,-5.583583547679073,-1.68503962903301,0.249572115,-0.20239206,0.97704828,3.0977799999999998,-6.31764,-39.43184,69.0
1774822757.3268895,8.344650268554688e-06,2026-03-29T22:19:17.326,2026-03-29T18:19:17.326,-33408.99,-46314.405,-85664.52,-50658.075,-12550.949999999999,-17921.565,6753.735,-44883.765,-1.0154588348254077,2.46394208030057,1.8503864582025118,-3.7746116171845716,-4.550839581290214,-4.136809988340331,-5.435769401955314,-2.6617235622806863,0.249572115,-0.20239206,0.97704828,3.0977799999999998,-6.31764,-39.43184,69.0
1774822757.334214,0.0073244571685791016,2026-03-29T22:19:17.334,2026-03-29T18:19:17.334,-33389.055,-46317.78,-85675.635,-50656.14,-12543.345,-17903.925,6783.075,-44872.02,-1.695104995186767,-2.1112448357747757,-7.354955096115874,-12.268607812375008,-9.725334871970444,-5.258896916066322,-2.442429100449637,-2.2871057702043265,0.25476009,-0.20117136,0.981870045,1.46496,-5.7835399999999995,-37.60064,69.0
1774822757.3342934,7.939338684082031e-05,2026-03-29T22:19:17.334,2026-03-29T18:19:17.334,-33367.77,-46318.229999999996,-85682.7,-50631.795,-12516.119999999999,-17875.44,6774.929999999999,-44863.064999999995,-1.8955915063670747,-5.5139980981099335,-12.574335043474955,-14.660311234934783,-10.002018079436262,-3.3657732875873716,2.1433764284068815,-0.9545090204202418,0.25476009,-0.20117136,0.981870045,1.46496,-5.7835399999999995,-37.60064,69.0
1774822757.334468,0.00017452239990234375,2026-03-29T22:19:17.334,2026-03-29T18:19:17.334,-33381.63,-46302.84,-85652.45999999999,-50622.795,-12507.435,-17860.23,6797.16,-44880.525,-1.5693474726300192,-6.0890162798755805,-11.225409344807879,-9.636411650276035,-5.022581915792091,0.8821807551478427,6.112352867840908,0.5376406353374101,0.25476009,-0.20117136,0.981870045,1.46496,-5.7835399999999995,-37.60064,69.0
1774822757.334489,2.1219253540039062e-05,2026-03-29T22:19:17.334,2026-03-29T18:19:17.334,-33378.435,-46287.225,-85624.37999999999,-50606.729999999996,-12499.875,-17858.52,6789.735,-44884.665,-0.7543844933472852,-3.6255878048659818,-4.1330323037553995,0.3667694615052777,2.8345041669092526,5.373411112871116,7.373992968493293,1.4418037806432238,0.25476009,-0.20117136,0.981870045,1.46496,-5.7835399999999995,-37.60064,69.0
1774822757.3381371,0.003648042678833008,2026-03-29T22:19:17.338,2026-03-29T18:19:17.338,-33380.82,-46299.96,-85626.045,-50563.979999999996,-12453.435,-17827.38,6805.844999999999,-44882.369999999995,0.39470033320250525,0.572476310757262,4.94996306722984,10.352690757094566,9.599551703899513,7.597427073261899,5.052048056006445,1.437816100938445,0.25476009,-0.20117136,0.981870045,1.46496,-5.7835399999999995,-37.60064,69.0
1774822757.3381634,2.6226043701171875e-05,2026-03-29T22:19:17.338,2026-03-29T18:19:17.338,-33380.64,-46286.145,-85609.17,-50581.125,-12476.43,-17848.17,6820.514999999999,-44883.27,1.5780893128050701,4.371606302101964,11.311259470825217,15.265915274204907,11.716985050170353,6.009428370627826,0.028327472253182745,0.7391223724672358,0.25476009,-0.20117136,0.981870045,1.46496,-5.7835399999999995,-37.60064,69.0
1774822757.3421726,0.004009246826171875,2026-03-29T22:19:17.342,2026-03-29T18:19:17.342,-33365.07,-46277.055,-85621.275,-50630.985,-12522.645,-17882.55,6795.405,-44875.215,2.3835143818780073,5.88990752928636,11.70990020264976,12.5496652263543,7.896657312536617,0.9789410287581745,-5.38333899662636,-0.10246499551275384,0.25476009,-0.20117136,0.981870045,1.46496,-5.7835399999999995,-37.60064,69.0
1774822757.3421977,2.5033950805664062e-05,2026-03-29T22:19:17.342,2026-03-29T18:19:17.342,-33364.755,-46284.03,-85627.575,-50604.119999999995,-12501.494999999999,-17878.41,6771.96,-44876.475,2.414551377847691,4.427796760915059,6.020043554883845,3.4655999267826707,-0.14665111816777424,-5.224284690466201,-8.517474640310315,-0.5584310469105463,0.25476009,-0.20117136,0.981870045,1.46496,-5.7835399999999995,-37.60064,69.0
1774822757.3455606,0.003362894058227539,2026-03-29T22:19:17.345,2026-03-29T18:19:17.345,-33363.9,-46292.895,-85638.285,-50603.04,-12495.33,-17868.555,6770.969999999999,-44874.09,1.4845303778230545,0.7880524963625652,-2.7434412876263394,-7.501325000624008,-8.473948525688924,-9.468750664057502,-7.680487283275884,-0.4338721585447175,0.25476009,-0.20117136,0.981870045,1.46496,-5.7835399999999995,-37.60064,69.0
1774822757.3455944,3.3855438232421875e-05,2026-03-29T22:19:17.345,2026-03-29T18:19:17.345,-33356.295,-46303.47,-85663.305,-50652.765,-12531.645,-17876.745,6796.71,-44856.36,-0.21819851659291356,-3.15974326235574,-10.010937640563188,-14.867356893849855,-12.861892344940365,-9.342120032720798,-3.055455374130964,0.04893544928680796,0.25476009,-0.20117136,0.981870045,1.46496,-5.7835399999999995,-37.60064,69.0
1774822757.3477952,0.0022008419036865234,2026-03-29T22:19:17.347,2026-03-29T18:19:17.347,-33371.46,-46296.585,-85642.47,-50637.869999999995,-12524.039999999999,-17871.344999999998,6816.96,-44860.994999999995,-2.1067176097894458,-5.435752554929429,-12.02490065810506,-14.895071365045451,-10.941104718832346,-4.475928373565822,3.2913436774141083,0.42988476119902375,0.24218688,-0.19641063,0.970761675,3.2045999999999997,-9.430679999999999,-40.24062,69.0
1774822757.3478072,1.1920928955078125e-05,2026-03-29T22:19:17.347,2026-03-29T18:19:17.347,-33390.315,-46287.945,-85615.965,-50594.445,-12484.484999999999,-17843.399999999998,6828.12,-44883.945,-3.3760650446089957,-4.939013816922919,-7.766857261237622,-7.482653181032431,-3.451051762703627,3.0973211353954646,8.34659542327254,0.33434026092874414,0.24218688,-0.19641063,0.970761675,3.2045999999999997,-9.430679999999999,-40.24062,69.0
1774822757.3521595,0.0043523311614990234,2026-03-29T22:19:17.352,2026-03-29T18:19:17.352,-33383.88,-46292.445,-85621.14,-50584.994999999995,-12473.414999999999,-17838.945,6806.88,-44882.189999999995,-3.346312932068709,-1.9761866758279534,0.5380679740186891,3.755247106584568,6.044179533797086,9.802544409986632,9.598518862404338,-0.26153197703125636,0.24218688,-0.19641063,0.970761675,3.2045999999999997,-9.430679999999999,-40.24062,69.0
1774822757.352186,2.6464462280273438e-05,2026-03-29T22:19:17.352,2026-03-29T18:19:17.352,-33389.46,-46301.67,-85633.92,-50611.814999999995,-12500.055,-17867.43,6774.795,-44883.27,-1.8222908915131648,1.9222783631004197,8.584580581548718,13.264300014017838,12.86938678824336,12.228489310042482,6.293512596329716,-0.9896798968882697,0.24218688,-0.19641063,0.970761675,3.2045999999999997,-9.430679999999999,-40.24062,69.0
1774822757.3559046,0.0037186145782470703,2026-03-29T22:19:17.355,2026-03-29T18:19:17.355,-33366.015,-46292.939999999995,-85640.44499999999,-50621.939999999995,-12513.555,-17878.815,6766.335,-44877.645,0.7185800189654956,4.79050555963013,12.209485555107747,16.304553766222202,13.548936367241991,8.859270372823126,-0.13149783030758463,-1.3060647553445444,0.24218688,-0.19641063,0.970761675,3.2045999999999997,-9.430679999999999,-40.24062,69.0
1774822757.3559308,2.6226043701171875e-05,2026-03-29T22:19:17.355,2026-03-29T18:19:17.355,-33359.94,-46285.244999999995,-85616.955,-50574.96,-12467.789999999999,-17838.405,6793.2,-44883.945,3.243392286995407,5.214443436438799,9.528589384805292,11.311458517302206,7.568248145234977,0.9532944938015978,-6.68163246701675,-0.8411295609451466,0.24218688,-0.19641063,0.970761675,3.2045999999999997,-9.430679999999999,-40.24062,69.0
1774822757.3600852,0.0041544437408447266,2026-03-29T22:19:17.360,2026-03-29T18:19:17.360,-33366.78,-46277.685,-85604.44499999999,-50576.534999999996,-12460.994999999999,-17820.495,6808.455,-44895.24,4.5796895193931295,3.0234874281103727,1.8973752291029966,0.6879205133476631,-2.3036734934026986,-7.918344611578869,-10.219232254584528,0.3249481677976754,0.24218688,-0.19641063,0.970761675,3.2045999999999997,-9.430679999999999,-40.24062,69.0
1774822757.3601067,2.1457672119140625e-05,2026-03-29T22:19:17.360,2026-03-29T18:19:17.360,-33381.18,-46303.29,-85646.565,-50616.18,-12504.645,-17869.815,6807.285,-44900.955,3.9651812792125796,-0.6495445813554372,-6.787235291386289,-10.36827213483385,-11.315382887021581,-13.508672836466072,-8.984279657003324,1.639086813426642,0.24218688,-0.19641063,0.970761675,3.2045999999999997,-9.430679999999999,-40.24062,69.0
1774822757.3649068,0.004800081253051758,2026-03-29T22:19:17.364,2026-03-29T18:19:17.364,-33392.205,-46325.07,-85676.625,-50639.31,-12530.07,-17898.12,6781.905,-44910.045,1.471268126150104,-3.9553275253513323,-12.078864780021146,-16.421647180665083,-15.037230726574043,-12.945596917358143,-3.4757580672322295,2.3424626879507784,0.24218688,-0.19641063,0.970761675,3.2045999999999997,-9.430679999999999,-40.24062,69.0
1774822757.3649335,2.6702880859375e-05,2026-03-29T22:19:17.364,2026-03-29T18:19:17.364,-33381.045,-46318.049999999996,-85676.265,-50672.025,-12560.85,-17915.94,6777.9,-44905.814999999995,-1.930612325228535,-5.257023774883899,-11.247666518235265,-14.475825037896639,-11.543169778828291,-6.198564405262221,3.7496789757427647,1.8970837264172953,0.24218688,-0.19641063,0.970761675,3.2045999999999997,-9.430679999999999,-40.24062,69.0
1774822757.368152,0.003218412399291992,2026-03-29T22:19:17.368,2026-03-29T18:19:17.368,-33388.2,-46301.67,-85636.845,-50631.884999999995,-12519.539999999999,-17873.954999999998,6787.3949999999995,-44915.04,-4.7375348486128335,-3.935215707394175,-4.668989459339747,-5.449039234486095,-2.3932043903716695,3.7845761187767066,9.28049373696462,0.3365473088829977,0.235167855,-0.18835401000000002,0.9625829850000001,9.59854,-10.72778,-35.5558,69.0
1774822757.3681772,2.5272369384765625e-05,2026-03-29T22:19:17.368,2026-03-29T18:19:17.368,-33374.385,-46279.755,-85602.78,-50586.525,-12483.81,-17848.395,6789.465,-44916.165,-5.584489110689087,-0.6751418177839734,4.364284533159177,6.275034185107892,8.079104580388078,12.385892401338293,10.481288382233625,-1.6706750758667288,0.235167855,-0.18835401000000002,0.9625829850000001,9.59854,-10.72778,-35.5558,69.0
1774822757.3719225,0.0037453174591064453,2026-03-29T22:19:17.371,2026-03-29T18:19:17.371,-33368.76,-46291.994999999995,-85634.685,-50605.47,-12498.975,-17872.469999999998,6793.875,-44911.755,-3.9141328238199513,2.8933010820153084,11.303449564531688,14.99382524674969,14.840543454657363,15.480325300644338,6.763387377201801,-3.1113915680796724,0.235167855,-0.18835401000000002,0.9625829850000001,9.59854,-10.72778,-35.5558,69.0
1774822757.3719442,2.1696090698242188e-05,2026-03-29T22:19:17.371,2026-03-29T18:19:17.371,-33373.755,-46305.18,-85652.86499999999,-50636.25,-12531.689999999999,-17906.67,6788.16,-44917.064999999995,-0.31584622094301046,5.011746819663619,12.635178286903816,16.470224027255576,14.591046923007168,11.42811384526959,-0.12390837584254805,-3.1436626959406513,0.235167855,-0.18835401000000002,0.9625829850000001,9.59854,-10.72778,-35.5558,69.0
1774822757.3759618,0.00401759147644043,2026-03-29T22:19:17.375,2026-03-29T18:19:17.375,-33384.78,-46317.645,-85669.515,-50642.82,-12538.439999999999,-17918.91,6761.25,-44931.015,3.6628877954582806,4.6562689825854156,7.647324753894009,9.989980416403275,7.373175265439834,1.9281912509532873,-6.926377115813939,-1.5742457875161253,0.235167855,-0.18835401000000002,0.9625829850000001,9.59854,-10.72778,-35.5558,69.0
1774822757.375984,2.2172927856445312e-05,2026-03-29T22:19:17.375,2026-03-29T18:19:17.375,-33375.015,-46315.395,-85671.94499999999,-50644.89,-12537.81,-17914.545,6739.2,-44929.619999999995,6.1846108986327675,2.0249618699374463,-1.2131934430747122,-1.3062598078184,-3.426229793062478,-8.705806285728938,-10.440896302722571,0.9675963311214227,0.235167855,-0.18835401000000002,0.9625829850000001,9.59854,-10.72778,-35.5558,69.0
1774822757.380025,0.004040956497192383,2026-03-29T22:19:17.380,2026-03-29T18:19:17.380,-33335.055,-46296.9,-85678.965,-50650.965,-12546.765,-17928.09,6732.855,-44908.155,5.980046821196143,-1.5786053369838915,-9.561464308563869,-11.964051909386498,-12.686784676626106,-15.532156840426868,-9.042250134641234,3.280818788400979,0.235167855,-0.18835401000000002,0.9625829850000001,9.59854,-10.72778,-35.5558,69.0
1774822757.3800583,3.337860107421875e-05,2026-03-29T22:19:17.380,2026-03-29T18:19:17.380,-33360.75,-46291.86,-85632.56999999999,-50587.2,-12483.09,-17867.969999999998,6769.9349999999995,-44920.125,2.9912916320815084,-4.39592090085162,-13.256317879931824,-16.864289924079575,-16.001511285987345,-15.302505201077816,-3.444917045799232,4.168939686797663,0.235167855,-0.18835401000000002,0.9625829850000001,9.59854,-10.72778,-35.5558,69.0
1774822757.3921998,0.01214146614074707,2026-03-29T22:19:17.392,2026-03-29T18:19:17.392,-33403.86,-46304.505,-85624.155,-50609.025,-12493.529999999999,-17851.995,6823.9349999999995,-44937.854999999996,-1.5275138409746656,-5.07135434595003,-10.452032281727524,-13.686395349164965,-11.781808281291143,-8.016496696782301,3.661538686636309,3.061705426893912,0.235167855,-0.18835401000000002,0.9625829850000001,9.59854,-10.72778,-35.5558,69.0
1774822757.392234,3.4332275390625e-05,2026-03-29T22:19:17.392,2026-03-29T18:19:17.392,-33374.79,-46294.515,-85636.935,-50630.895,-12516.705,-17875.53,6802.514999999999,-44931.6,-5.534722528223887,-3.298991551514163,-2.504457442471563,-3.9982197030007636,-2.0116123980552945,3.038209148263593,8.917213641858828,0.3582592285232914,0.235167855,-0.18835401000000002,0.9625829850000001,9.59854,-10.72778,-35.5558,69.0
1774822757.3922603,2.6226043701171875e-05,2026-03-29T22:19:17.392,2026-03-29T18:19:17.392,-33383.79,-46292.4,-85629.23999999999,-50607.405,-12496.185,-17862.434999999998,6789.195,-44942.625,-7.132696192462419,0.04753868971587419,6.706551769680237,7.534698235314562,8.703742499976407,12.79318557524085,9.89824578517056,-2.7066427643873685,0.2331537,-0.184386735,0.967465785,8.743979999999999,-10.16316,-33.28206,69.0
1774822757.3922727,1.239776611328125e-05,2026-03-29T22:19:17.392,2026-03-29T18:19:17.392,-33382.125,-46287.405,-85626.62999999999,-50589.54,-12476.295,-17835.84,6791.175,-44951.13,-5.477203775737967,3.3525538556957453,12.690289626302013,15.414092667251746,15.329291544769534,16.751577891810587,6.249029719628637,-4.634691589539222,0.2331537,-0.184386735,0.967465785,8.743979999999999,-10.16316,-33.28206,69.0
1774822757.3922865,1.3828277587890625e-05,2026-03-29T22:19:17.392,2026-03-29T18:19:17.392,-33370.29,-46278.99,-85614.84,-50576.13,-12468.645,-17836.92,6768.405,-44950.32,-1.224231636319613,5.041195441125978,12.54238476741717,15.940100839123218,14.780008328966755,13.080829540696547,-0.1947806265698789,-4.405685462499323,0.2331537,-0.184386735,0.967465785,8.743979999999999,-10.16316,-33.28206,69.0
1774822757.3922982,1.1682510375976562e-05,2026-03-29T22:19:17.392,2026-03-29T18:19:17.392,-33381.18,-46297.08,-85631.535,-50574.015,-12459.24,-17829.09,6768.045,-44954.415,3.7222945464083117,4.327280639935641,6.347790345222615,8.944916967865913,7.3574200919331165,3.4631668160602813,-6.331314868646662,-2.0179164505132037,0.2331537,-0.184386735,0.967465785,8.743979999999999,-10.16316,-33.28206,69.0
1774822757.397719,0.005420684814453125,2026-03-29T22:19:17.397,2026-03-29T18:19:17.397,-33396.525,-46344.915,-85682.925,-50581.485,-12456.99,-17831.61,6798.554999999999,-44951.174999999996,7.0693278075702235,1.572462953355007,-2.884903227426205,-2.1812976562289457,-3.425340314781433,-7.691477993026331,-9.29837604477077,1.458812283158796,0.2331537,-0.184386735,0.967465785,8.743979999999999,-10.16316,-33.28206,69.0
1774822757.397744,2.5033950805664062e-05,2026-03-29T22:19:17.397,2026-03-29T18:19:17.397,-33380.28,-46312.38,-85654.665,-50639.58,-12524.4,-17878.77,6836.219999999999,-44937.765,7.20971720628312,-1.9038122467459033,-10.705962845673147,-12.151636470083728,-12.525737807854199,-15.29422371524566,-7.823496630356136,4.367582544185805,0.2331537,-0.184386735,0.967465785,8.743979999999999,-10.16316,-33.28206,69.0
1774822757.3999724,0.0022284984588623047,2026-03-29T22:19:17.399,2026-03-29T18:19:17.399,-33354.99,-46283.445,-85645.8,-50662.215,-12556.439999999999,-17915.579999999998,6815.205,-44930.384999999995,4.0040284079588675,-4.461148440301561,-13.384222289523317,-16.30846316254113,-15.746756375748996,-15.923590487042246,-2.7748288716718164,5.264445904517615,0.2331537,-0.184386735,0.967465785,8.743979999999999,-10.16316,-33.28206,69.0
1774822757.39999,1.7642974853515625e-05,2026-03-29T22:19:17.399,2026-03-29T18:19:17.399,-33360.345,-46285.02,-85643.50499999999,-50624.729999999996,-12513.285,-17880.795,6803.37,-44934.615,-1.1154952681624062,-4.912549889105109,-9.689496492599384,-12.80100715223602,-11.678348578257154,-9.376403521245074,3.327761435621591,3.643307794832881,0.2331537,-0.184386735,0.967465785,8.743979999999999,-10.16316,-33.28206,69.0
1774822757.4041219,0.004131793975830078,2026-03-29T22:19:17.404,2026-03-29T18:19:17.404,-33384.195,-46320.165,-85665.78,-50584.86,-12482.64,-17879.085,6776.099999999999,-44950.95,-5.787658040157397,-3.071053833627364,-1.4457317889560966,-3.3960261859223206,-2.3050964239174663,1.2845038020333224,7.573378675959206,0.21848984018108814,0.2331537,-0.184386735,0.967465785,8.743979999999999,-10.16316,-33.28206,69.0
1774822757.4041412,1.9311904907226562e-05,2026-03-29T22:19:17.404,2026-03-29T18:19:17.404,-33400.665,-46335.735,-85666.14,-50574.104999999996,-12471.93,-17866.079999999998,6766.2,-44962.92,-7.822017983474304,0.18063535532179242,7.387386999957437,7.425928912627716,7.976031903471812,11.183233358771037,8.060294807738519,-3.391183915181058,0.2331537,-0.184386735,0.967465785,8.743979999999999,-10.16316,-33.28206,69.0
1774822757.4116669,0.00752568244934082,2026-03-29T22:19:17.411,2026-03-29T18:19:17.411,-33392.61,-46309.905,-85647.555,-50643.405,-12522.689999999999,-17867.88,6792.884999999999,-44952.795,-6.238481438604119,3.3185800769730567,12.634498533375396,14.620588466569025,14.435263057454032,15.885885831140266,4.7569980455791825,-5.436452488686162,0.2294916,-0.17785599,0.9716772,4.8069,-9.2323,-32.56484,69.0
1774822757.411692,2.5033950805664062e-05,2026-03-29T22:19:17.411,2026-03-29T18:19:17.411,-33375.869999999995,-46265.4,-85602.51,-50618.744999999995,-12507.164999999999,-17855.415,6797.384999999999,-44954.775,-1.747688030998309,4.894072858440006,11.88765575297855,14.93758563808582,14.195559242229198,13.403282554396093,-0.5698080704021067,-4.895667627288061,0.2294916,-0.17785599,0.9716772,4.8069,-9.2323,-32.56484,69.0
1774822757.4117167,2.47955322265625e-05,2026-03-29T22:19:17.411,2026-03-29T18:19:17.411,-33382.034999999996,-46273.994999999995,-85599.98999999999,-50594.534999999996,-12485.97,-17848.395,6798.96,-44965.845,3.5667505029854825,4.200742284795952,5.607046663008545,8.381171926770289,7.51013504524879,5.0292824504755265,-5.287446925347467,-1.9914935326550338,0.2294916,-0.17785599,0.9716772,4.8069,-9.2323,-32.56484,69.0
1774822757.411724,7.3909759521484375e-06,2026-03-29T22:19:17.411,2026-03-29T18:19:17.411,-33388.695,-46306.35,-85641.705,-50623.784999999996,-12513.824999999999,-17879.535,6751.44,-44970.525,7.222626684331858,1.586450808228445,-3.1608687315193857,-1.8777544826031356,-2.4324940871275613,-5.336250556671221,-7.202285006841016,1.8975183763430232,0.2294916,-0.17785599,0.9716772,4.8069,-9.2323,-32.56484,69.0
1774822757.4180071,0.0062830448150634766,2026-03-29T22:19:17.418,2026-03-29T18:19:17.418,-33384.015,-46316.43,-85677.66,-50666.13,-12553.515,-17915.175,6736.05,-44968.365,7.510870945398997,-1.7250182408911137,-10.277391535919419,-11.049391298787452,-11.043299841312779,-13.024297420846713,-5.588678511314236,4.897109083636583,0.2294916,-0.17785599,0.9716772,4.8069,-9.2323,-32.56484,69.0
1774822757.4180288,2.1696090698242188e-05,2026-03-29T22:19:17.418,2026-03-29T18:19:17.418,-33394.229999999996,-46310.85,-85670.28,-50657.625,-12545.955,-17907.344999999998,6742.844999999999,-44976.825,4.305805208617212,-4.2097696662178254,-12.478257495912013,-14.970813056316276,-14.462121505420576,-14.718587888177673,-1.4551542442727599,5.550323760173977,0.2294916,-0.17785599,0.9716772,4.8069,-9.2323,-32.56484,69.0
1774822757.420657,0.0026280879974365234,2026-03-29T22:19:17.420,2026-03-29T18:19:17.420,-33381.765,-46294.965,-85647.285,-50626.259999999995,-12514.814999999999,-17877.239999999998,6755.759999999999,-44975.564999999995,-0.8753452195569357,-4.745276206680497,-8.873176059873638,-11.992892327282785,-11.288615141432876,-9.889582798334212,3.044683266300246,3.534241735209806,0.2294916,-0.17785599,0.9716772,4.8069,-9.2323,-32.56484,69.0
1774822757.4206927,3.5762786865234375e-05,2026-03-29T22:19:17.420,2026-03-29T18:19:17.420,-33371.729999999996,-46296.27,-85644.495,-50618.52,-12506.445,-17867.34,6776.775,-44963.909999999996,-5.594040889046942,-3.1151021861247274,-1.289320249173519,-3.655273702390995,-3.139211225539625,-0.9194742537058584,5.725728076036268,-0.17603257023845756,0.2294916,-0.17785599,0.9716772,4.8069,-9.2323,-32.56484,69.0
1774822757.424046,0.0033533573150634766,2026-03-29T22:19:17.424,2026-03-29T18:19:17.424,-33390.54,-46320.119999999995,-85666.14,-50636.835,-12526.47,-17889.75,6803.775,-44971.47,-7.64820502353272,-0.09152744577073464,6.663245604975317,6.115763463560686,6.181259500081756,8.08178691009758,5.436448027420649,-3.781001512830795,0.2294916,-0.17785599,0.9716772,4.8069,-9.2323,-32.56484,69.0
1774822757.4240668,2.0742416381835938e-05,2026-03-29T22:19:17.424,2026-03-29T18:19:17.424,-33398.1,-46327.59,-85674.465,-50648.805,-12536.189999999999,-17897.895,6820.605,-44987.04,-6.111726940683544,2.932579611462372,11.322864373849521,12.866452575986584,12.466574635025164,13.176769833892964,2.554162855637973,-5.5368442131659865,0.2294916,-0.17785599,0.9716772,4.8069,-9.2323,-32.56484,69.0
1774822757.4281268,0.004060029983520508,2026-03-29T22:19:17.428,2026-03-29T18:19:17.428,-33377.94,-46311.03,-85657.455,-50643.27,-12530.88,-17891.145,6806.295,-44984.43,-1.7594606632547287,4.5864866518722405,10.668774352090157,13.647115571251225,13.010762581554708,12.33048724715873,-1.3028270943568176,-4.6081056350931435,0.228698145,-0.16833453,0.970517535,-1.15976,-7.52318,-31.45086,69.0
1774822757.4281569,3.0040740966796875e-05,2026-03-29T22:19:17.428,2026-03-29T18:19:17.428,-33358.994999999995,-46294.83,-85642.92,-50612.49,-12502.755,-17866.8,6800.58,-44980.244999999995,3.320827781149088,4.142377456751359,5.190386260309901,8.289720940509705,7.763763593088611,6.206788250286596,-4.159565030915332,-1.4719633817478317,0.228698145,-0.16833453,0.970517535,-1.15976,-7.52318,-31.45086,69.0
1774822757.4321225,0.003965616226196289,2026-03-29T22:19:17.432,2026-03-29T18:19:17.432,-33341.895,-46273.14,-85627.395,-50594.354999999996,-12483.585,-17853.255,6802.469999999999,-44977.994999999995,6.736030747146434,1.8337858626278791,-2.435845684978407,-0.6150329893498984,-0.7466084966618515,-2.2705055616565297,-4.6904140551146805,2.3244742323320278,0.228698145,-0.16833453,0.970517535,-1.15976,-7.52318,-31.45086,69.0
1774822757.4321463,2.384185791015625e-05,2026-03-29T22:19:17.432,2026-03-29T18:19:17.432,-33349.5,-46280.744999999995,-85639.95,-50622.615,-12516.21,-17891.415,6777.315,-44984.88,6.925479574080918,-1.266512225417321,-8.662151937788822,-8.978005567699267,-8.63898976385484,-9.32373248773635,-2.835666822609987,4.931124813904245,0.228698145,-0.16833453,0.970517535,-1.15976,-7.52318,-31.45086,69.0
1774822757.4704664,0.038320064544677734,2026-03-29T22:19:17.470,2026-03-29T18:19:17.470,-33378.165,-46303.244999999995,-85648.995,-50617.17,-12513.914999999999,-17896.5,6763.094999999999,-45007.83,3.8829827563379373,-3.7458122472651803,-10.727650184944457,-13.09322943880197,-12.453227313181605,-12.0136120970125,0.25911861860064306,5.104018617562336,0.228698145,-0.16833453,0.970517535,-1.15976,-7.52318,-31.45086,69.0
1774822757.4704883,2.193450927734375e-05,2026-03-29T22:19:17.470,2026-03-29T18:19:17.470,-33379.875,-46290.24,-85624.965,-50608.665,-12502.484999999999,-17876.16,6781.815,-45005.534999999996,-0.8751252199940381,-4.495649953205373,-7.881132890232571,-11.274137855335152,-10.662527984585541,-9.455563463953418,2.9107055163389792,2.806315580967002,0.228698145,-0.16833453,0.970517535,-1.15976,-7.52318,-31.45086,69.0
1774822757.4705186,3.0279159545898438e-05,2026-03-29T22:19:17.470,2026-03-29T18:19:17.470,-33348.869999999995,-46292.985,-85654.485,-50635.034999999996,-12517.109999999999,-17870.175,6801.884999999999,-44981.82,-5.066022545040269,-3.2073394787860146,-1.6286791108178194,-4.526194147756247,-4.265621686906923,-3.0622160701907006,3.796995996294459,-0.7924618578557857,0.228698145,-0.16833453,0.970517535,-1.15976,-7.52318,-31.45086,69.0
1774822757.4705255,6.9141387939453125e-06,2026-03-29T22:19:17.470,2026-03-29T18:19:17.470,-33370.965,-46315.395,-85671.98999999999,-50637.869999999995,-12519.359999999999,-17866.8,6800.985,-44992.665,-6.742984865602863,-0.49763936046088114,5.058693271198353,4.001264285301605,3.7592644803690587,4.221204092949386,2.612706311766104,-3.911171614561521,0.228698145,-0.16833453,0.970517535,-1.15976,-7.52318,-31.45086,69.0
1774822757.470534,8.58306884765625e-06,2026-03-29T22:19:17.470,2026-03-29T18:19:17.470,-33408.54,-46302.03,-85624.83,-50586.705,-12472.74,-17830.8,6803.46,-45032.939999999995,-5.208312852914794,2.385917601936761,9.162315993158337,10.488548359004483,9.844361677042235,9.2799879325408,0.15734753620015504,-5.043215561505928,0.228698145,-0.16833453,0.970517535,-1.15976,-7.52318,-31.45086,69.0
1774822757.4705403,6.198883056640625e-06,2026-03-29T22:19:17.470,2026-03-29T18:19:17.470,-33399.54,-46289.34,-85611.69,-50574.735,-12470.805,-17848.17,6768.0,-45044.82,-1.304312447736986,4.139760950378981,8.979872353896106,12.154152059348103,11.416419202298508,10.157606523948107,-2.1584474713623294,-3.6909180067710423,0.228698145,-0.16833453,0.970517535,-1.15976,-7.52318,-31.45086,69.0
1774822757.4705477,7.3909759521484375e-06,2026-03-29T22:19:17.470,2026-03-29T18:19:17.470,-33380.19,-46312.064999999995,-85660.33499999999,-50619.555,-12509.505,-17882.37,6774.03,-45020.744999999995,3.0393474201755466,3.994479444816945,4.820010437836738,8.43648128231378,7.973583904776762,6.784982492527931,-3.09845039524302,-0.5870634555865858,0.22485294,-0.15759237,0.959531235,-4.577999999999999,-8.63716,-31.557679999999998,69.0
1774822757.4705536,5.9604644775390625e-06,2026-03-29T22:19:17.470,2026-03-29T18:19:17.470,-33359.715,-46310.49,-85679.73,-50640.075,-12529.98,-17903.969999999998,6770.969999999999,-45003.15,5.761928711088352,2.0531092103179662,-1.248650232567297,1.1533786457373256,1.2113222919445983,0.8562259271110246,-2.2493969675032823,2.6963553241412144,0.22485294,-0.15759237,0.959531235,-4.577999999999999,-8.63716,-31.557679999999998,69.0
1774822757.4705608,7.152557373046875e-06,2026-03-29T22:19:17.470,2026-03-29T18:19:17.470,-33368.445,-46305.09,-85659.56999999999,-50625.494999999995,-12514.32,-17882.325,6793.38,-45010.755,5.656072057529726,-0.7715261831824414,-6.42504047367055,-6.385884502681352,-5.810173993410408,-5.017702549766646,-0.19577677381631872,4.5452827669156175,0.22485294,-0.15759237,0.959531235,-4.577999999999999,-8.63716,-31.557679999999998,69.0
1774822757.4705665,5.7220458984375e-06,2026-03-29T22:19:17.470,2026-03-29T18:19:17.470,-33384.015,-46313.64,-85659.75,-50609.384999999995,-12493.98,-17863.2,6804.495,-45029.115,2.90672263744747,-3.1853144941765956,-8.469749098310302,-10.8832811051971,-10.049428238903214,-8.455897391004122,1.8499794401332732,4.101623752137774,0.22485294,-0.15759237,0.959531235,-4.577999999999999,-8.63716,-31.557679999999998,69.0
1774822757.4705734,6.9141387939453125e-06,2026-03-29T22:19:17.470,2026-03-29T18:19:17.470,-33408.405,-46337.22,-85676.04,-50610.375,-12488.625,-17855.325,6800.49,-45045.54,-1.0577220506702176,-4.106558085778772,-6.667795150261739,-10.488650417504639,-9.794073924664682,-8.253097233857122,2.7395612352169065,1.6652911486393291,0.22485294,-0.15759237,0.959531235,-4.577999999999999,-8.63716,-31.557679999999998,69.0
1774822757.470579,5.4836273193359375e-06,2026-03-29T22:19:17.470,2026-03-29T18:19:17.470,-33399.045,-46300.814999999995,-85636.305,-50620.275,-12505.5,-17866.8,6764.13,-45060.57,-4.303157612848339,-3.152332602092893,-2.0501872300935866,-5.548724103623,-5.33828274440343,-4.760133707132829,2.0167697586067046,-1.4899265422292836,0.22485294,-0.15759237,0.959531235,-4.577999999999999,-8.63716,-31.557679999999998,69.0
1774822757.470586,7.152557373046875e-06,2026-03-29T22:19:17.470,2026-03-29T18:19:17.470,-33371.46,-46279.799999999996,-85612.275,-50583.42,-12474.404999999999,-17846.325,6776.955,-45053.325,-5.336637238401569,-0.7981615572777178,3.17559592669239,1.6276612722398613,1.2324099466622194,0.3936670022634236,0.14350826405399458,-3.779371833171703,0.22485294,-0.15759237,0.959531235,-4.577999999999999,-8.63716,-31.557679999999998,69.0
1774822757.4705915,5.4836273193359375e-06,2026-03-29T22:19:17.470,2026-03-29T18:19:17.470,-33364.215,-46276.74,-85614.795,-50599.259999999995,-12489.255,-17857.079999999998,6770.655,-45051.705,-3.7969119790730725,1.855906339695008,6.678764089115911,7.846020133741124,7.013711041096351,5.054919487376437,-1.785748336347795,-4.105173922155499,0.22485294,-0.15759237,0.959531235,-4.577999999999999,-8.63716,-31.557679999999998,69.0
1774822757.4705985,6.9141387939453125e-06,2026-03-29T22:19:17.470,2026-03-29T18:19:17.470,-33370.695,-46279.845,-85617.45,-50598.314999999995,-12495.869999999999,-17871.704999999998,6733.53,-45060.705,-0.5673723136955237,3.5990289162256848,7.040612097213482,10.444603619518267,9.561253607169355,7.430638671126141,-2.6697485121239186,-2.3859264076042503,0.22485294,-0.15759237,0.959531235,-4.577999999999999,-8.63716,-31.557679999999998,69.0
1774822757.470604,5.4836273193359375e-06,2026-03-29T22:19:17.470,2026-03-29T18:19:17.470,-33376.095,-46297.259999999995,-85642.965,-50598.585,-12490.154999999999,-17866.665,6742.755,-45063.045,2.715314323952377,3.6634035237888205,4.314975734981953,8.427934072387387,7.915933726564919,6.748548335101016,-2.0146490631431155,0.4387685689900008,0.22485294,-0.15759237,0.959531235,-4.577999999999999,-8.63716,-31.557679999999998,69.0
1774822757.470611,7.152557373046875e-06,2026-03-29T22:19:17.470,2026-03-29T18:19:17.470,-33377.265,-46301.49,-85644.98999999999,-50602.814999999995,-12487.635,-17856.585,6803.46,-45054.54,4.488906684454577,2.06430177409095,-0.09905795502923173,2.8365463615360174,2.9508410617002685,3.46805171565666,-0.1993920319631609,2.914930403743856,0.227599515,-0.15331992,0.9497046,-1.2818399999999999,-7.691039999999999,-26.97968,69.0
1774822757.4706163,5.245208740234375e-06,2026-03-29T22:19:17.470,2026-03-29T18:19:17.470,-33381.405,-46298.7,-85645.98,-50641.244999999995,-12527.82,-17885.34,6825.509999999999,-45058.77,4.011264116378345,-0.4251284870039949,-4.165101108387221,-3.7781544732214587,-3.0777604268992858,-0.9889992766469,1.747117690202302,3.821294989179685,0.227599515,-0.15331992,0.9497046,-1.2818399999999999,-7.691039999999999,-26.97968,69.0
1774822757.4706235,7.152557373046875e-06,2026-03-29T22:19:17.470,2026-03-29T18:19:17.470,-33375.69,-46298.43,-85646.655,-50634.854999999996,-12524.67,-17885.34,6791.219999999999,-45068.534999999996,1.666823794274236,-2.6454073080819684,-6.143677330927063,-8.514118086197053,-7.5502497652041445,-4.84104244187883,2.726371066937733,2.773194915891987,0.227599515,-0.15331992,0.9497046,-1.2818399999999999,-7.691039999999999,-26.97968,69.0
1774822757.4706287,5.245208740234375e-06,2026-03-29T22:19:17.470,2026-03-29T18:19:17.470,-33374.43,-46296.314999999995,-85633.37999999999,-50613.39,-12500.414999999999,-17859.825,6788.295,-45074.295,-1.2903307262631512,-3.5909710734048215,-5.326919324817822,-9.389354266929217,-8.61683931151578,-6.63517953220761,2.1832493747852735,0.38370127815595356,0.227599515,-0.15331992,0.9497046,-1.2818399999999999,-7.691039999999999,-26.97968,69.0
1774822757.4778695,0.007240772247314453,2026-03-29T22:19:17.477,2026-03-29T18:19:17.477,-33387.615,-46304.64,-85640.265,-50619.78,-12508.695,-17870.715,6796.3949999999995,-45083.655,-3.399107863473719,-2.867295220765911,-2.2691350993482162,-6.168933933675346,-5.957435944876298,-5.769600433636114,0.4129579369029336,-2.0842601285898263,0.227599515,-0.15331992,0.9497046,-1.2818399999999999,-7.691039999999999,-26.97968,69.0
1774822757.4778929,2.3365020751953125e-05,2026-03-29T22:19:17.477,2026-03-29T18:19:17.477,-33384.645,-46305.314999999995,-85650.56999999999,-50629.32,-12519.72,-17893.485,6798.87,-45087.705,-3.7124442605978603,-0.8563300910509913,1.5473137437786648,-0.4046386687617794,-0.8589956676777868,-2.677708645367277,-1.6050010634998924,-3.3813148317336412,0.227599515,-0.15331992,0.9497046,-1.2818399999999999,-7.691039999999999,-26.97968,69.0
1774822757.4804897,0.0025968551635742188,2026-03-29T22:19:17.480,2026-03-29T18:19:17.480,-33373.215,-46295.729999999996,-85644.72,-50626.125,-12517.83,-17892.54,6783.84,-45085.32,-2.220920575348738,1.479528026341822,4.421601280130304,5.303845165928702,4.397156392463237,1.3721374952765237,-2.751194523901606,-2.903456692088729,0.227599515,-0.15331992,0.9497046,-1.2818399999999999,-7.691039999999999,-26.97968,69.0
1774822757.480517,2.7179718017578125e-05,2026-03-29T22:19:17.480,2026-03-29T18:19:17.480,-33366.869999999995,-46291.994999999995,-85641.75,-50618.43,-12509.055,-17879.13,6774.389999999999,-45085.95,0.2096213330168153,3.0562771989627637,5.18367232491257,8.479112483341554,7.551355272004105,4.776031157110907,-2.386821257891958,-0.972752969751211,0.227599515,-0.15331992,0.9497046,-1.2818399999999999,-7.691039999999999,-26.97968,69.0
1774822757.484612,0.0040950775146484375,2026-03-29T22:19:17.484,2026-03-29T18:19:17.484,-33361.38,-46292.445,-85643.73,-50610.78,-12496.23,-17860.545,6776.594999999999,-45087.659999999996,2.3243462032658915,3.171814742470363,3.6579028047006994,7.842901151515327,7.335645761083143,6.208980508433027,-0.7078523613265099,1.363268315427635,0.227599515,-0.15331992,0.9497046,-1.2818399999999999,-7.691039999999999,-26.97968,69.0
1774822757.4846315,1.9550323486328125e-05,2026-03-29T22:19:17.484,2026-03-29T18:19:17.484,-33362.01,-46294.064999999995,-85643.91,-50619.104999999996,-12508.02,-17867.565,6791.3099999999995,-45091.439999999995,3.122267435869901,1.8199794060190209,0.6650251613631096,3.8311349059396766,3.9825891410970535,5.131446401593701,1.3621768618823151,2.8941595047741995,0.227599515,-0.15331992,0.9497046,-1.2818399999999999,-7.691039999999999,-26.97968,69.0
1774822757.4974513,0.012819766998291016,2026-03-29T22:19:17.497,2026-03-29T18:19:17.497,-33370.74,-46301.805,-85649.04,-50616.99,-12510.314999999999,-17876.204999999998,6795.134999999999,-45100.215,2.328011813702433,-0.32595229958660077,-2.4024626934438977,-1.6612922218168378,-0.9314089516679113,1.9993349740550512,2.6814541715384075,2.871056321991441,0.236632695,-0.152648535,0.9484228650000001,7.1264199999999995,-5.46308,-25.80466,69.0
1774822757.497489,3.7670135498046875e-05,2026-03-29T22:19:17.497,2026-03-29T18:19:17.497,-33375.645,-46316.384999999995,-85659.435,-50611.59,-12504.555,-17874.27,6784.11,-45107.055,0.47099350455607536,-2.2446851269368593,-4.21776712203555,-6.169154814707594,-5.219143143676102,-1.9093433565094136,2.5207554207763936,1.3717878519532622,0.236632695,-0.152648535,0.9484228650000001,7.1264199999999995,-5.46308,-25.80466,69.0
1774822757.4975116,2.2649765014648438e-05,2026-03-29T22:19:17.497,2026-03-29T18:19:17.497,-33371.865,-46324.575,-85683.69,-50648.715,-12529.98,-17889.93,6777.134999999999,-45107.145,-1.4397225653517816,-3.0514582198859053,-4.0832932857387885,-7.765756862492103,-7.055428535170339,-4.997004729961019,0.9681936634485415,-0.7710058335349006,0.236632695,-0.152648535,0.9484228650000001,7.1264199999999995,-5.46308,-25.80466,69.0
1774822757.497521,9.298324584960938e-06,2026-03-29T22:19:17.497,2026-03-29T18:19:17.497,-33369.84,-46315.17,-85670.145,-50650.515,-12539.07,-17903.835,6770.835,-45114.84,-2.4543058048028867,-2.4063101001909866,-2.186666106138099,-5.892616582722076,-5.757848746987557,-5.991818977233767,-1.1162191461443243,-2.4263329574755685,0.236632695,-0.152648535,0.9484228650000001,7.1264199999999995,-5.46308,-25.80466,69.0
1774822757.4975324,1.1444091796875e-05,2026-03-29T22:19:17.497,2026-03-29T18:19:17.497,-33370.11,-46317.78,-85664.87999999999,-50641.515,-12532.005,-17903.204999999998,6782.715,-45123.479999999996,-2.15039910102679,-0.6574990664044702,0.5374419486112534,-1.5493855533923018,-2.039393774531594,-4.479411749521905,-2.573289733221801,-2.757941398652368,0.236632695,-0.152648535,0.9484228650000001,7.1264199999999995,-5.46308,-25.80466,69.0
1774822757.497542,9.5367431640625e-06,2026-03-29T22:19:17.497,2026-03-29T18:19:17.497,-33385.68,-46316.564999999995,-85648.14,-50606.549999999996,-12494.115,-17869.094999999998,6785.505,-45135.18,-0.8013527510464268,1.3404203416017482,2.854759755801515,3.2192692048067917,2.361463588154494,-1.0940166660098205,-2.5863250089972656,-1.6443708887058626,0.236632695,-0.152648535,0.9484228650000001,7.1264199999999995,-5.46308,-25.80466,69.0
1774822757.500117,0.0025751590728759766,2026-03-29T22:19:17.500,2026-03-29T18:19:17.500,-33398.235,-46317.465,-85648.36499999999,-50568.615,-12460.635,-17841.87,6790.545,-45155.43,0.8180788016399198,2.6408199595409028,3.7793874063378663,6.284418498812229,5.489508005246754,2.7288268591404,-1.13859774027219,0.28418273483045264,0.236632695,-0.152648535,0.9484228650000001,7.1264199999999995,-5.46308,-25.80466,69.0
1774822757.500147,3.0040740966796875e-05,2026-03-29T22:19:17.500,2026-03-29T18:19:17.500,-33374.79,-46316.655,-85651.515,-50577.884999999995,-12476.025,-17855.954999999998,6778.755,-45142.695,1.8638397462306764,2.6518582160808326,2.9846367224229877,6.39094120466328,6.046259432182579,5.352530772085418,0.9681637255367425,1.9979598542890395,0.236632695,-0.152648535,0.9484228650000001,7.1264199999999995,-5.46308,-25.80466,69.0
1774822757.505447,0.005299806594848633,2026-03-29T22:19:17.505,2026-03-29T18:19:17.505,-33363.225,-46269.18,-85592.655,-50584.59,-12478.904999999999,-17838.27,6792.795,-45149.4,1.8561670456068904,1.405589884770872,0.9102999683285092,3.678106827808512,3.935661181041346,5.646230193490656,2.549814283149427,2.6138480728996445,0.236632695,-0.152648535,0.9484228650000001,7.1264199999999995,-5.46308,-25.80466,69.0
1774822757.5054584,1.1444091796875e-05,2026-03-29T22:19:17.505,2026-03-29T18:19:17.505,-33353.909999999996,-46263.78,-85606.515,-50613.705,-12506.355,-17857.035,6806.205,-45153.18,0.8942818855450416,-0.47289762293660587,-1.4641534490028347,-0.45749929402224276,0.2485436118148305,3.489377025903774,2.6956068499947636,1.8473060777610557,0.236632695,-0.152648535,0.9484228650000001,7.1264199999999995,-5.46308,-25.80466,69.0
1774822757.5095675,0.00410914421081543,2026-03-29T22:19:17.509,2026-03-29T18:19:17.509,-33375.42,-46297.935,-85642.65,-50617.439999999995,-12502.529999999999,-17856.225,6813.0,-45153.36,-0.44114946713216113,-2.0749378628846347,-3.0692480937507076,-4.066521449472066,-3.286172145340366,-0.1600072852541009,1.2844487109507057,0.13985181674444638,0.242980335,-0.14453088,0.947812515,13.032039999999999,-2.4415999999999998,-25.74362,69.0
1774822757.5095875,2.002716064453125e-05,2026-03-29T22:19:17.509,2026-03-29T18:19:17.509,-33364.71,-46283.895,-85613.895,-50570.189999999995,-12465.945,-17836.559999999998,6814.259999999999,-45158.985,-1.4249597132360319,-2.644465342298117,-3.2173755518458007,-5.569127707958697,-5.113339743112305,-3.6798782519779847,-0.9269637210593873,-1.5929444710596972,0.242980335,-0.14453088,0.947812515,13.032039999999999,-2.4415999999999998,-25.74362,69.0
1774822757.5123816,0.002794027328491211,2026-03-29T22:19:17.512,2026-03-29T18:19:17.512,-33358.725,-46272.195,-85588.02,-50553.63,-12453.164999999999,-17828.864999999998,6817.455,-45165.645,-1.5733508386939716,-1.9326903457770241,-1.8934666920338072,-4.4570571250100395,-4.544675557351465,-5.507539761669419,-2.7025468646825987,-2.4502924801737085,0.242980335,-0.14453088,0.947812515,13.032039999999999,-2.4415999999999998,-25.74362,69.0
1774822757.5124395,5.793571472167969e-05,2026-03-29T22:19:17.512,2026-03-29T18:19:17.512,-33366.465,-46289.115,-85642.33499999999,-50635.89,-12525.39,-17887.905,6785.55,-45166.77,-0.8763082156607928,-0.30571200297956524,0.2564669150946267,-1.457967577365167,-2.0195057696543333,-4.847618279709243,-3.0037936094196973,-2.0116340562120616,0.242980335,-0.14453088,0.947812515,13.032039999999999,-2.4415999999999998,-25.74362,69.0
1774822757.5185149,0.006075382232666016,2026-03-29T22:19:17.518,2026-03-29T18:19:17.518,-33368.625,-46283.445,-85629.23999999999,-50618.25,-12509.55,-17877.555,6776.505,-45173.159999999996,0.23268613727315185,1.4408458284203973,2.22804956682009,1.8884307893864982,1.167792863283249,-2.0365204180971896,-1.5792533792264052,-0.5392064134940959,0.242980335,-0.14453088,0.947812515,13.032039999999999,-2.4415999999999998,-25.74362,69.0
1774822757.518538,2.3126602172851562e-05,2026-03-29T22:19:17.518,2026-03-29T18:19:17.518,-33363.405,-46276.83,-85612.905,-50594.67,-12489.345,-17856.45,6808.545,-45172.259999999995,1.13551994678103,2.4672269790009547,3.1160131902851886,4.011037041563206,3.521032817850981,1.612815280080543,0.8612241238885935,1.1781748484143222,0.242980335,-0.14453088,0.947812515,13.032039999999999,-2.4415999999999998,-25.74362,69.0
1774822757.521646,0.0031080245971679688,2026-03-29T22:19:17.521,2026-03-29T18:19:17.521,-33362.549999999996,-46294.2,-85637.87999999999,-50612.13,-12503.295,-17861.67,6810.12,-45164.52,1.3665338811513215,2.2895052993595066,2.5233007754419505,4.052596381196342,4.050234529707588,4.420698520116816,2.9973806369284874,2.247775729973159,0.242980335,-0.14453088,0.947812515,13.032039999999999,-2.4415999999999998,-25.74362,69.0
1774822757.521659,1.2874603271484375e-05,2026-03-29T22:19:17.521,2026-03-29T18:19:17.521,-33378.975,-46332.945,-85679.37,-50634.494999999995,-12516.615,-17869.32,6796.17,-45164.43,0.8468403206622365,1.005016238201351,0.7397245482081257,2.222255373992811,2.6964443440611525,5.122636158314143,3.6011890522092393,2.13555439324738,0.242980335,-0.14453088,0.947812515,13.032039999999999,-2.4415999999999998,-25.74362,69.0
1774822757.5242152,0.002556324005126953,2026-03-29T22:19:17.524,2026-03-29T18:19:17.524,-33400.619999999995,-46336.005,-85675.545,-50635.799999999996,-12519.99,-17878.23,6760.485,-45187.604999999996,-0.09964978366556129,-0.7605908914036393,-1.391066495003659,-0.3937227252686902,0.28615661198551157,3.454593810489795,2.22072422377187,0.9294642138246285,0.242980335,-0.14453088,0.947812515,13.032039999999999,-2.4415999999999998,-25.74362,69.0
1774822757.5242355,2.0265579223632812e-05,2026-03-29T22:19:17.524,2026-03-29T18:19:17.524,-33383.52,-46296.27,-85641.705,-50639.67,-12534.345,-17894.79,6758.6849999999995,-45196.02,-0.9426218407347848,-2.1559587181715574,-2.859200795543849,-2.4384708882996504,-1.9358113328386142,0.2628124664879436,-0.5278857390524206,-0.7249432643727518,0.242980335,-0.14453088,0.947812515,13.032039999999999,-2.4415999999999998,-25.74362,69.0
1774822757.5282905,0.004055023193359375,2026-03-29T22:19:17.528,2026-03-29T18:19:17.528,-33371.235,-46302.75,-85655.745,-50636.07,-12528.855,-17893.89,6766.785,-45190.619999999995,-1.2377282236802247,-2.5105679947203874,-2.9577415620904617,-2.9820629829916183,-2.9427758530747337,-2.9139045424223915,-3.2353343459469297,-1.9721547901055687,0.24621519,-0.133971825,0.9387183,9.6138,-3.41824,-27.086499999999997,69.0
1774822757.528318,2.7418136596679688e-05,2026-03-29T22:19:17.528,2026-03-29T18:19:17.528,-33375.735,-46296.765,-85639.68,-50618.475,-12514.23,-17886.149999999998,6764.13,-45196.335,-0.8557252471922926,-1.6525194309750935,-1.6192402898842237,-1.9534375776607935,-2.4085517831296737,-4.5869797177095215,-4.417410344581168,-2.189568336312726,0.24621519,-0.133971825,0.9387183,9.6138,-3.41824,-27.086499999999997,69.0
1774822757.5324316,0.004113674163818359,2026-03-29T22:19:17.532,2026-03-29T18:19:17.532,-33376.229999999996,-46293.93,-85635.855,-50618.744999999995,-12516.57,-17891.28,6746.67,-45195.255,-0.03228300347290511,0.011316200652414789,0.5394454734778672,-0.10142821972933068,-0.8049210651377028,-4.025892341771396,-3.311147042721866,-1.2960253165136493,0.24621519,-0.133971825,0.9387183,9.6138,-3.41824,-27.086499999999997,69.0
1774822757.5324535,2.193450927734375e-05,2026-03-29T22:19:17.532,2026-03-29T18:19:17.532,-33366.33,-46299.869999999995,-85653.27,-50632.83,-12523.365,-17892.989999999998,6763.41,-45185.354999999996,0.7765541605082866,1.6887894546117432,2.49317454790854,1.4690742419084126,0.9113890413109855,-1.5891172429589542,-0.3275600353063367,0.2259368023031831,0.24621519,-0.133971825,0.9387183,9.6138,-3.41824,-27.086499999999997,69.0
1774822757.5374784,0.005024909973144531,2026-03-29T22:19:17.537,2026-03-29T18:19:17.537,-33360.659999999996,-46305.54,-85663.70999999999,-50630.939999999995,-12518.055,-17882.91,6806.88,-45180.945,1.1457351901932593,2.5772269465381497,3.285927599869501,1.920305762212769,1.837260191564863,1.4777525388323458,3.0950269475410046,1.593986366920073,0.24621519,-0.133971825,0.9387183,9.6138,-3.41824,-27.086499999999997,69.0
1774822757.537516,3.7670135498046875e-05,2026-03-29T22:19:17.537,2026-03-29T18:19:17.537,-33374.115,-46306.305,-85650.03,-50614.83,-12505.32,-17867.52,6800.58,-45193.005,0.9015661501339066,2.2429982278666865,2.491118267822987,1.124264037155279,1.5943833322249326,3.6702837898271077,5.187422926771439,2.130520388278061,0.24621519,-0.133971825,0.9387183,9.6138,-3.41824,-27.086499999999997,69.0
1774822757.541014,0.0034978389739990234,2026-03-29T22:19:17.541,2026-03-29T18:19:17.541,-33370.65,-46288.53,-85628.205,-50614.02,-12505.275,-17866.44,6792.21,-45200.295,0.1981251219777319,0.8281549636664274,0.4356159640011162,-0.30799745607932827,0.4881479705179535,3.9650428464509506,4.756166917269562,1.5975254715181928,0.24621519,-0.133971825,0.9387183,9.6138,-3.41824,-27.086499999999997,69.0
1774822757.5410442,3.0279159545898438e-05,2026-03-29T22:19:17.541,2026-03-29T18:19:17.541,-33360.21,-46305.27,-85665.42,-50650.604999999996,-12542.265,-17903.295,6770.295,-45194.895,-0.5810074807050569,-1.0123644174689157,-1.9288109182486577,-1.4138258908523174,-0.7154959023327028,2.3052550081375163,1.837866440172193,0.29658614333566363,0.24621519,-0.133971825,0.9387183,9.6138,-3.41824,-27.086499999999997,69.0
1774822757.5458045,0.004760265350341797,2026-03-29T22:19:17.545,2026-03-29T18:19:17.545,-33387.57,-46324.979999999996,-85678.33499999999,-50636.835,-12526.38,-17891.415,6759.405,-45219.689999999995,-1.0336247985566562,-2.41398846577971,-3.459856957983544,-1.4584170912170291,-1.2572169628172423,-0.4022172184632242,-2.24850431469636,-1.1046659576608076,0.24621519,-0.133971825,0.9387183,9.6138,-3.41824,-27.086499999999997,69.0
1774822757.545826,2.1457672119140625e-05,2026-03-29T22:19:17.545,2026-03-29T18:19:17.545,-33415.02,-46321.92,-85652.81999999999,-50599.305,-12487.904999999999,-17854.065,6776.19,-45254.655,-0.9460447602372659,-2.705707554489984,-3.3694867870747323,-0.3771790560132248,-0.8283997350068842,-2.7665934029300567,-5.504691571484745,-1.9190212661253319,0.24621519,-0.133971825,0.9387183,9.6138,-3.41824,-27.086499999999997,69.0
1774822757.5487561,0.002930164337158203,2026-03-29T22:19:17.548,2026-03-29T18:19:17.548,-33377.04,-46307.79,-85656.105,-50636.744999999995,-12528.72,-17886.015,6780.554999999999,-45233.549999999996,-0.3901559703088416,-1.7263277529523164,-1.6217141977030034,1.1718950406056967,0.25705792009962225,-3.6204006845124224,-6.231805730803163,-1.7775460464369568,0.252013515,-0.12219207,0.9269385450000001,5.69198,-3.64714,-28.063139999999997,69.0
1774822757.54879,3.3855438232421875e-05,2026-03-29T22:19:17.548,2026-03-29T18:19:17.548,-33352.74,-46315.755,-85683.555,-50654.88,-12549.869999999999,-17904.87,6789.285,-45218.159999999996,0.331614465510149,0.09331477412559432,1.015322078434041,2.1822562842940867,1.2580521391998247,-2.5960395799865967,-3.903678146100951,-0.7922817762202083,0.252013515,-0.12219207,0.9269385450000001,5.69198,-3.64714,-28.063139999999997,69.0
1774822757.5523932,0.003603219985961914,2026-03-29T22:19:17.552,2026-03-29T18:19:17.552,-33374.159999999996,-46322.369999999995,-85678.605,-50621.174999999996,-12514.455,-17882.28,6783.03,-45233.055,0.8540509367336697,1.921878967805097,3.30405871112445,1.8954420831617629,1.4567962361492817,-0.28597981482691254,0.5095766746959215,0.5254238750091834,0.252013515,-0.12219207,0.9269385450000001,5.69198,-3.64714,-28.063139999999997,69.0
1774822757.5524173,2.4080276489257812e-05,2026-03-29T22:19:17.552,2026-03-29T18:19:17.552,-33408.0,-46295.865,-85615.73999999999,-50579.82,-12471.705,-17839.395,6797.5199999999995,-45273.15,0.9355869785647317,2.9067341937179028,4.114910947234525,0.2841670604301027,0.6068521415022504,2.0842513404245024,4.951253873082262,1.5349023439890261,0.252013515,-0.12219207,0.9269385450000001,5.69198,-3.64714,-28.063139999999997,69.0
1774822757.5589356,0.006518363952636719,2026-03-29T22:19:17.558,2026-03-29T18:19:17.558,-33376.229999999996,-46274.04,-85608.94499999999,-50601.15,-12497.76,-17867.16,6788.25,-45264.24,0.5676612822703279,2.5681275988254044,2.978093560865027,-1.8631243748946449,-0.8827425622773545,3.2943884038025306,7.24442789946771,1.7799428229425838,0.252013515,-0.12219207,0.9269385450000001,5.69198,-3.64714,-28.063139999999997,69.0
1774822757.5589535,1.7881393432617188e-05,2026-03-29T22:19:17.558,2026-03-29T18:19:17.558,-33365.34,-46280.97,-85624.29,-50596.02,-12494.475,-17869.5,6771.195,-45259.965,-0.0411211772995379,1.0274494887027183,0.34167271546106176,-3.3289412918849397,-2.1455372978669356,2.7497192806469584,6.156706784158334,1.1915475842429073,0.252013515,-0.12219207,0.9269385450000001,5.69198,-3.64714,-28.063139999999997,69.0
1774822757.560215,0.0012614727020263672,2026-03-29T22:19:17.560,2026-03-29T18:19:17.560,-33379.92,-46304.955,-85647.19499999999,-50596.02,-12492.135,-17866.98,6772.634999999999,-45271.395,-0.586157591275196,-1.0369675218734635,-2.602054109987661,-3.1351627900347467,-2.342118643834884,0.769889453974042,2.0429430722127675,0.09149996131354164,0.252013515,-0.12219207,0.9269385450000001,5.69198,-3.64714,-28.063139999999997,69.0
1774822757.5602298,1.4781951904296875e-05,2026-03-29T22:19:17.560,2026-03-29T18:19:17.560,-33383.835,-46305.81,-85641.61499999999,-50603.22,-12498.029999999999,-17868.105,6761.79,-45283.994999999995,-0.8223041472248427,-2.689844988211688,-4.456733950049074,-1.1340350876258396,-1.1670394395030181,-1.5931277215525774,-3.262201574674099,-0.9875677185092155,0.252013515,-0.12219207,0.9269385450000001,5.69198,-3.64714,-28.063139999999997,69.0
1774822757.5643346,0.0041048526763916016,2026-03-29T22:19:17.564,2026-03-29T18:19:17.564,-33353.369999999995,-46271.475,-85603.635,-50585.49,-12487.365,-17857.53,6773.535,-45281.159999999996,-0.6730595726991184,-3.1615111966449954,-4.283473024750884,1.8169734760487084,0.912619358498805,-3.106038998179981,-7.272824532327958,-1.5636262262706009,0.252013515,-0.12219207,0.9269385450000001,5.69198,-3.64714,-28.063139999999997,69.0
1774822757.5643504,1.5735626220703125e-05,2026-03-29T22:19:17.564,2026-03-29T18:19:17.564,-33355.845,-46273.95,-85598.145,-50569.74,-12469.5,-17845.829999999998,6795.405,-45279.45,-0.24559471029146837,-2.202601794463896,-2.069924243988793,4.2266336042536,2.842990547619258,-2.9875635054680396,-8.021901402623566,-1.4181401682163068,0.252013515,-0.12219207,0.9269385450000001,5.69198,-3.64714,-28.063139999999997,69.0
1774822757.5681581,0.0038077831268310547,2026-03-29T22:19:17.568,2026-03-29T18:19:17.568,-33390.54,-46308.24,-85651.065,-50631.345,-12523.05,-17884.305,6770.745,-45294.615,0.24308133806107443,-0.20890458983069077,1.2260364911405668,4.725612997207352,3.520304531575742,-1.3014873059879577,-5.019485120633899,-0.667763610291944,0.25817805,-0.117736515,0.92321541,0.5341,-7.3705799999999995,-30.962539999999997,69.0
1774822757.568174,1.5735626220703125e-05,2026-03-29T22:19:17.568,2026-03-29T18:19:17.568,-33373.305,-46300.14,-85656.105,-50635.53,-12530.385,-17886.78,6761.835,-45299.744999999995,0.5800056979769049,1.94385247222385,4.094591795280812,2.822848938790326,2.4046811697507833,1.085215983210558,0.4652291472155726,0.32085328501434657,0.25817805,-0.117736515,0.92321541,0.5341,-7.3705799999999995,-30.962539999999997,69.0
1774822757.5722852,0.004111289978027344,2026-03-29T22:19:17.572,2026-03-29T18:19:17.572,-33371.369999999995,-46300.68,-85642.515,-50612.58,-12503.025,-17852.175,6802.245,-45303.119999999995,0.6490125195637081,3.2854466789450147,5.16996974366574,-0.7475100465658141,-0.12430818503643977,2.9503388167342113,5.949094563108616,1.1148121133510556,0.25817805,-0.117736515,0.92321541,0.5341,-7.3705799999999995,-30.962539999999997,69.0
1774822757.572301,1.5735626220703125e-05,2026-03-29T22:19:17.572,2026-03-29T18:19:17.572,-33369.615,-46304.955,-85652.19,-50621.265,-12506.49,-17850.059999999998,6818.219999999999,-45308.88,0.46213477695349303,3.186879336501267,3.8809016893399475,-4.3057552537481945,-2.8856287712554223,3.3376050623485143,8.86841520892206,1.4030361072282156,0.25817805,-0.117736515,0.92321541,0.5341,-7.3705799999999995,-30.962539999999997,69.0
1774822757.576626,0.004325151443481445,2026-03-29T22:19:17.576,2026-03-29T18:19:17.576,-33365.744999999995,-46299.15,-85645.305,-50608.619999999995,-12504.06,-17863.965,6786.855,-45320.715,0.1276505504841067,1.6513198632306707,0.7447441254487941,-6.029066452856572,-4.4591561614605375,2.0360401857433557,7.778825185510335,1.107805966165071,0.25817805,-0.117736515,0.92321541,0.5341,-7.3705799999999995,-30.962539999999997,69.0
1774822757.5766492,2.3126602172851562e-05,2026-03-29T22:19:17.576,2026-03-29T18:19:17.576,-33378.93,-46306.979999999996,-85649.985,-50617.215,-12514.365,-17876.655,6775.92,-45334.439999999995,-0.21510582441985726,-0.6728150334324288,-2.8437150038622256,-4.888579967747897,-3.9204740655251675,-0.3195994608265566,3.059493374989603,0.3865377226984061,0.25817805,-0.117736515,0.92321541,0.5341,-7.3705799999999995,-30.962539999999997,69.0
1774822757.5802147,0.003565549850463867,2026-03-29T22:19:17.580,2026-03-29T18:19:17.580,-33377.13,-46307.025,-85657.59,-50626.305,-12515.895,-17873.28,6787.9349999999995,-45335.835,-0.4545833132906823,-2.7674630209234885,-5.240938877346684,-1.238120650991877,-1.3663728926090626,-2.5700929392553933,-3.217338218694822,-0.45675405231232236,0.25817805,-0.117736515,0.92321541,0.5341,-7.3705799999999995,-30.962539999999997,69.0
1774822757.580228,1.33514404296875e-05,2026-03-29T22:19:17.580,2026-03-29T18:19:17.580,-33362.82,-46310.715,-85676.715,-50619.78,-12508.47,-17868.915,6780.15,-45329.85,-0.5343191101519996,-3.691273629397571,-5.313385263545452,3.2737657167001473,2.06163551890461,-3.6071823108878496,-8.206069041986497,-1.0989317147257818,0.25817805,-0.117736515,0.92321541,0.5341,-7.3705799999999995,-30.962539999999997,69.0
1774822757.5863733,0.0061452388763427734,2026-03-29T22:19:17.586,2026-03-29T18:19:17.586,-33372.36,-46325.025,-85691.43,-50605.92,-12494.835,-17864.145,6775.469999999999,-45336.6,-0.44880007644122605,-3.000838530274453,-2.9726514286890815,6.462045435539973,4.698550962876174,-2.914669726485947,-9.58374169679715,-1.3110584188065608,0.25817805,-0.117736515,0.92321541,0.5341,-7.3705799999999995,-30.962539999999997,69.0
1774822757.5863993,2.5987625122070312e-05,2026-03-29T22:19:17.586,2026-03-29T18:19:17.586,-33391.08,-46313.189999999995,-85642.69499999999,-50594.85,-12489.795,-17858.565,6787.98,-45353.115,-0.22644797072104603,-0.9589932591684515,0.7661609829502671,6.67929292622991,5.179417731197007,-0.8119211828211372,-6.629553194756474,-1.0246564476591231,0.25817805,-0.117736515,0.92321541,0.5341,-7.3705799999999995,-30.962539999999997,69.0
1774822757.5938408,0.007441520690917969,2026-03-29T22:19:17.593,2026-03-29T18:19:17.593,-33386.895,-46295.46,-85620.42,-50617.665,-12518.595,-17878.32,6772.905,-45361.665,0.08091862262055632,1.5660540657258495,4.235106777549094,3.6711605239137053,3.1519515949323043,1.710101445388383,-0.5874523653437945,-0.34284260831491853,0.266417775,-0.127868325,0.9228492,-3.3419399999999997,-9.568019999999999,-32.25964,69.0
1774822757.5938628,2.193450927734375e-05,2026-03-29T22:19:17.593,2026-03-29T18:19:17.593,-33382.979999999996,-46300.049999999996,-85632.97499999999,-50624.865,-12530.97,-17889.48,6759.405,-45367.47,0.3974485102171829,3.471559316631571,5.868012043055798,-1.2327779304617281,-0.49611777142571095,3.469275557871725,5.865015885014501,0.49583574192094354,0.266417775,-0.127868325,0.9228492,-3.3419399999999997,-9.568019999999999,-32.25964,69.0
1774822757.5938804,1.7642974853515625e-05,2026-03-29T22:19:17.593,2026-03-29T18:19:17.593,-33374.07,-46297.53,-85642.37999999999,-50636.43,-12534.164999999999,-17881.739999999998,6778.08,-45367.65,0.6238804761267629,3.901890933496268,4.912313725750914,-5.717033798283434,-4.032975204332235,3.650052732145205,9.810962195198025,1.188558862496346,0.266417775,-0.127868325,0.9228492,-3.3419399999999997,-9.568019999999999,-32.25964,69.0
1774822757.5938869,6.4373016357421875e-06,2026-03-29T22:19:17.593,2026-03-29T18:19:17.593,-33380.415,-46310.895,-85661.45999999999,-50648.49,-12536.91,-17883.54,6791.8949999999995,-45371.655,0.6570879293712588,2.630538404396841,1.771741605608735,-7.593874565878154,-5.722564527977831,2.173044121821522,9.415499048137582,1.4616341012200218,0.266417775,-0.127868325,0.9228492,-3.3419399999999997,-9.568019999999999,-32.25964,69.0
1774822757.5987577,0.004870891571044922,2026-03-29T22:19:17.598,2026-03-29T18:19:17.598,-33368.445,-46297.619999999995,-85643.45999999999,-50621.22,-12514.365,-17873.954999999998,6781.679999999999,-45373.455,0.4338734785780862,0.17275401934637377,-2.1748912273713263,-5.888484726373075,-4.693856625642443,-0.2875808935446998,4.774811513676815,1.1683514508228892,0.266417775,-0.127868325,0.9228492,-3.3419399999999997,-9.568019999999999,-32.25964,69.0
1774822757.598784,2.6226043701171875e-05,2026-03-29T22:19:17.598,2026-03-29T18:19:17.598,-33365.924999999996,-46288.619999999995,-85627.665,-50606.415,-12503.385,-17865.225,6778.259999999999,-45382.095,-0.01815623070967854,-2.4250623661789894,-5.192353771742046,-1.3498564837597649,-1.39732086531422,-2.6301877058014473,-2.097798615763722,0.36290758189820266,0.266417775,-0.127868325,0.9228492,-3.3419399999999997,-9.568019999999999,-32.25964,69.0
1774822757.5988045,2.0503997802734375e-05,2026-03-29T22:19:17.598,2026-03-29T18:19:17.598,-33368.85,-46291.409999999996,-85632.84,-50618.43,-12511.125,-17867.52,6777.945,-45389.07,-0.5562827748337148,-4.032233918903508,-5.960966771362366,3.8823325482820863,2.593605790760435,-3.8292177103755427,-8.152354138328027,-0.6850899332006921,0.266417775,-0.127868325,0.9228492,-3.3419399999999997,-9.568019999999999,-32.25964,69.0
1774822757.5988119,7.3909759521484375e-06,2026-03-29T22:19:17.598,2026-03-29T18:19:17.598,-33373.755,-46304.729999999996,-85645.935,-50619.104999999996,-12513.51,-17874.765,6772.905,-45396.854999999996,-0.9545810064368286,-3.9254321406552255,-4.153710796667375,7.305275190991557,5.348539954868525,-3.3807772458238516,-10.660995352275647,-1.561781416667706,0.266417775,-0.127868325,0.9228492,-3.3419399999999997,-9.568019999999999,-32.25964,69.0
1774822757.604498,0.005686044692993164,2026-03-29T22:19:17.604,2026-03-29T18:19:17.604,-33389.28,-46323.314999999995,-85666.545,-50619.915,-12513.06,-17878.23,6764.3099999999995,-45412.875,-0.994705553774815,-2.11145309863722,-0.5658004647842906,7.27365035898729,5.534695395839275,-1.4981836903560302,-8.44784864789924,-1.8609233558405205,0.266417775,-0.127868325,0.9228492,-3.3419399999999997,-9.568019999999999,-32.25964,69.0
1774822757.604529,3.0994415283203125e-05,2026-03-29T22:19:17.604,2026-03-29T18:19:17.604,-33377.265,-46305.72,-85644.62999999999,-50607.54,-12501.314999999999,-17871.75,6764.58,-45418.725,-0.5811368910455387,0.6617857326769504,3.2495134966468955,3.8080016731924355,3.079350619477628,1.0091791681078603,-2.435571823318352,-1.3679305816310898,0.266417775,-0.127868325,0.9228492,-3.3419399999999997,-9.568019999999999,-32.25964,69.0
1774822757.608343,0.0038139820098876953,2026-03-29T22:19:17.608,2026-03-29T18:19:17.608,-33345.405,-46270.17,-85606.56,-50600.88,-12502.215,-17864.864999999998,6775.965,-45408.645,0.1786787439950478,3.2154360467705323,5.665300550375824,-1.4139630983671405,-0.7965570945936125,3.098121570818921,4.743337526219142,-0.1946328445745984,0.277282005,-0.13012662,0.923032305,-5.997179999999999,-11.490779999999999,-35.525279999999995,69.0
1774822757.60837,2.7179718017578125e-05,2026-03-29T22:19:17.608,2026-03-29T18:19:17.608,-33369.75,-46295.189999999995,-85633.605,-50621.534999999996,-12509.82,-17856.36,6782.804999999999,-45421.695,0.9835160104701013,4.441522358119485,5.6778694661047755,-5.881466506704858,-4.1923665476028065,3.9255934364934415,9.904801036394376,1.2145026366550642,0.277282005,-0.13012662,0.923032305,-5.997179999999999,-11.490779999999999,-35.525279999999995,69.0
1774822757.613839,0.005468845367431641,2026-03-29T22:19:17.613,2026-03-29T18:19:17.613,-33378.795,-46307.88,-85655.52,-50639.31,-12527.55,-17872.469999999998,6787.17,-45433.799999999996,1.4523134623490261,3.782410113613338,3.3160048062481513,-7.480495995841232,-5.477928670488061,3.1738187557048154,10.729230898566101,2.236800904122724,0.277282005,-0.13012662,0.923032305,-5.997179999999999,-11.490779999999999,-35.525279999999995,69.0
1774822757.6138582,1.9311904907226562e-05,2026-03-29T22:19:17.613,2026-03-29T18:19:17.613,-33365.655,-46306.439999999995,-85667.22,-50653.17,-12544.47,-17892.945,6785.325,-45433.08,1.3027532928641699,1.4810227724808223,-0.40006785222825497,-5.5173137077658,-4.097681034718555,1.150180428421665,6.80442200724484,2.341662035533251,0.277282005,-0.13012662,0.923032305,-5.997179999999999,-11.490779999999999,-35.525279999999995,69.0
1774822757.6165893,0.0027310848236083984,2026-03-29T22:19:17.616,2026-03-29T18:19:17.616,-33347.7,-46301.715,-85664.565,-50650.29,-12548.34,-17906.399999999998,6777.945,-45420.975,0.5112246270474411,-1.5090341963763307,-3.9127379984225916,-1.029845980191031,-0.8227576233508195,-1.3544103472334361,-0.17352379110164431,1.3618151109334384,0.277282005,-0.13012662,0.923032305,-5.997179999999999,-11.490779999999999,-35.525279999999995,69.0
1774822757.6166303,4.100799560546875e-05,2026-03-29T22:19:17.616,2026-03-29T18:19:17.616,-33367.95,-46291.545,-85631.805,-50613.03,-12520.484999999999,-17894.835,6764.085,-45448.155,-0.6334148993147055,-3.9197461370133344,-5.785316508637326,3.758135358680062,2.669377493356463,-3.375092226476874,-7.137303729583759,-0.3718651409849442,0.277282005,-0.13012662,0.923032305,-5.997179999999999,-11.490779999999999,-35.525279999999995,69.0
1774822757.6217232,0.0050928592681884766,2026-03-29T22:19:17.621,2026-03-29T18:19:17.621,-33372.135,-46293.299999999996,-85630.36499999999,-50599.215,-12507.93,-17894.61,6767.73,-45468.36,-1.6271831125516767,-4.706129024909486,-5.283566605968052,6.55416141474369,4.662448923439346,-4.128896665492572,-11.001649767127413,-2.1226327676265018,0.277282005,-0.13012662,0.923032305,-5.997179999999999,-11.490779999999999,-35.525279999999995,69.0
1774822757.6217487,2.5510787963867188e-05,2026-03-29T22:19:17.621,2026-03-29T18:19:17.621,-33365.159999999996,-46303.784999999996,-85648.905,-50607.405,-12509.01,-17892.405,6766.514999999999,-45467.235,-1.9713766677912836,-3.4972642853087335,-2.6486317776605666,6.117935767703651,4.264178017188606,-3.295343710736556,-10.033931063443621,-3.055019088176101,0.277282005,-0.13012662,0.923032305,-5.997179999999999,-11.490779999999999,-35.525279999999995,69.0
1774822757.62576,0.004011392593383789,2026-03-29T22:19:17.625,2026-03-29T18:19:17.625,-33379.335,-46289.88,-85610.43,-50573.744999999995,-12461.49,-17820.719999999998,6784.245,-45483.705,-1.4200777240909477,-0.7672475394085565,1.0309237004829748,2.8276479924300544,1.8225617119784205,-1.1357755156181988,-4.631957231083672,-2.6320018086433907,0.277282005,-0.13012662,0.923032305,-5.997179999999999,-11.490779999999999,-35.525279999999995,69.0
1774822757.625774,1.3828277587890625e-05,2026-03-29T22:19:17.625,2026-03-29T18:19:17.625,-33372.945,-46285.47,-85614.435,-50601.465,-12486.15,-17826.165,6796.259999999999,-45487.53,-0.13261077617046155,2.3510913861188967,4.275460804882163,-1.5746829909828095,-1.3066015924312804,1.5827970971570933,2.8405587009242033,-0.913679910903475,0.277282005,-0.13012662,0.923032305,-5.997179999999999,-11.490779999999999,-35.525279999999995,69.0
1774822757.628332,0.002557992935180664,2026-03-29T22:19:17.628,2026-03-29T18:19:17.628,-33379.47,-46296.494999999995,-85635.22499999999,-50617.935,-12503.43,-17847.585,6789.33,-45499.59,1.357195720495895,4.5362278358226105,5.8042011701241085,-4.904303870163068,-3.5016556094436315,3.8394252240542546,9.092558416594825,1.405196705248803,0.280761,-0.127135905,0.9174781200000001,-9.59854,-14.55804,-40.45426,69.0
1774822757.6283472,1.52587890625e-05,2026-03-29T22:19:17.628,2026-03-29T18:19:17.628,-33367.68,-46290.24,-85627.44,-50607.63,-12502.395,-17858.969999999998,6777.045,-45499.14,2.360117755975378,4.836848632700195,5.026661366221005,-5.634459276324344,-3.724415827902679,4.716989986613102,11.360394862753102,3.268178740540346,0.280761,-0.127135905,0.9174781200000001,-9.59854,-14.55804,-40.45426,69.0
1774822757.6321619,0.003814697265625,2026-03-29T22:19:17.632,2026-03-29T18:19:17.632,-33383.025,-46306.215,-85645.845,-50622.93,-12512.115,-17855.55,6799.86,-45501.615,2.3500276466119336,3.0840096239149353,2.255643683174958,-3.614971067564724,-2.028452217736966,3.757171077398642,8.633730420732944,3.737863620824952,0.280761,-0.127135905,0.9174781200000001,-9.59854,-14.55804,-40.45426,69.0
1774822757.6321783,1.6450881958007812e-05,2026-03-29T22:19:17.632,2026-03-29T18:19:17.632,-33386.04,-46311.21,-85657.14,-50627.115,-12517.02,-17865.54,6790.41,-45508.59,1.2343830198737924,-0.020936845067293992,-1.4254926840918956,-0.06175408068839533,0.5302360665028377,1.1862339985082768,2.1070249478198275,2.4656698527826353,0.280761,-0.127135905,0.9174781200000001,-9.59854,-14.55804,-40.45426,69.0
1774822757.6363957,0.004217386245727539,2026-03-29T22:19:17.636,2026-03-29T18:19:17.636,-33385.185,-46318.634999999995,-85661.415,-50614.695,-12501.63,-17862.03,6775.245,-45512.865,-0.5605989766666171,-3.1861756246092923,-4.581157958949739,3.143238375747877,2.511993223339988,-2.09450736227762,-5.345910307541951,-0.0845339269680049,0.280761,-0.127135905,0.9174781200000001,-9.59854,-14.55804,-40.45426,69.0
1774822757.636419,2.3365020751953125e-05,2026-03-29T22:19:17.636,2026-03-29T18:19:17.636,-33362.775,-46293.884999999995,-85628.06999999999,-50584.994999999995,-12474.585,-17842.14,6778.035,-45510.975,-2.248151784755271,-5.065866500274023,-5.969119950072939,4.449230069284435,2.8915780240102227,-4.7917824768227515,-10.442500142467692,-2.792653681415983,0.280761,-0.127135905,0.9174781200000001,-9.59854,-14.55804,-40.45426,69.0
1774822757.6405597,0.004140615463256836,2026-03-29T22:19:17.640,2026-03-29T18:19:17.640,-33364.979999999996,-46305.854999999996,-85645.665,-50596.83,-12490.289999999999,-17858.34,6779.16,-45517.77,-3.0262097428606993,-4.831220858115285,-5.0148183105470965,3.4019318036202875,1.597293235668131,-5.7100474739245435,-10.943378586916324,-4.373875042896346,0.280761,-0.127135905,0.9174781200000001,-9.59854,-14.55804,-40.45426,69.0
1774822757.6405747,1.5020370483398438e-05,2026-03-29T22:19:17.640,2026-03-29T18:19:17.640,-33405.39,-46337.31,-85676.44499999999,-50614.02,-12499.74,-17861.489999999998,6775.335,-45538.064999999995,-2.457763120339502,-2.534760104347587,-2.0424033628211795,0.7923965129306669,-0.49596431366156535,-4.275176453112534,-6.640890445045375,-3.989894326201021,0.280761,-0.127135905,0.9174781200000001,-9.59854,-14.55804,-40.45426,69.0
1774822757.6452155,0.004640817642211914,2026-03-29T22:19:17.645,2026-03-29T18:19:17.645,-33376.86,-46309.095,-85659.165,-50642.729999999996,-12535.289999999999,-17887.184999999998,6776.235,-45531.63,-0.7059812004466268,0.891683674357141,1.8263718016210404,-1.8542478251899552,-2.1013300537628576,-0.866348257280067,0.5543359155007692,-1.6878664519589932,0.280761,-0.127135905,0.9174781200000001,-9.59854,-14.55804,-40.45426,69.0
1774822757.6452355,2.002716064453125e-05,2026-03-29T22:19:17.645,2026-03-29T18:19:17.645,-33363.18,-46306.08,-85660.56,-50656.68,-12547.845,-17896.364999999998,6776.82,-45525.104999999996,1.4990091353835564,4.013248492127943,5.0794660503721385,-3.1431198728549057,-2.272348342980802,3.2276803386663095,7.46530961649871,1.5611202532062565,0.280761,-0.127135905,0.9174781200000001,-9.59854,-14.55804,-40.45426,69.0
1774822757.648328,0.003092527389526367,2026-03-29T22:19:17.648,2026-03-29T18:19:17.648,-33378.119999999995,-46300.095,-85634.775,-50618.564999999995,-12508.875,-17863.2,6778.844999999999,-45539.009999999995,3.1642844957690137,5.491892931640803,6.3902073028863935,-2.546167051805519,-0.9458305860786612,6.270497634546582,11.057947213283036,4.270225699713813,0.279357195,-0.12646452,0.902036265,-13.10834,-17.73212,-44.5592,69.0
1774822757.648346,1.7881393432617188e-05,2026-03-29T22:19:17.648,2026-03-29T18:19:17.648,-33396.795,-46309.365,-85645.395,-50620.185,-12509.505,-17866.934999999998,6777.0,-45561.689999999995,3.4824614030923278,4.659965823419786,5.151710775477785,-0.6208599987278596,1.031069603566912,6.809002541735562,9.779800445242962,5.120905266169208,0.279357195,-0.12646452,0.902036265,-13.10834,-17.73212,-44.5592,69.0
1774822757.6530223,0.004676342010498047,2026-03-29T22:19:17.653,2026-03-29T18:19:17.653,-33392.655,-46321.695,-85665.915,-50625.494999999995,-12513.33,-17873.235,6768.675,-45566.235,2.221022296966762,1.821912285854276,1.758990165516054,1.3810898384681662,2.403779054821313,4.36958227578602,4.234536816581658,3.6061112010391314,0.279357195,-0.12646452,0.902036265,-13.10834,-17.73212,-44.5592,69.0
1774822757.6530485,2.6226043701171875e-05,2026-03-29T22:19:17.653,2026-03-29T18:19:17.653,-33390.63,-46329.479999999996,-85668.705,-50622.84,-12511.215,-17873.235,6742.125,-45573.705,-0.13446794001136553,-1.852347380872426,-2.4930831307217978,2.269274478835775,2.2565898009149823,-0.2152935970957884,-3.102650040511628,0.3177382660119646,0.279357195,-0.12646452,0.902036265,-13.10834,-17.73212,-44.5592,69.0
1774822757.6561613,0.00311279296875,2026-03-29T22:19:17.656,2026-03-29T18:19:17.656,-33386.13,-46309.14,-85636.395,-50615.64,-12507.39,-17867.385,6739.245,-45583.064999999995,-2.5645384482886513,-4.807948831505934,-5.886587966802856,1.5965544804246972,0.5741633038403023,-5.054158972502187,-8.994859434190937,-3.2798863318446454,0.279357195,-0.12646452,0.902036265,-13.10834,-17.73212,-44.5592,69.0
1774822757.6561804,1.9073486328125e-05,2026-03-29T22:19:17.656,2026-03-29T18:19:17.656,-33388.515,-46313.82,-85652.28,-50640.93,-12530.34,-17885.295,6740.505,-45589.32,-3.9588774448402626,-5.7635049504680715,-6.967572227406629,-0.11490938686813718,-1.7110764543971064,-7.969490482678656,-10.878772125851023,-5.506485767751738,0.279357195,-0.12646452,0.902036265,-13.10834,-17.73212,-44.5592,69.0
1774822757.6618369,0.00565648078918457,2026-03-29T22:19:17.661,2026-03-29T18:19:17.661,-33375.195,-46311.03,-85661.28,-50633.189999999995,-12526.875,-17891.28,6752.384999999999,-45588.555,-3.624817255838558,-4.2688424198849155,-5.173213429071847,-1.7187819274618388,-3.227943929849944,-7.485885359627401,-7.985709470101566,-5.2557193906817865,0.279357195,-0.12646452,0.902036265,-13.10834,-17.73212,-44.5592,69.0
1774822757.6618557,1.8835067749023438e-05,2026-03-29T22:19:17.661,2026-03-29T18:19:17.661,-33362.055,-46301.445,-85656.15,-50633.729999999996,-12527.414999999999,-17889.795,6776.639999999999,-45582.84,-1.6277395330250954,-0.9184428243997095,-1.1267006026675652,-2.149524080933293,-2.956884284781561,-3.5813978180213866,-1.6554433206027426,-2.544450646171975,0.279357195,-0.12646452,0.902036265,-13.10834,-17.73212,-44.5592,69.0
1774822757.66485,0.0029942989349365234,2026-03-29T22:19:17.664,2026-03-29T18:19:17.664,-33373.08,-46305.54,-85649.94,-50635.439999999995,-12524.22,-17883.27,6762.554999999999,-45591.93,1.2025993167173201,2.881359126813373,3.5557635412188193,-1.0732190025625026,-0.856979963596406,2.1830987115205236,5.285465575077033,1.4515715643700535,0.279357195,-0.12646452,0.902036265,-13.10834,-17.73212,-44.5592,69.0
1774822757.6648679,1.7881393432617188e-05,2026-03-29T22:19:17.664,2026-03-29T18:19:17.664,-33361.56,-46299.689999999995,-85641.84,-50624.595,-12516.48,-17875.26,6757.65,-45589.229999999996,3.6178499964132107,5.502635382746536,6.901936190569722,0.8959222404936134,2.038442484389231,7.275979049937168,9.791745137248997,4.911569187558426,0.279357195,-0.12646452,0.902036265,-13.10834,-17.73212,-44.5592,69.0
1774822757.6693506,0.004482746124267578,2026-03-29T22:19:17.669,2026-03-29T18:19:17.669,-33382.935,-46310.85,-85646.925,-50621.49,-12508.785,-17861.04,6790.679999999999,-45604.665,4.504416524124158,5.796419004265301,7.419096611330023,2.543368236944204,4.1386299801685755,9.316306341994487,9.942283156503557,6.206571680004502,0.27990651,-0.12915006,0.8923317000000001,-15.305779999999999,-18.510379999999998,-46.28358,69.0
1774822757.6693652,1.4543533325195312e-05,2026-03-29T22:19:17.669,2026-03-29T18:19:17.669,-33391.305,-46308.104999999996,-85641.075,-50613.075,-12502.619999999999,-17857.89,6800.8949999999995,-45624.915,3.397872961328649,3.6009504229404734,4.772220755357043,2.7711427453146693,4.16288166066123,7.203847593913929,5.762563032438043,4.671049690202846,0.27990651,-0.12915006,0.8923317000000001,-15.305779999999999,-18.510379999999998,-46.28358,69.0
1774822757.6723475,0.0029823780059814453,2026-03-29T22:19:17.672,2026-03-29T18:19:17.672,-33386.58,-46311.345,-85652.055,-50626.395,-12517.02,-17874.63,6789.915,-45629.909999999996,0.7203294138394245,-0.1693604881388534,-0.00935972991066608,1.2719720633101117,1.887985097504797,1.713436697543445,-0.8269049369770087,0.9413659557649288,0.27990651,-0.12915006,0.8923317000000001,-15.305779999999999,-18.510379999999998,-46.28358,69.0
1774822757.6723597,1.2159347534179688e-05,2026-03-29T22:19:17.672,2026-03-29T18:19:17.672,-33378.84,-46301.939999999995,-85643.91,-50615.64,-12510.494999999999,-17880.93,6746.3099999999995,-45639.945,-2.37856321721201,-3.903256930771172,-4.920681221134582,-1.2352615379863527,-1.6494653354981175,-4.768177128879253,-6.895402457227549,-3.3099938253063432,0.27990651,-0.12915006,0.8923317000000001,-15.305779999999999,-18.510379999999998,-46.28358,69.0
1774822757.6765392,0.004179477691650391,2026-03-29T22:19:17.676,2026-03-29T18:19:17.676,-33379.74,-46304.729999999996,-85645.485,-50616.405,-12510.765,-17884.305,6733.304999999999,-45646.29,-4.518212311989067,-5.9842280112392645,-7.825977753436846,-3.3623856367083245,-4.637414335725638,-9.287739432149115,-9.811163569523776,-6.132371043062689,0.27990651,-0.12915006,0.8923317000000001,-15.305779999999999,-18.510379999999998,-46.28358,69.0
1774822757.6765735,3.4332275390625e-05,2026-03-29T22:19:17.676,2026-03-29T18:19:17.676,-33401.61,-46328.715,-85677.97499999999,-50650.47,-12535.65,-17896.364999999998,6759.719999999999,-45659.61,-4.70554592216836,-5.496550410836079,-7.40218309081579,-3.819208894023935,-5.427937364008961,-9.69220170879693,-8.387472314263709,-6.199728356759225,0.27990651,-0.12915006,0.8923317000000001,-15.305779999999999,-18.510379999999998,-46.28358,69.0
1774822757.6812518,0.004678249359130859,2026-03-29T22:19:17.681,2026-03-29T18:19:17.681,-33406.74,-46322.955,-85661.37,-50615.505,-12498.57,-17862.03,6768.54,-45676.215,-2.7968289750507207,-2.6346345600864964,-3.757178376161733,-2.168238443537131,-3.4403848746820818,-5.674472061869292,-3.3645965213981337,-3.436678402081472,0.27990651,-0.12915006,0.8923317000000001,-15.305779999999999,-18.510379999999998,-46.28358,69.0
1774822757.6812773,2.5510787963867188e-05,2026-03-29T22:19:17.681,2026-03-29T18:19:17.681,-33388.335,-46299.78,-85628.43,-50604.57,-12494.699999999999,-17859.42,6737.985,-45673.38,0.4124245109276839,1.3704549022121015,1.5737341980977446,0.8646775935510427,0.46480779826022095,1.0190180998441305,2.9672909564132612,0.9294087010875487,0.27990651,-0.12915006,0.8923317000000001,-15.305779999999999,-18.510379999999998,-46.28358,69.0
1774822757.6844575,0.003180265426635742,2026-03-29T22:19:17.684,2026-03-29T18:19:17.684,-33367.5,-46292.22,-85625.86499999999,-50600.88,-12494.52,-17862.3,6781.094999999999,-45653.04,3.520875589131927,4.782265469287682,6.276430785347887,3.7208294434238818,4.367474725131915,7.35104000476274,7.8146288259145065,4.921045212899817,0.27990651,-0.12915006,0.8923317000000001,-15.305779999999999,-18.510379999999998,-46.28358,69.0
1774822757.684483,2.5510787963867188e-05,2026-03-29T22:19:17.684,2026-03-29T18:19:17.684,-33379.695,-46308.104999999996,-85637.87999999999,-50614.064999999995,-12494.115,-17846.505,6822.36,-45650.655,5.1376964004143915,6.118431062615887,8.277350404315232,4.824715564629647,6.251332944001304,10.392479767921458,9.116998337709603,6.715637353929332,0.27990651,-0.12915006,0.8923317000000001,-15.305779999999999,-18.510379999999998,-46.28358,69.0
1774822757.6895473,0.005064249038696289,2026-03-29T22:19:17.689,2026-03-29T18:19:17.689,-33361.92,-46287.54,-85619.16,-50599.08,-12478.59,-17827.469999999998,6787.8,-45656.235,4.508890060219713,4.803345818133083,6.677611486138747,3.452955046238542,5.058268333719457,8.7036090080422,6.424698581551476,5.4842317982274915,0.27575613,-0.13269009,0.890805825,-18.29674,-21.287699999999997,-51.624579999999995,69.0
1774822757.6895752,2.7894973754882812e-05,2026-03-29T22:19:17.689,2026-03-29T18:19:17.689,-33355.44,-46288.215,-85632.39,-50608.305,-12491.055,-17844.795,6722.955,-45663.03,1.8697714902426392,1.4225748288780393,2.171379354939394,0.17749882277720866,1.2770543683054871,3.0341126140748482,1.0432542222015717,1.774865736796785,0.27575613,-0.13269009,0.890805825,-18.29674,-21.287699999999997,-51.624579999999995,69.0
1774822757.6922822,0.0027070045471191406,2026-03-29T22:19:17.692,2026-03-29T18:19:17.692,-33388.02,-46322.28,-85680.81,-50651.325,-12534.255,-17886.555,6710.264999999999,-45683.505,-1.6417199791444608,-2.536823833179398,-3.2533944180317116,-3.378144257771025,-3.2589597356617555,-4.00703350627064,-4.595005316939486,-2.7370630177752036,0.27575613,-0.13269009,0.890805825,-18.29674,-21.287699999999997,-51.624579999999995,69.0
1774822757.692299,1.6689300537109375e-05,2026-03-29T22:19:17.692,2026-03-29T18:19:17.692,-33395.534999999996,-46335.555,-85693.455,-50655.284999999996,-12534.255,-17883.809999999998,6778.08,-45687.645,-4.479856395144518,-5.345817942068538,-7.204365204857192,-5.363321332773621,-6.280735118686118,-9.168303798727267,-8.03126728810439,-6.015007136456004,0.27575613,-0.13269009,0.890805825,-18.29674,-21.287699999999997,-51.624579999999995,69.0
1774822757.7022018,0.0099029541015625,2026-03-29T22:19:17.702,2026-03-29T18:19:17.702,-33378.659999999996,-46307.655,-85655.295,-50640.39,-12526.154999999999,-17879.13,6803.82,-45680.31,-5.377239899800955,-5.798066903778616,-7.960739260380737,-4.678809259081573,-6.240081442867699,-10.084230904523993,-7.854376366887969,-6.589208071027226,0.27575613,-0.13269009,0.890805825,-18.29674,-21.287699999999997,-51.624579999999995,69.0
1774822757.7022333,3.147125244140625e-05,2026-03-29T22:19:17.702,2026-03-29T18:19:17.702,-33376.229999999996,-46289.79,-85623.93,-50615.055,-12506.13,-17867.43,6785.91,-45682.875,-3.915190866598895,-3.7371408253820455,-5.241837141754104,-1.5865941236549816,-3.1156081162133726,-6.384721710935885,-4.279250646579731,-4.219476777319813,0.27575613,-0.13269009,0.890805825,-18.29674,-21.287699999999997,-51.624579999999995,69.0
1774822757.7022605,2.7179718017578125e-05,2026-03-29T22:19:17.702,2026-03-29T18:19:17.702,-33365.115,-46286.235,-85622.67,-50602.229999999996,-12489.48,-17851.635,6802.29,-45676.979999999996,-0.7196657417854445,-0.11131432015056594,-0.3155018368363464,2.387192926508774,1.5565071535082708,0.1469887910462803,1.006328599543304,0.007805761987432048,0.27575613,-0.13269009,0.890805825,-18.29674,-21.287699999999997,-51.624579999999995,69.0
1774822757.702273,1.239776611328125e-05,2026-03-29T22:19:17.702,2026-03-29T18:19:17.702,-33373.575,-46296.045,-85628.43,-50588.729999999996,-12471.525,-17828.73,6820.245,-45678.915,2.809461580183346,3.4644599140027514,4.59872825514264,5.222269662098101,5.452235134840578,6.440047580532526,5.633566962806926,4.185673730253988,0.27575613,-0.13269009,0.890805825,-18.29674,-21.287699999999997,-51.624579999999995,69.0
1774822757.704568,0.0022950172424316406,2026-03-29T22:19:17.704,2026-03-29T18:19:17.704,-33390.81,-46318.95,-85655.745,-50601.78,-12482.82,-17837.505,6797.25,-45687.96,5.11767862418874,5.4365607905910505,7.348287118227518,5.451776233920197,6.638245137522459,9.602235832188075,7.613631718602338,6.456256454159315,0.27575613,-0.13269009,0.890805825,-18.29674,-21.287699999999997,-51.624579999999995,69.0
1774822757.7045836,1.5735626220703125e-05,2026-03-29T22:19:17.704,2026-03-29T18:19:17.704,-33391.034999999996,-46326.42,-85674.51,-50629.86,-12506.895,-17859.42,6779.07,-45692.909999999996,5.187183248731882,4.998657695037203,6.8118628852982175,2.936377542770006,4.552412388479213,8.276361409549477,6.193331771236396,5.843187345180724,0.27575613,-0.13269009,0.890805825,-18.29674,-21.287699999999997,-51.624579999999995,69.0
1774822757.7083764,0.0037927627563476562,2026-03-29T22:19:17.708,2026-03-29T18:19:17.708,-33375.51,-46294.064999999995,-85623.3,-50603.939999999995,-12489.615,-17849.385,6786.405,-45693.765,2.9898852806629197,2.4275169790899103,3.3668889998137863,-1.0490610960196902,0.2803982311804452,3.238015460365389,2.137677745984368,2.670969727833201,0.264098445,-0.134704245,0.878965035,-20.784119999999998,-27.81898,-60.30752,69.0
1774822757.7083912,1.4781951904296875e-05,2026-03-29T22:19:17.708,2026-03-29T18:19:17.708,-33377.715,-46299.78,-85633.605,-50613.93,-12500.64,-17860.68,6784.469999999999,-45697.455,-0.5016054607204127,-1.0746491246159908,-1.340379625904333,-4.469871847830838,-4.01213962722535,-3.0363094517019635,-2.664370181165635,-1.6083779133568337,0.264098445,-0.134704245,0.878965035,-20.784119999999998,-27.81898,-60.30752,69.0
1774822757.7124548,0.004063606262207031,2026-03-29T22:19:17.712,2026-03-29T18:19:17.712,-33391.979999999996,-46331.369999999995,-85686.345,-50653.665,-12539.43,-17898.21,6775.469999999999,-45707.67,-3.7493698197808736,-3.9467604563840477,-5.191865692073781,-5.587709789495853,-6.193615907071299,-7.597295314052822,-6.073899094837388,-5.088339455234232,0.264098445,-0.134704245,0.878965035,-20.784119999999998,-27.81898,-60.30752,69.0
1774822757.7124712,1.6450881958007812e-05,2026-03-29T22:19:17.712,2026-03-29T18:19:17.712,-33407.909999999996,-46345.365,-85698.855,-50652.99,-12535.064999999999,-17894.565,6767.235,-45718.02,-5.33511304758763,-4.9755088770650495,-6.571262069882869,-3.863466064446352,-5.247234520274688,-8.43300669773692,-6.6542511595199,-6.264859238921231,0.264098445,-0.134704245,0.878965035,-20.784119999999998,-27.81898,-60.30752,69.0
1774822757.719108,0.006636857986450195,2026-03-29T22:19:17.719,2026-03-29T18:19:17.719,-33394.95,-46315.89,-85651.605,-50623.515,-12516.029999999999,-17882.684999999998,6765.4349999999995,-45715.634999999995,-4.586329325135898,-3.8172080073223333,-5.056976846092864,-0.23058185614717058,-1.7613536915263046,-5.375984984624248,-4.278432531893315,-4.688666173265115,0.264098445,-0.134704245,0.878965035,-20.784119999999998,-27.81898,-60.30752,69.0
1774822757.7191217,1.3589859008789062e-05,2026-03-29T22:19:17.719,2026-03-29T18:19:17.719,-33390.63,-46320.119999999995,-85662.72,-50621.939999999995,-12512.97,-17881.605,6741.045,-45715.994999999995,-1.8640912439862338,-1.1056316293634518,-1.529684612043279,3.405039364690108,2.414170001101994,-0.08877344597960488,-0.134337085690126,-1.1292336130246199,0.264098445,-0.134704245,0.878965035,-20.784119999999998,-27.81898,-60.30752,69.0
1774822757.723618,0.004496335983276367,2026-03-29T22:19:17.723,2026-03-29T18:19:17.723,-33379.29,-46308.645,-85646.745,-50606.595,-12496.365,-17863.245,6711.66,-45713.924999999996,1.6121223521574124,1.8846538003210693,2.3198298166908833,5.172213219210163,5.151906653203959,4.826239303801822,3.85489706819595,2.8048568701266676,0.264098445,-0.134704245,0.878965035,-20.784119999999998,-27.81898,-60.30752,69.0
1774822757.7236383,2.0265579223632812e-05,2026-03-29T22:19:17.723,2026-03-29T18:19:17.723,-33356.205,-46280.744999999995,-85623.03,-50614.604999999996,-12499.425,-17852.309999999998,6725.429999999999,-45701.055,4.317415349527951,3.8442193698413853,4.814168645083535,4.213695411998441,5.146792482586712,7.12066528643948,5.918380263220737,5.400202182141225,0.264098445,-0.134704245,0.878965035,-20.784119999999998,-27.81898,-60.30752,69.0
1774822757.7236576,1.9311904907226562e-05,2026-03-29T22:19:17.723,2026-03-29T18:19:17.723,-33360.345,-46292.49,-85640.58,-50628.195,-12503.609999999999,-17851.364999999998,6801.795,-45696.465,5.098733678909737,4.012869648144911,5.037144756864217,1.1189506059342382,2.5570360151945843,5.948359272509118,5.225920314870229,5.589121047454736,0.264098445,-0.134704245,0.878965035,-20.784119999999998,-27.81898,-60.30752,69.0
1774822757.7236683,1.0728836059570312e-05,2026-03-29T22:19:17.723,2026-03-29T18:19:17.723,-33396.615,-46312.74,-85637.655,-50616.27,-12495.285,-17850.78,6826.365,-45720.36,3.6718352627597732,2.4761436963291126,3.164091870219404,-2.4147499628580786,-1.1367485138128035,2.1700980941751324,2.2256846745411147,3.385958103264625,0.264098445,-0.134704245,0.878965035,-20.784119999999998,-27.81898,-60.30752,69.0
1774822757.728774,0.005105733871459961,2026-03-29T22:19:17.728,2026-03-29T18:19:17.728,-33374.97,-46302.479999999996,-85628.52,-50599.53,-12489.525,-17864.73,6783.12,-45721.395,0.7210407334464416,0.05722238141323633,0.2583703085086471,-4.505156827347312,-3.958823562635345,-2.1910977399094484,-1.6085189744383852,-0.16725913459231373,0.25524837,-0.133605615,0.8629738650000001,-20.784119999999998,-35.81522,-64.91604,69.0
1774822757.7287965,2.2411346435546875e-05,2026-03-29T22:19:17.728,2026-03-29T18:19:17.728,-33360.39,-46302.165,-85641.84,-50611.229999999996,-12502.26,-17879.535,6767.235,-45714.735,-2.431497940464747,-2.116840532598358,-2.3169357287684904,-4.092862245182747,-4.4965446679848755,-5.023030747609936,-4.488769608406033,-3.497994159421818,0.25524837,-0.133605615,0.8629738650000001,-20.784119999999998,-35.81522,-64.91604,69.0
1774822757.732878,0.0040814876556396484,2026-03-29T22:19:17.732,2026-03-29T18:19:17.732,-33382.305,-46306.755,-85645.935,-50620.365,-12497.85,-17855.055,6779.61,-45727.38,-4.4263483796438345,-3.148504968212924,-3.551839986604549,-1.4927545146179884,-2.622265493341555,-5.159777628796209,-5.1452546271347614,-5.204225375841273,0.25524837,-0.133605615,0.8629738650000001,-20.784119999999998,-35.81522,-64.91604,69.0
1774822757.732905,2.6941299438476562e-05,2026-03-29T22:19:17.732,2026-03-29T18:19:17.732,-33383.52,-46304.64,-85656.87,-50629.049999999996,-12510.63,-17866.079999999998,6778.44,-45737.28,-4.4608617521938365,-2.746468435194377,-3.1877918799643883,1.8033595364531778,0.49588612362628187,-2.8661157514259723,-3.3926664141947493,-4.6447766812835996,0.25524837,-0.133605615,0.8629738650000001,-20.784119999999998,-35.81522,-64.91604,69.0
1774822757.736726,0.003821134567260742,2026-03-29T22:19:17.736,2026-03-29T18:19:17.736,-33388.604999999996,-46334.25,-85694.12999999999,-50621.534999999996,-12504.015,-17878.454999999998,6771.825,-45740.924999999996,-2.6134274321681237,-1.2841363814833764,-1.7026229184288288,3.9595652995018176,3.0798800677025695,0.4326564721220949,-0.17481036201298422,-2.1707669682613884,0.25524837,-0.133605615,0.8629738650000001,-20.784119999999998,-35.81522,-64.91604,69.0
1774822757.736752,2.5987625122070312e-05,2026-03-29T22:19:17.736,2026-03-29T18:19:17.736,-33392.88,-46353.555,-85714.33499999999,-50625.854999999996,-12504.555,-17884.079999999998,6765.929999999999,-45739.89,0.2339559906287506,0.4558464006248393,0.052041849825831786,3.8070147226760573,3.7352100909170747,2.9825176967718923,2.9206773455732993,1.0797388568324495,0.25524837,-0.133605615,0.8629738650000001,-20.784119999999998,-35.81522,-64.91604,69.0
1774822757.7408872,0.0041351318359375,2026-03-29T22:19:17.740,2026-03-29T18:19:17.740,-33387.39,-46313.909999999996,-85658.265,-50654.52,-12532.275,-17887.77,6763.86,-45747.405,2.821022448879713,1.6956615683203378,1.3269054297705263,1.4808659194654188,2.2042551427636248,3.625885127590736,4.436634738304624,3.7087780186031125,0.25524837,-0.133605615,0.8629738650000001,-20.784119999999998,-35.81522,-64.91604,69.0
1774822757.7409265,3.933906555175781e-05,2026-03-29T22:19:17.740,2026-03-29T18:19:17.740,-33379.604999999996,-46284.119999999995,-85625.81999999999,-50645.34,-12531.015,-17885.475,6753.554999999999,-45763.064999999995,4.075763810987575,2.017437550640711,1.8024336661562341,-1.6648315054100349,-0.5274638834255075,2.334426415098985,3.7358192485061763,4.661866750726538,0.25524837,-0.133605615,0.8629738650000001,-20.784119999999998,-35.81522,-64.91604,69.0
1774822757.744554,0.0036275386810302734,2026-03-29T22:19:17.744,2026-03-29T18:19:17.744,-33387.84,-46308.284999999996,-85654.08,-50634.99,-12520.755,-17889.255,6738.57,-45769.905,3.563516754542297,1.4935082196593337,1.6202578964895742,-3.8174078325435445,-2.8187940251891828,0.1007252527114005,1.2774384218170718,3.6467407764645254,0.25524837,-0.133605615,0.8629738650000001,-20.784119999999998,-35.81522,-64.91604,69.0
1774822757.744572,1.7881393432617188e-05,2026-03-29T22:19:17.744,2026-03-29T18:19:17.744,-33388.695,-46311.479999999996,-85651.29,-50610.195,-12494.205,-17864.91,6745.679999999999,-45775.305,1.627924856692233,0.5569244712018249,1.1547009623721127,-3.7234024688459297,-3.318586365229734,-1.7052214531770158,-1.6444541513015551,1.2037752723537407,0.25524837,-0.133605615,0.8629738650000001,-20.784119999999998,-35.81522,-64.91604,69.0
