unix_time_s,dt_s,UTC,LOCAL,EMG1_Raw,EMG2_Raw,EMG3_Raw,EMG4_Raw,EMG5_Raw,EMG6_Raw,EMG7_Raw,EMG8_Raw,EMG1_Filtered,EMG2_Filtered,EMG3_Filtered,EMG4_Filtered,EMG5_Filtered,EMG6_Filtered,EMG7_Filtered,EMG8_Filtered,Accel1_Raw,Accel2_Raw,Accel3_Raw,Gyro1_Raw,Gyro2_Raw,Gyro3_Raw,Battery
1774823423.0716755,,2026-03-29T22:30:23.071,2026-03-29T18:30:23.071,-22764.149999999998,-42799.77,-77633.955,-48936.33,-9305.145,-16339.455,7414.11,-61011.494999999995,-0.9337258772575757,-0.8730072566172437,-1.027901288074153,-1.100669211231156,-1.6357725887812578,-1.8424536708876964,-1.7487024512537872,-0.7375998475160869,0.331236945,-0.85412379,0.44592171,7.340059999999999,10.9872,-29.77226,68.0
1774823423.0717015,2.5987625122070312e-05,2026-03-29T22:30:23.071,2026-03-29T18:30:23.071,-22760.82,-42802.02,-77639.715,-48945.509999999995,-9315.9,-16353.135,7403.985,-61003.845,-9.132273316021253,-2.3393366593352383,2.093133740678025,2.9259661079696873,1.910727962180787,1.5966101652168583,1.3878206251629492,-8.883373304310025,0.331236945,-0.85412379,0.44592171,7.340059999999999,10.9872,-29.77226,68.0
1774823423.0717244,2.288818359375e-05,2026-03-29T22:30:23.071,2026-03-29T18:30:23.071,-22779.27,-42829.38,-77672.925,-48982.095,-9352.44,-16385.805,7389.674999999999,-61010.595,-13.074747296212111,-2.582847497027562,4.4790221184540275,5.88050827260854,4.919451250671419,4.674306648679225,4.465739095510092,-12.885868522218061,0.331236945,-0.85412379,0.44592171,7.340059999999999,10.9872,-29.77226,68.0
1774823423.071734,9.5367431640625e-06,2026-03-29T22:30:23.071,2026-03-29T18:30:23.071,-22784.129999999997,-42834.195,-77671.89,-48976.47,-9349.109999999999,-16380.945,7399.485,-61011.494999999995,-10.815917593250916,-1.4431029660062162,5.014265955780498,6.420051151854088,6.079948459924131,6.117486840117815,6.266459137031654,-10.721806665037379,0.331236945,-0.85412379,0.44592171,7.340059999999999,10.9872,-29.77226,68.0
1774823423.071766,3.1948089599609375e-05,2026-03-29T22:30:23.071,2026-03-29T18:30:23.071,-22782.375,-42827.805,-77659.2,-48961.755,-9336.51,-16370.955,7400.5199999999995,-61015.409999999996,-3.3714929219654786,0.5046296714380202,3.3352225661650836,4.177416882077049,4.73768986171061,5.164280235049817,5.804242135251314,-3.3332196116786434,0.327208635,-0.842344035,0.4504383,5.4936,5.96666,-30.489479999999997,68.0
1774823423.071776,1.0013580322265625e-05,2026-03-29T22:30:23.071,2026-03-29T18:30:23.071,-22768.515,-42819.39,-77652.54,-48953.655,-9326.43,-16360.965,7403.94,-61003.845,5.737001828141743,2.23481843386827,0.04750704480495607,-0.020665243439590683,1.2469454618563647,1.9568484115250446,2.8539052782115624,5.78085735105637,0.327208635,-0.842344035,0.4504383,5.4936,5.96666,-30.489479999999997,68.0
1774823423.0758376,0.004061698913574219,2026-03-29T22:30:23.075,2026-03-29T18:30:23.075,-22767.254999999997,-42824.564999999995,-77664.33,-48967.604999999996,-9341.865,-16375.095,7403.8949999999995,-61000.064999999995,12.15715504320935,2.806635253295161,-3.476184717409021,-4.4410548315217735,-3.0700620086962913,-2.3855223456278636,-1.7414837506690255,12.229651117571116,0.327208635,-0.842344035,0.4504383,5.4936,5.96666,-30.489479999999997,68.0
1774823423.075848,1.049041748046875e-05,2026-03-29T22:30:23.075,2026-03-29T18:30:23.075,-22767.975,-42830.01,-77674.185,-48983.939999999995,-9360.18,-16392.735,7397.594999999999,-60999.165,12.799596103414853,1.8712254571617284,-5.660398048915954,-7.147806967426866,-6.396529625916219,-6.112452347693148,-6.221838895598956,12.856421132492914,0.327208635,-0.842344035,0.4504383,5.4936,5.96666,-30.489479999999997,68.0
1774823423.0827515,0.006903409957885742,2026-03-29T22:30:23.082,2026-03-29T18:30:23.082,-22761.18,-42826.005,-77669.19,-48980.295,-9356.445,-16391.565,7391.835,-60994.125,7.337039710292144,-0.12047567398882837,-5.426558962139707,-6.843231501347777,-7.174527977769148,-7.530071130644266,-8.56210014300607,7.290485417024752,0.327208635,-0.842344035,0.4504383,5.4936,5.96666,-30.489479999999997,68.0
1774823423.082769,1.7404556274414062e-05,2026-03-29T22:30:23.082,2026-03-29T18:30:23.082,-22770.315,-42835.32,-77680.845,-48991.59,-9369.27,-16406.37,7378.875,-61001.28,-1.6245972984663768,-2.1307732136783017,-2.719798700605339,-3.4848432190851875,-4.832793342835981,-5.771109818394235,-7.396950439987019,-1.840909646819787,0.327208635,-0.842344035,0.4504383,5.4936,5.96666,-30.489479999999997,68.0
1774823423.082782,1.3113021850585938e-05,2026-03-29T22:30:23.082,2026-03-29T18:30:23.082,-22776.93,-42840.18,-77685.12,-48991.409999999996,-9365.13,-16400.97,7378.2,-61008.93,-9.794161092821968,-3.0703313376234838,1.3922011418276292,1.6130273235853931,-0.14981378575523127,-1.2976231110590484,-2.7914928729688313,-10.15933465038681,0.327208635,-0.842344035,0.4504383,5.4936,5.96666,-30.489479999999997,68.0
1774823423.0827863,4.291534423828125e-06,2026-03-29T22:30:23.082,2026-03-29T18:30:23.082,-22766.445,-42828.975,-77674.68,-48981.825,-9350.1,-16383.555,7395.075,-60999.93,-13.262396352904046,-2.3813841960572923,5.127774334065667,6.2772454848385735,4.962686427220777,4.145644041871891,3.5683736850117826,-13.645781565109695,0.327208635,-0.842344035,0.4504383,5.4936,5.96666,-30.489479999999997,68.0
1774823423.0872438,0.0044574737548828125,2026-03-29T22:30:23.087,2026-03-29T18:30:23.087,-22775.489999999998,-42826.59,-77664.42,-48974.939999999995,-9347.085,-16379.189999999999,7397.6849999999995,-61008.119999999995,-10.386719659928486,-0.3594258420556418,6.758436383146718,8.39457086501586,8.224565736769769,8.186525665601732,8.958936934038617,-10.592345338278546,0.327208635,-0.842344035,0.4504383,5.4936,5.96666,-30.489479999999997,68.0
1774823423.087265,2.1219253540039062e-05,2026-03-29T22:30:23.087,2026-03-29T18:30:23.087,-22755.555,-42817.229999999996,-77661.58499999999,-48972.24,-9342.675,-16370.955,7414.2,-60990.165,-2.578400222220531,1.9684521240331496,5.407160556032687,6.867169586345064,8.003796363325906,8.858717335767142,10.794447866546282,-2.442384734139394,0.327208635,-0.842344035,0.4504383,5.4936,5.96666,-30.489479999999997,68.0
1774823423.0918632,0.004598140716552734,2026-03-29T22:30:23.091,2026-03-29T18:30:23.091,-22739.265,-42815.655,-77667.75,-48980.564999999995,-9352.08,-16382.564999999999,7408.799999999999,-60972.255,6.3893328036204595,3.3613348608669367,1.5097152990970162,2.1738824520699715,4.132139017828376,5.563931836008263,7.883780987855345,6.895939327971891,0.33154212,-0.841123335,0.45495489,1.9990599999999998,3.1283,-30.062199999999997,68.0
1774823423.09189,2.6941299438476562e-05,2026-03-29T22:30:23.091,2026-03-29T18:30:23.091,-22744.53,-42826.905,-77682.59999999999,-48994.02,-9367.83,-16403.805,7387.5599999999995,-60973.29,12.213170216320517,3.0186944006541663,-3.300121681134877,-3.747040796974559,-1.8876012598849186,-0.5102910693066446,1.149658692696565,12.934336193770449,0.33154212,-0.841123335,0.45495489,1.9990599999999998,3.1283,-30.062199999999997,68.0
1774823423.0982773,0.006387233734130859,2026-03-29T22:30:23.098,2026-03-29T18:30:23.098,-22750.379999999997,-42840.99,-77700.42,-49007.924999999996,-9380.925,-16416.315,7371.99,-60978.689999999995,12.138133371723345,1.0287245998437904,-6.868946193981453,-8.288111700824915,-7.4415592938092745,-6.780558370978182,-6.606517775715751,12.773344449355928,0.33154212,-0.841123335,0.45495489,1.9990599999999998,3.1283,-30.062199999999997,68.0
1774823423.0982919,1.4543533325195312e-05,2026-03-29T22:30:23.098,2026-03-29T18:30:23.098,-22753.575,-42839.325,-77697.495,-49005.63,-9379.529999999999,-16411.364999999998,7354.035,-60991.47,6.272410116053426,-1.6359377363426737,-7.487928266316548,-9.319629382698531,-9.937583779967824,-10.361858812320943,-11.874074419214033,6.501744424905489,0.33154212,-0.841123335,0.45495489,1.9990599999999998,3.1283,-30.062199999999997,68.0
1774823423.104473,0.006181240081787109,2026-03-29T22:30:23.104,2026-03-29T18:30:23.104,-22757.579999999998,-42826.365,-77673.42,-48983.715,-9364.32,-16401.015,7356.195,-61002.405,-2.4942768429388935,-3.592129800090627,-4.711219911884767,-6.189914865833629,-8.021639892872617,-9.405749524219983,-12.046876338797022,-2.8525310584405763,0.33154212,-0.841123335,0.45495489,1.9990599999999998,3.1283,-30.062199999999997,68.0
1774823423.1044967,2.3603439331054688e-05,2026-03-29T22:30:23.104,2026-03-29T18:30:23.104,-22792.59,-42825.915,-77646.51,-48948.84,-9331.92,-16370.279999999999,7385.085,-61039.395,-9.917300404765463,-3.7592438912256596,0.36380073540185326,-0.1080576537396656,-2.3040210509623793,-4.0569963660008215,-6.727942110162911,-10.79290614433389,0.33154212,-0.841123335,0.45495489,1.9990599999999998,3.1283,-30.062199999999997,68.0
1774823423.1045177,2.09808349609375e-05,2026-03-29T22:30:23.104,2026-03-29T18:30:23.104,-22810.32,-42826.14,-77636.87999999999,-48934.125,-9315.315,-16350.615,7416.2699999999995,-61054.244999999995,-12.462729840745219,-1.9454762475389529,5.519127338993557,6.3065106847532615,4.791027063206372,3.467493598664393,1.935033270791529,-13.527833861078138,0.33154212,-0.841123335,0.45495489,1.9990599999999998,3.1283,-30.062199999999997,68.0
1774823423.104524,6.198883056640625e-06,2026-03-29T22:30:23.104,2026-03-29T18:30:23.104,-22791.645,-42834.33,-77658.3,-48955.14,-9331.154999999999,-16361.189999999999,7422.795,-61025.49,-9.001649252632232,1.0069350227195482,8.385458749918712,10.149809932887049,10.046800491806547,9.786484858875541,10.112586822835485,-9.790982820084349,0.33154212,-0.841123335,0.45495489,1.9990599999999998,3.1283,-30.062199999999997,68.0
1774823423.1100287,0.0055048465728759766,2026-03-29T22:30:23.110,2026-03-29T18:30:23.110,-22778.864999999998,-42833.43,-77671.98,-48974.805,-9350.19,-16375.814999999999,7411.545,-61007.805,-1.3152623433161463,3.6128901668563693,7.535015976635824,9.552295176220378,10.920359004523487,11.883973817036408,14.010733653131224,-1.4294011786124075,0.33154212,-0.841123335,0.45495489,1.9990599999999998,3.1283,-30.062199999999997,68.0
1774823423.1100576,2.8848648071289062e-05,2026-03-29T22:30:23.110,2026-03-29T18:30:23.110,-22765.004999999997,-42826.86,-77670.315,-48977.505,-9350.865,-16376.894999999999,7405.335,-60995.79,6.817313806170976,4.490291462720259,3.1919127506414147,4.589943190594333,6.7817005807119175,8.564153126962204,11.660727721315036,7.514412077881685,0.33154212,-0.841123335,0.45495489,1.9990599999999998,3.1283,-30.062199999999997,68.0
1774823423.1146502,0.0045926570892333984,2026-03-29T22:30:23.114,2026-03-29T18:30:23.114,-22764.329999999998,-42828.165,-77678.50499999999,-48988.755,-9355.185,-16385.535,7395.66,-61000.695,11.482807926200117,3.0861686574369362,-2.7933945244783303,-2.6576793955029343,-0.6819574878777843,1.1230439901389966,3.9233965538555506,12.767973262757085,0.339903915,-0.85241481,0.45593145,2.3042599999999998,3.2198599999999997,-29.039779999999997,68.0
1774823423.1146877,3.743171691894531e-05,2026-03-29T22:30:23.114,2026-03-29T18:30:23.114,-22766.399999999998,-42822.225,-77664.105,-48982.275,-9354.914999999999,-16389.18,7389.134999999999,-61003.619999999995,10.5269022005343,0.003980108712983718,-7.7305210208942965,-8.97338269845955,-8.140720813842552,-7.136066187903551,-5.808475838607855,11.88083923913148,0.339903915,-0.85241481,0.45593145,2.3042599999999998,3.2198599999999997,-29.039779999999997,68.0
1774823423.1147227,3.504753112792969e-05,2026-03-29T22:30:23.114,2026-03-29T18:30:23.114,-22759.92,-42819.119999999995,-77656.41,-48974.939999999995,-9359.19,-16398.09,7362.179999999999,-60996.015,4.555949923188514,-3.254577123290213,-9.303693422708035,-11.435147054037575,-12.113625433036258,-12.375269485258512,-13.117443335731638,5.372251265261239,0.339903915,-0.85241481,0.45593145,2.3042599999999998,3.2198599999999997,-29.039779999999997,68.0
1774823423.1147408,1.811981201171875e-05,2026-03-29T22:30:23.114,2026-03-29T18:30:23.114,-22751.82,-42818.895,-77661.045,-48979.034999999996,-9361.08,-16395.3,7347.78,-60986.655,-3.421750734781114,-5.0235404377899435,-6.663824297702785,-8.775638664004147,-10.60669223101549,-12.023734187342322,-14.599197039900357,-3.565338941544435,0.339903915,-0.85241481,0.45593145,2.3042599999999998,3.2198599999999997,-29.039779999999997,68.0
1774823423.1194973,0.004756450653076172,2026-03-29T22:30:23.119,2026-03-29T18:30:23.119,-22768.11,-42817.5,-77645.79,-48962.924999999996,-9342.72,-16370.369999999999,7372.62,-61005.42,-9.511297863916775,-4.322500058054505,-0.8803069488377477,-2.032276835306973,-4.120465455929169,-6.054425243384564,-9.475492658989108,-10.640453478342629,0.339903915,-0.85241481,0.45593145,2.3042599999999998,3.2198599999999997,-29.039779999999997,68.0
1774823423.1195211,2.384185791015625e-05,2026-03-29T22:30:23.119,2026-03-29T18:30:23.119,-22774.905,-42817.545,-77645.295,-48959.415,-9336.869999999999,-16372.755,7403.219999999999,-61023.195,-10.839322070854802,-1.3892158531633103,5.485627812607043,5.844954176568376,4.484944703358562,2.904646221360925,-0.005690470486097593,-12.534185438522679,0.339903915,-0.85241481,0.45593145,2.3042599999999998,3.2198599999999997,-29.039779999999997,68.0
1774823423.1238337,0.0043125152587890625,2026-03-29T22:30:23.123,2026-03-29T18:30:23.123,-22751.415,-42808.14,-77646.915,-48964.5,-9344.295,-16382.564999999999,7426.125,-61002.945,-6.91662584764025,2.3904882010878934,9.51972519973882,11.287132465191563,11.252919193290777,10.727570822147486,9.521393565191454,-8.463797431874896,0.339903915,-0.85241481,0.45593145,2.3042599999999998,3.2198599999999997,-29.039779999999997,68.0
1774823423.1238573,2.3603439331054688e-05,2026-03-29T22:30:23.123,2026-03-29T18:30:23.123,-22737.105,-42801.255,-77637.915,-48953.97,-9334.484999999999,-16373.43,7418.565,-60992.189999999995,0.19422405598471035,5.1418646408357755,9.297437739961408,11.733046513502147,12.963239322736182,13.706974821763867,14.759545069572154,-0.49841688972646975,0.339903915,-0.85241481,0.45593145,2.3042599999999998,3.2198599999999997,-29.039779999999997,68.0
1774823423.1278763,0.004019021987915039,2026-03-29T22:30:23.127,2026-03-29T18:30:23.127,-22744.62,-42795.72,-77620.995,-48928.5,-9303.57,-16338.195,7408.304999999999,-60993.225,6.955873896002387,5.433878970475202,4.807961188734445,6.8430015909970034,8.67951119419317,10.332171161356875,13.320306733120837,7.495830509119169,0.339903915,-0.85241481,0.45593145,2.3042599999999998,3.2198599999999997,-29.039779999999997,68.0
1774823423.1279147,3.838539123535156e-05,2026-03-29T22:30:23.127,2026-03-29T18:30:23.127,-22741.515,-42791.895,-77626.035,-48931.965,-9300.285,-16324.425,7429.995,-60983.505,10.117871312312136,3.019942407739399,-1.9868663153823922,-1.2794451979492047,0.260680759724461,2.0667539160847865,5.88195765551435,11.741821353039164,0.339903915,-0.85241481,0.45593145,2.3042599999999998,3.2198599999999997,-29.039779999999997,68.0
1774823423.1315174,0.003602743148803711,2026-03-29T22:30:23.131,2026-03-29T18:30:23.131,-22743.18,-42809.85,-77657.58,-48965.174999999996,-9333.0,-16352.82,7432.92,-60984.045,8.284087535639125,-0.9955392120073151,-8.012058378914912,-8.992124103299146,-8.441880736278433,-7.2790147935528635,-4.131430822545176,10.343753814281241,0.35095125,-0.8598000450000001,0.45593145,1.51074,5.35626,-29.72648,68.0
1774823423.1315324,1.5020370483398438e-05,2026-03-29T22:30:23.131,2026-03-29T18:30:23.131,-22758.93,-42832.35,-77686.065,-48997.305,-9370.305,-16396.739999999998,7415.82,-60999.299999999996,2.52738035448938,-4.666998388952482,-10.480061605034416,-12.756732577592073,-13.357216391733408,-13.315857819275223,-12.147877264651061,4.131460631532952,0.35095125,-0.8598000450000001,0.45593145,1.51074,5.35626,-29.72648,68.0
1774823423.1368344,0.005301952362060547,2026-03-29T22:30:23.136,2026-03-29T18:30:23.136,-22767.614999999998,-42843.96,-77696.86499999999,-49009.409999999996,-9386.145,-16420.274999999998,7391.429999999999,-61007.85,-4.218041898148823,-6.1565033170820795,-8.190428820454073,-10.774236631142953,-12.116484735543459,-13.157980903749754,-14.566301632350346,-3.8179730938262564,0.35095125,-0.8598000450000001,0.45593145,1.51074,5.35626,-29.72648,68.0
1774823423.1368542,1.9788742065429688e-05,2026-03-29T22:30:23.136,2026-03-29T18:30:23.136,-22775.94,-42837.795,-77681.745,-48992.67,-9367.154999999999,-16403.265,7383.285,-61020.405,-8.649561323951856,-4.655983976225058,-2.1180385089156184,-3.8516784100071777,-5.208470612452755,-6.8228084250070005,-10.399847005623418,-9.71084079331949,0.35095125,-0.8598000450000001,0.45593145,1.51074,5.35626,-29.72648,68.0
1774823423.1394734,0.0026192665100097656,2026-03-29T22:30:23.139,2026-03-29T18:30:23.139,-22783.364999999998,-42825.689999999995,-77656.5,-48964.68,-9335.295,-16367.715,7407.495,-61031.655,-8.715123727958922,-0.8189700498885634,5.000300908377914,4.920492203167336,4.200789495819163,2.7398089021196173,-1.6821353630724385,-10.854919221726856,0.35095125,-0.8598000450000001,0.45593145,1.51074,5.35626,-29.72648,68.0
1774823423.1394897,1.621246337890625e-05,2026-03-29T22:30:23.139,2026-03-29T18:30:23.139,-22770.27,-42817.59,-77646.87,-48959.955,-9336.914999999999,-16370.144999999999,7415.009999999999,-61015.68,-4.563037116683965,3.5264715862504623,9.90663544844557,11.55496283859245,11.725106370299605,11.025065572654535,7.532105530680503,-6.8898045915700505,0.35095125,-0.8598000450000001,0.45593145,1.51074,5.35626,-29.72648,68.0
1774823423.1438072,0.004317522048950195,2026-03-29T22:30:23.143,2026-03-29T18:30:23.143,-22769.325,-42824.924999999996,-77660.055,-48972.104999999996,-9346.545,-16378.83,7409.205,-61013.564999999995,1.6169367504359082,6.256410350830694,10.324216993094792,12.992799902581659,13.81851417550353,14.112099450201978,13.077267056319005,0.1328681512708492,0.35095125,-0.8598000450000001,0.45593145,1.51074,5.35626,-29.72648,68.0
1774823423.1438272,2.002716064453125e-05,2026-03-29T22:30:23.143,2026-03-29T18:30:23.143,-22772.43,-42831.854999999996,-77670.0,-48983.58,-9357.57,-16389.945,7401.42,-61014.96,6.741637737199913,5.995504444665633,6.02354419555197,8.525942384273902,9.463809850777576,10.540955964445672,12.58671211774063,6.811729292691517,0.35095125,-0.8598000450000001,0.45593145,1.51074,5.35626,-29.72648,68.0
1774823423.1520712,0.008244037628173828,2026-03-29T22:30:23.152,2026-03-29T18:30:23.152,-22769.64,-42832.305,-77673.105,-48987.54,-9362.744999999999,-16394.579999999998,7389.54,-61012.439999999995,8.372012802122546,2.8107168716193316,-1.0513195888511573,0.14990967213884626,0.6773581057406244,2.0194369478539667,6.514489430873185,10.04972969479734,0.35095125,-0.8598000450000001,0.45593145,1.51074,5.35626,-29.72648,68.0
1774823423.1521082,3.695487976074219e-05,2026-03-29T22:30:23.152,2026-03-29T18:30:23.152,-22749.344999999998,-42822.765,-77669.415,-48984.165,-9359.19,-16388.73,7365.0599999999995,-60999.165,5.872831366002045,-1.7961328838866624,-7.665461101723816,-8.330577916411142,-8.424601600446207,-7.389393745893333,-2.1772624742809783,8.49204057118053,0.35095125,-0.8598000450000001,0.45593145,1.51074,5.35626,-29.72648,68.0
1774823423.1521344,2.6226043701171875e-05,2026-03-29T22:30:23.152,2026-03-29T18:30:23.152,-22734.945,-42815.7,-77665.14,-48979.89,-9358.65,-16390.44,7360.785,-60987.195,0.6432846305741755,-5.604006712422214,-10.782256896178628,-13.040877188594242,-13.565546252999233,-13.213867046557652,-9.472818757866683,3.0792392201192094,0.36279204,-0.863950425,0.44995002,-5.24944,8.316699999999999,-29.17712,68.0
1774823423.152145,1.049041748046875e-05,2026-03-29T22:30:23.152,2026-03-29T18:30:23.152,-22757.129999999997,-42821.145,-77655.735,-48970.89,-9357.615,-16396.92,7375.275,-61001.865,-4.654695105482247,-6.752120107917696,-8.968908496037438,-11.820418009151247,-12.334850813546943,-12.71713883140949,-12.180298667872519,-3.5020510412340293,0.36279204,-0.863950425,0.44995002,-5.24944,8.316699999999999,-29.17712,68.0
1774823423.1572025,0.005057573318481445,2026-03-29T22:30:23.157,2026-03-29T18:30:23.157,-22783.14,-42817.95,-77638.31999999999,-48956.4,-9343.98,-16384.59,7399.259999999999,-61028.595,-7.449259559916954,-4.654723731592903,-3.0627493681334483,-5.223765761385422,-5.332853800161774,-6.201558051364582,-9.344233729450986,-8.157210055032854,0.36279204,-0.863950425,0.44995002,-5.24944,8.316699999999999,-29.17712,68.0
1774823423.1572275,2.5033950805664062e-05,2026-03-29T22:30:23.157,2026-03-29T18:30:23.157,-22773.555,-42819.84,-77649.97499999999,-48966.84,-9344.88,-16380.045,7427.61,-61013.384999999995,-6.505276977390689,-0.2990166340110672,4.214813281314475,3.7295302666727497,4.1155694701022005,3.1558283750520495,-2.5610225432559397,-8.841376045920759,0.36279204,-0.863950425,0.44995002,-5.24944,8.316699999999999,-29.17712,68.0
1774823423.161088,0.0038604736328125,2026-03-29T22:30:23.161,2026-03-29T18:30:23.161,-22770.36,-42829.29,-77664.69,-48970.89,-9342.045,-16370.414999999999,7412.3099999999995,-61011.99,-2.460703194669938,4.2250163641892255,9.518824529838982,10.944184650373273,11.544609466095169,10.852714611725581,4.893374297842606,-5.448666380052284,0.36279204,-0.863950425,0.44995002,-5.24944,8.316699999999999,-29.17712,68.0
1774823423.1611195,3.147125244140625e-05,2026-03-29T22:30:23.161,2026-03-29T18:30:23.161,-22759.469999999998,-42818.805,-77645.34,-48943.665,-9319.23,-16348.545,7394.535,-61003.619999999995,2.5752118715508128,6.736438592396972,10.42887448295704,13.134984701603832,13.471403236624536,13.239284095650136,9.65547610939579,0.24882188197529245,0.36279204,-0.863950425,0.44995002,-5.24944,8.316699999999999,-29.17712,68.0
1774823423.165104,0.0039844512939453125,2026-03-29T22:30:23.165,2026-03-29T18:30:23.165,-22743.989999999998,-42813.81,-77651.01,-48954.465,-9332.369999999999,-16364.16,7381.62,-60987.42,6.119530024834136,6.02300157962894,6.563553354349767,9.33500821124292,9.04390956001773,9.265214775081352,9.807641247535514,5.526333194342175,0.36279204,-0.863950425,0.44995002,-5.24944,8.316699999999999,-29.17712,68.0
1774823423.1651263,2.2411346435546875e-05,2026-03-29T22:30:23.165,2026-03-29T18:30:23.165,-22731.75,-42810.795,-77655.105,-48963.689999999995,-9347.31,-16380.539999999999,7395.389999999999,-60973.02,6.538445982494881,2.430104917018768,-0.2561393793693649,1.3283528147088124,0.4263476054030415,0.9523057644280475,5.6467446516698425,8.012709492930862,0.36279204,-0.863950425,0.44995002,-5.24944,8.316699999999999,-29.17712,68.0
1774823423.1677344,0.002608060836791992,2026-03-29T22:30:23.167,2026-03-29T18:30:23.167,-22748.309999999998,-42828.659999999996,-77675.535,-48986.505,-9372.06,-16403.805,7411.95,-60985.71,3.7930701536213083,-2.3087160720623734,-6.866001571179165,-7.188871870776549,-8.256021509983693,-7.624710913088253,-0.6173291275814197,6.749473129875813,0.36279204,-0.863950425,0.44995002,-5.24944,8.316699999999999,-29.17712,68.0
1774823423.1677644,3.0040740966796875e-05,2026-03-29T22:30:23.167,2026-03-29T18:30:23.167,-22770.765,-42840.63,-77680.665,-48991.32,-9373.545,-16406.325,7403.49,-61005.689999999995,-0.6288165021435039,-5.915528070753517,-10.234199484025893,-12.323790817994132,-12.898707441395432,-12.338246460661042,-6.018771793333564,2.532995804806831,0.36279204,-0.863950425,0.44995002,-5.24944,8.316699999999999,-29.17712,68.0
1774823423.1789055,0.011141061782836914,2026-03-29T22:30:23.178,2026-03-29T18:30:23.178,-22790.024999999998,-42830.729999999996,-77659.73999999999,-48969.0,-9343.215,-16381.305,7394.58,-61035.299999999996,-4.5161687679512905,-6.6720361305169895,-8.861735130744131,-11.778016884185124,-11.370618600084887,-11.004914272341896,-8.248273793004957,-2.565052057957136,0.37341213,-0.860288325,0.44274789000000003,-12.92522,9.644319999999999,-30.27584,68.0
1774823423.1789265,2.09808349609375e-05,2026-03-29T22:30:23.178,2026-03-29T18:30:23.178,-22762.665,-42819.39,-77654.655,-48968.055,-9335.475,-16367.31,7394.49,-61014.645,-6.040704079992172,-4.244850232596054,-3.456695612408161,-5.885301730492239,-4.50287659056941,-4.408088069674832,-6.64438958301501,-6.218657429997272,0.37341213,-0.860288325,0.44274789000000003,-12.92522,9.644319999999999,-30.27584,68.0
1774823423.178947,2.0503997802734375e-05,2026-03-29T22:30:23.178,2026-03-29T18:30:23.178,-22742.954999999998,-42815.52,-77647.635,-48954.509999999995,-9322.695,-16345.89,7379.91,-60994.665,-4.611644823516414,0.1672498849835867,3.4239472922758813,2.5767337487825617,4.349638977921896,4.137961845945886,-2.336865713848347,-6.904928170587749,0.37341213,-0.860288325,0.44274789000000003,-12.92522,9.644319999999999,-30.27584,68.0
1774823423.1789544,7.3909759521484375e-06,2026-03-29T22:30:23.178,2026-03-29T18:30:23.178,-22735.305,-42806.07,-77637.87,-48945.465,-9319.005,-16345.215,7375.455,-60988.409999999996,-1.0818017905818142,4.429071761939152,8.586057519503091,9.699167342503344,10.947049307558743,10.447456759788817,2.4513806123664357,-4.519231489962295,0.37341213,-0.860288325,0.44274789000000003,-12.92522,9.644319999999999,-30.27584,68.0
1774823423.183382,0.004427671432495117,2026-03-29T22:30:23.183,2026-03-29T18:30:23.183,-22760.235,-42805.215,-77631.66,-48937.545,-9314.505,-16351.38,7401.15,-61014.869999999995,2.752112169839365,6.510003358499224,9.688179624917844,12.256534603810113,12.202271675989204,11.516441599140077,5.5398306536037305,-0.31105467833261213,0.37341213,-0.860288325,0.44274789000000003,-12.92522,9.644319999999999,-30.27584,68.0
1774823423.1833968,1.4781951904296875e-05,2026-03-29T22:30:23.183,2026-03-29T18:30:23.183,-22790.565,-42829.02,-77660.81999999999,-48964.814999999995,-9342.359999999999,-16380.539999999999,7424.46,-61039.439999999995,5.066694098376314,5.459306608593471,6.3115239971812045,9.177050140492781,7.634765831691191,6.960508178877706,5.787343454141232,3.770233290613225,0.37341213,-0.860288325,0.44274789000000003,-12.92522,9.644319999999999,-30.27584,68.0
1774823423.183414,1.71661376953125e-05,2026-03-29T22:30:23.183,2026-03-29T18:30:23.183,-22785.48,-42846.21,-77692.905,-48998.205,-9373.32,-16403.445,7418.16,-61032.689999999995,4.8771298839001505,1.843932315825723,0.11786833353457785,1.9939669438263665,-0.44854911010802867,-0.8548590716206774,3.4929861098477386,5.97716713094284,0.37341213,-0.860288325,0.44274789000000003,-12.92522,9.644319999999999,-30.27584,68.0
1774823423.183418,4.0531158447265625e-06,2026-03-29T22:30:23.183,2026-03-29T18:30:23.183,-22775.445,-42841.485,-77682.42,-48988.575,-9360.27,-16387.829999999998,7411.5,-61026.615,2.440744593633185,-2.554098542973914,-5.9633239518912164,-5.912736228387844,-8.111440120813144,-8.030695306507106,0.072405379643153,5.496986574215587,0.37341213,-0.860288325,0.44274789000000003,-12.92522,9.644319999999999,-30.27584,68.0
1774823423.1877642,0.004346132278442383,2026-03-29T22:30:23.187,2026-03-29T18:30:23.187,-22788.27,-42840.99,-77671.8,-48980.384999999995,-9345.69,-16372.529999999999,7413.57,-61029.854999999996,-0.9575890835658915,-5.620290837210545,-9.122482281079252,-10.910776351167542,-11.706171759533088,-11.075940351010136,-2.7561138373509517,2.716980985623921,0.37341213,-0.860288325,0.44274789000000003,-12.92522,9.644319999999999,-30.27584,68.0
1774823423.187791,2.6941299438476562e-05,2026-03-29T22:30:23.187,2026-03-29T18:30:23.187,-22786.739999999998,-42834.645,-77670.045,-48988.35,-9352.035,-16378.425,7405.11,-61032.555,-3.6860623340346153,-5.931136149210948,-7.973900256325555,-10.79183084499062,-9.615339418471995,-8.60757777623691,-3.826719545138966,-1.0416862592050915,0.37341213,-0.860288325,0.44274789000000003,-12.92522,9.644319999999999,-30.27584,68.0
1774823423.1924503,0.004659175872802734,2026-03-29T22:30:23.192,2026-03-29T18:30:23.192,-22774.635,-42833.61,-77672.025,-48993.435,-9364.68,-16394.76,7392.69,-61027.515,-4.551191370112495,-3.420079671409869,-3.168436002767604,-5.752606024522107,-2.9831846172797,-1.9800456570833929,-2.9994451000521023,-4.152823776883006,0.379454595,-0.850766865,0.437315775,-19.288639999999997,10.62096,-31.52716,68.0
1774823423.1924913,4.100799560546875e-05,2026-03-29T22:30:23.192,2026-03-29T18:30:23.192,-22768.425,-42834.555,-77675.22,-48990.825,-9363.555,-16396.155,7388.91,-61021.305,-3.309187582305465,0.6276310758728876,2.9578865139978587,1.7573327489595607,4.89580043039289,5.443156954365011,-1.063755230566144,-5.377075824672994,0.379454595,-0.850766865,0.437315775,-19.288639999999997,10.62096,-31.52716,68.0
1774823423.1958663,0.0033750534057617188,2026-03-29T22:30:23.195,2026-03-29T18:30:23.195,-22754.7,-42822.135,-77667.705,-48981.825,-9356.265,-16389.945,7388.73,-61012.305,-0.6904578439630802,4.231582262340413,7.515158470487725,8.223541781358922,10.209289487704819,9.98911165520012,0.809052712756841,-4.329229305560951,0.379454595,-0.850766865,0.437315775,-19.288639999999997,10.62096,-31.52716,68.0
1774823423.195886,1.9550323486328125e-05,2026-03-29T22:30:23.195,2026-03-29T18:30:23.195,-22752.585,-42813.945,-77654.745,-48968.46,-9344.88,-16381.035,7391.835,-61011.72,2.02510419281253,5.689021823524947,8.424256894512455,10.714893022423551,10.47254285797228,9.48950464688131,1.728258479331348,-1.5609808816044082,0.379454595,-0.850766865,0.437315775,-19.288639999999997,10.62096,-31.52716,68.0
1774823423.204249,0.008363008499145508,2026-03-29T22:30:23.204,2026-03-29T18:30:23.204,-22747.23,-42811.11,-77651.37,-48969.63,-9348.21,-16384.23,7393.634999999999,-61001.954999999994,3.6380770159133093,4.3842000954964915,5.369728363170045,8.217118603912532,5.69243864785573,4.313427264131386,1.500910106998299,1.7290364876413205,0.379454595,-0.850766865,0.437315775,-19.288639999999997,10.62096,-31.52716,68.0
1774823423.2042637,1.4781951904296875e-05,2026-03-29T22:30:23.204,2026-03-29T18:30:23.204,-22754.565,-42812.189999999995,-77645.34,-48963.735,-9342.315,-16378.064999999999,7395.48,-61013.384999999995,3.5530102232878313,1.0475239806020333,-0.0975884849696026,2.0428401960594558,-1.6964105995668337,-2.8729306302868327,0.6108032837322264,4.206100880973711,0.379454595,-0.850766865,0.437315775,-19.288639999999997,10.62096,-31.52716,68.0
1774823423.2042763,1.2636184692382812e-05,2026-03-29T22:30:23.204,2026-03-29T18:30:23.204,-22766.489999999998,-42831.63,-77670.0,-48983.22,-9356.535,-16387.695,7399.08,-61021.305,1.9708512042048265,-2.643593284197065,-5.337505080524896,-4.845831235532107,-8.06486085822654,-8.473384421758862,-0.17839241067704042,4.918366242106726,0.379454595,-0.850766865,0.437315775,-19.288639999999997,10.62096,-31.52716,68.0
1774823423.204281,4.76837158203125e-06,2026-03-29T22:30:23.204,2026-03-29T18:30:23.204,-22773.735,-42838.29,-77675.12999999999,-48989.43,-9364.05,-16390.755,7407.09,-61022.655,-0.2932164901103784,-4.9073214255756135,-7.891334939836663,-9.2566713112895,-10.369206719458244,-9.756618033345504,-0.33224708563763083,3.6358606560218427,0.379454595,-0.850766865,0.437315775,-19.288639999999997,10.62096,-31.52716,68.0
1774823423.2111094,0.00682830810546875,2026-03-29T22:30:23.211,2026-03-29T18:30:23.211,-22767.48,-42827.49,-77658.165,-48979.17,-9359.279999999999,-16385.67,7404.705,-61017.659999999996,-2.233671082048738,-4.720151780986097,-6.636228558265551,-9.248656243907647,-7.605077772552785,-6.183898111344626,0.1386284063631151,0.9055467954465899,0.379454595,-0.850766865,0.437315775,-19.288639999999997,10.62096,-31.52716,68.0
1774823423.211124,1.4543533325195312e-05,2026-03-29T22:30:23.211,2026-03-29T18:30:23.211,-22759.829999999998,-42830.28,-77668.29,-48985.02,-9363.96,-16392.195,7394.67,-61011.674999999996,-3.0987746972727073,-2.2808844708615696,-2.2806031601186114,-4.986615713344772,-1.2404290843918577,0.3749056517347227,0.7303447161250053,-2.1769069963854863,0.379454595,-0.850766865,0.437315775,-19.288639999999997,10.62096,-31.52716,68.0
1774823423.2111363,1.239776611328125e-05,2026-03-29T22:30:23.211,2026-03-29T18:30:23.211,-22751.73,-42832.17,-77678.955,-48986.955,-9364.005,-16394.895,7389.09,-61003.755,-2.6607411107470225,1.1347100152621132,3.0185818359687735,1.4071628683849977,5.556692756835147,6.61824914067036,0.8156675724722522,-4.3868531901056365,0.378722175,-0.8386209,0.42938122500000003,-24.62964,9.85796,-34.70124,68.0
1774823423.211146,9.775161743164062e-06,2026-03-29T22:30:23.211,2026-03-29T18:30:23.211,-22764.645,-42829.74,-77669.73,-48980.88,-9357.435,-16388.684999999998,7392.33,-61018.604999999996,-1.2286232398588575,3.8352773395084676,6.715532354960548,6.902811516772649,9.492125354585893,9.473239413759943,0.09531894545919964,-4.833570225574953,0.378722175,-0.8386209,0.42938122500000003,-24.62964,9.85796,-34.70124,68.0
1774823423.2158115,0.004665374755859375,2026-03-29T22:30:23.215,2026-03-29T18:30:23.215,-22761.809999999998,-42813.72,-77644.98,-48959.505,-9338.625,-16369.56,7410.42,-61020.314999999995,0.552526470832298,4.550317540770873,7.0945249169241436,8.99696674467898,8.739763731632443,7.604333403670717,-1.1524170394427902,-3.305764739927321,0.378722175,-0.8386209,0.42938122500000003,-24.62964,9.85796,-34.70124,68.0
1774823423.2158282,1.6689300537109375e-05,2026-03-29T22:30:23.215,2026-03-29T18:30:23.215,-22751.28,-42807.15,-77637.15,-48946.365,-9328.5,-16363.71,7396.38,-61017.479999999996,1.9924326818894373,3.0282001805340744,4.065643790726428,6.852359427918521,3.784504010128399,2.0301695665416446,-2.1875695161194306,-0.373295711671379,0.378722175,-0.8386209,0.42938122500000003,-24.62964,9.85796,-34.70124,68.0
1774823423.219994,0.0041658878326416016,2026-03-29T22:30:23.219,2026-03-29T18:30:23.219,-22726.17,-42785.415,-77620.36499999999,-48925.215,-9306.945,-16342.38,7396.0199999999995,-61011.81,2.6058348686534485,0.11424706838539624,-0.8316803803725984,1.6242272508931277,-2.873692009347497,-4.433481008039062,-2.237242742959141,2.8053504167058554,0.378722175,-0.8386209,0.42938122500000003,-24.62964,9.85796,-34.70124,68.0
1774823423.2200153,2.1219253540039062e-05,2026-03-29T22:30:23.220,2026-03-29T18:30:23.220,-22715.954999999998,-42791.22,-77621.355,-48925.395,-9303.705,-16337.205,7398.945,-60993.045,2.2429334422901404,-2.708178951539328,-5.201790172537807,-4.148952698259744,-7.9806497788998785,-8.600533970268794,-0.9941021396344436,4.918376067346159,0.378722175,-0.8386209,0.42938122500000003,-24.62964,9.85796,-34.70124,68.0
1774823423.2257032,0.0056879520416259766,2026-03-29T22:30:23.225,2026-03-29T18:30:23.225,-22750.245,-42802.83,-77634.495,-48942.18,-9315.99,-16350.48,7395.4349999999995,-60998.85,1.0890681843323937,-4.067981481695107,-6.957465592747652,-7.773488372323613,-9.117656087976993,-8.486235219270162,1.1138102165822958,5.02902355920183,0.378722175,-0.8386209,0.42938122500000003,-24.62964,9.85796,-34.70124,68.0
1774823423.2257369,3.361701965332031e-05,2026-03-29T22:30:23.225,2026-03-29T18:30:23.225,-22764.87,-42822.27,-77671.845,-48988.439999999995,-9360.765,-16394.22,7388.37,-61015.77,-0.4301089838037045,-3.3700149418606413,-5.312188141067699,-7.654232504920865,-5.842828851569752,-4.2470035372515165,3.0648104374939584,2.991449146913897,0.378722175,-0.8386209,0.42938122500000003,-24.62964,9.85796,-34.70124,68.0
1774823423.2300131,0.004276275634765625,2026-03-29T22:30:23.230,2026-03-29T18:30:23.230,-22767.12,-42816.375,-77653.89,-48968.28,-9343.125,-16376.67,7393.995,-61028.055,-1.789965860838119,-1.0517352889811067,-1.1296395178998826,-3.991232494597084,0.15344872930872464,1.9551181653512124,3.7528707623052115,-0.43140975182139496,0.378722175,-0.8386209,0.42938122500000003,-24.62964,9.85796,-34.70124,68.0
1774823423.2300313,1.811981201171875e-05,2026-03-29T22:30:23.230,2026-03-29T18:30:23.230,-22745.7,-42793.515,-77620.14,-48933.585,-9311.58,-16348.994999999999,7390.98,-61016.22,-2.518811125619778,1.6755962614252389,3.5236926501311103,1.3824700391001876,5.92397369853341,7.0648201296763125,2.6056549654471897,-3.82999294775978,0.378722175,-0.8386209,0.42938122500000003,-24.62964,9.85796,-34.70124,68.0
1774823423.235688,0.005656719207763672,2026-03-29T22:30:23.235,2026-03-29T18:30:23.235,-22746.915,-42805.665,-77638.36499999999,-48950.325,-9325.98,-16363.845,7386.615,-61019.46,-2.3372200383002,3.453116830647834,6.393179310661945,5.913007030321293,8.716830990418224,8.647060517052289,-0.02928003950756022,-5.71563254322437,0.377867685,-0.829526685,0.4260243,-20.63152,8.13358,-37.73798,68.0
1774823423.235713,2.5033950805664062e-05,2026-03-29T22:30:23.235,2026-03-29T18:30:23.235,-22751.415,-42819.21,-77659.37999999999,-48975.975,-9356.265,-16389.045,7380.719999999999,-61011.54,-1.26025734238206,3.446385755077686,6.121663803232848,7.5352531430039535,7.286613149973728,6.04803781503842,-2.967122877287485,-5.17236485581671,0.377867685,-0.829526685,0.4260243,-20.63152,8.13358,-37.73798,68.0
1774823423.237538,0.001825094223022461,2026-03-29T22:30:23.237,2026-03-29T18:30:23.237,-22769.82,-42829.29,-77658.84,-48978.494999999995,-9367.74,-16397.055,7368.795,-61004.475,0.3723055772714053,1.7325843826997984,2.8852795459790146,5.607832139768613,2.439581571270641,0.648971918069038,-4.7329031198933675,-2.307343971008319,0.377867685,-0.829526685,0.4260243,-20.63152,8.13358,-37.73798,68.0
1774823423.2375507,1.2636184692382812e-05,2026-03-29T22:30:23.237,2026-03-29T18:30:23.237,-22776.434999999998,-42835.229999999996,-77665.23,-48988.89,-9383.805,-16417.485,7363.3949999999995,-61008.479999999996,1.972462004996181,-0.7746905492929094,-1.7163703459426078,1.1526528279788666,-3.421359256010958,-4.8769740315814305,-4.314375678112335,1.7248651948174012,0.377867685,-0.829526685,0.4260243,-20.63152,8.13358,-37.73798,68.0
1774823423.23995,0.0023992061614990234,2026-03-29T22:30:23.239,2026-03-29T18:30:23.239,-22761.405,-42821.64,-77646.465,-48966.165,-9363.6,-16406.505,7388.955,-60999.524999999994,2.893805171097352,-2.8071284645663703,-5.449577467672678,-3.6823137714028484,-7.496482774429571,-7.902874184600753,-1.7324600064533189,5.173948955295392,0.377867685,-0.829526685,0.4260243,-20.63152,8.13358,-37.73798,68.0
1774823423.2399783,2.8371810913085938e-05,2026-03-29T22:30:23.239,2026-03-29T18:30:23.239,-22734.675,-42810.57,-77646.915,-48967.155,-9364.545,-16408.845,7404.75,-60972.93,2.6880117104035572,-3.3776678457997287,-6.526000427442417,-6.6561611584068245,-7.931092860341241,-7.105444887976589,1.8872813504985957,6.452882132592947,0.377867685,-0.829526685,0.4260243,-20.63152,8.13358,-37.73798,68.0
1774823423.243686,0.0037076473236083984,2026-03-29T22:30:23.243,2026-03-29T18:30:23.243,-22728.015,-42815.43,-77666.58,-48987.27,-9373.949999999999,-16414.605,7389.405,-60973.74,1.3286052134069317,-2.253687324387599,-4.451723762508509,-6.4673766055274085,-4.653657829506762,-3.0354752655149495,4.813644124851199,4.875323512763769,0.377867685,-0.829526685,0.4260243,-20.63152,8.13358,-37.73798,68.0
1774823423.2437084,2.2411346435546875e-05,2026-03-29T22:30:23.243,2026-03-29T18:30:23.243,-22720.14,-42806.924999999996,-77661.855,-48975.479999999996,-9346.859999999999,-16376.984999999999,7400.07,-60972.795,-0.7127623482859293,-0.0430472886500956,-0.24518469713689137,-3.3119142144434766,0.6662725689689856,2.2408078423514963,5.554301952597341,1.024605617594377,0.377867685,-0.829526685,0.4260243,-20.63152,8.13358,-37.73798,68.0
1774823423.2474349,0.003726482391357422,2026-03-29T22:30:23.247,2026-03-29T18:30:23.247,-22764.375,-42810.165,-77643.315,-48951.494999999995,-9315.315,-16344.359999999999,7410.6449999999995,-61020.765,-2.607215770499068,2.1333819451183813,4.068481315350238,1.2667071812653963,5.479309173171508,6.206469968636698,3.6274291950689874,-3.444797303363702,0.377867685,-0.829526685,0.4260243,-20.63152,8.13358,-37.73798,68.0
1774823423.247459,2.4080276489257812e-05,2026-03-29T22:30:23.247,2026-03-29T18:30:23.247,-22790.024999999998,-42805.755,-77623.605,-48933.314999999995,-9298.619999999999,-16333.335,7428.825,-61057.439999999995,-3.5003722110707254,3.206805322737966,6.433340596586765,5.1342011135519865,7.588600092099201,7.1104302414845515,-0.14174352490800285,-6.516855384302761,0.377867685,-0.829526685,0.4260243,-20.63152,8.13358,-37.73798,68.0
1774823423.2551265,0.00766754150390625,2026-03-29T22:30:23.255,2026-03-29T18:30:23.255,-22781.204999999998,-42817.77,-77641.29,-48948.119999999995,-9326.744999999999,-16368.974999999999,7414.5599999999995,-61043.895,-2.9047712086015705,2.679305382955158,5.737510201852966,6.556881103005432,6.152659847847529,4.740734247342481,-3.974935727515375,-6.730876357842516,0.37731837,-0.830381175,0.43139538,-10.743039999999999,4.68482,-43.99458,68.0
1774823423.2551503,2.384185791015625e-05,2026-03-29T22:30:23.255,2026-03-29T18:30:23.255,-22772.745,-42823.53,-77653.305,-48955.905,-9340.92,-16383.689999999999,7397.639999999999,-61033.994999999995,-0.9687787453104167,0.8468262014588162,2.3260201593447567,4.96798122563517,2.000413071724642,0.4128651495862068,-5.993281275278733,-3.8844721203680233,0.37731837,-0.830381175,0.43139538,-10.743039999999999,4.68482,-43.99458,68.0
1774823423.2586448,0.0034945011138916016,2026-03-29T22:30:23.258,2026-03-29T18:30:23.258,-22772.879999999997,-42828.615,-77661.045,-48962.115,-9343.305,-16380.585,7390.98,-61028.415,1.527730815398966,-1.3697190230958785,-2.18111652832421,1.1750367309428444,-2.847520843779624,-3.7639474298150057,-5.1539504617598775,0.8202409621828659,0.37731837,-0.830381175,0.43139538,-10.743039999999999,4.68482,-43.99458,68.0
1774823423.258669,2.4080276489257812e-05,2026-03-29T22:30:23.258,2026-03-29T18:30:23.258,-22773.42,-42836.895,-77672.745,-48976.47,-9357.119999999999,-16390.079999999998,7384.1849999999995,-61023.915,3.4821272338187303,-2.88840651102446,-5.666081374048993,-3.056610273622049,-6.176866054517337,-5.93384504128236,-1.7980769295124632,5.282076252218732,0.37731837,-0.830381175,0.43139538,-10.743039999999999,4.68482,-43.99458,68.0
1774823423.2611,0.002431154251098633,2026-03-29T22:30:23.261,2026-03-29T18:30:23.261,-22769.145,-42831.405,-77669.055,-48974.445,-9350.865,-16379.055,7402.41,-61023.78,3.963072176020698,-2.991004638823192,-6.509195093930046,-5.82707219482811,-6.597943857950468,-5.327190614571116,2.4805258642310783,7.44656105445248,0.37731837,-0.830381175,0.43139538,-10.743039999999999,4.68482,-43.99458,68.0
1774823423.2611153,1.52587890625e-05,2026-03-29T22:30:23.261,2026-03-29T18:30:23.261,-22752.989999999998,-42822.27,-77667.48,-48978.54,-9351.494999999999,-16377.345,7425.9,-61003.799999999996,2.6645781431171955,-1.6552155937911195,-4.334277332868393,-5.946826807274712,-4.112529187528331,-2.5014653785197503,5.599378724526642,6.262331588936983,0.37731837,-0.830381175,0.43139538,-10.743039999999999,4.68482,-43.99458,68.0
1774823423.2638316,0.0027163028717041016,2026-03-29T22:30:23.263,2026-03-29T18:30:23.263,-22760.325,-42819.975,-77654.43,-48974.04,-9346.23,-16374.33,7420.275,-61008.255,0.09354316753994481,0.4559276615523095,-0.16313134457499598,-3.4310826308291804,-0.005302252932927931,1.0642677093060877,6.014603159677532,2.197416263907171,0.37731837,-0.830381175,0.43139538,-10.743039999999999,4.68482,-43.99458,68.0
1774823423.2638505,1.8835067749023438e-05,2026-03-29T22:30:23.263,2026-03-29T18:30:23.263,-22765.545,-42822.09,-77651.19,-48977.415,-9351.09,-16383.015,7407.0,-61016.939999999995,-2.6214632519678083,2.3285928452440894,4.077698575356824,0.5533230901902927,3.83204185751084,3.755728947978263,3.4990721813922088,-2.941008189275492,0.37731837,-0.830381175,0.43139538,-10.743039999999999,4.68482,-43.99458,68.0
1774823423.267759,0.003908634185791016,2026-03-29T22:30:23.267,2026-03-29T18:30:23.267,-22766.805,-42831.854999999996,-77665.815,-48984.299999999996,-9361.215,-16394.22,7407.674999999999,-61015.68,-4.232014966323392,3.0857053722402075,6.45419109084722,4.23644798773829,5.784560426531093,4.568777208993067,-0.7259930302419905,-6.816707281380454,0.37731837,-0.830381175,0.43139538,-10.743039999999999,4.68482,-43.99458,68.0
1774823423.2677722,1.3113021850585938e-05,2026-03-29T22:30:23.267,2026-03-29T18:30:23.267,-22764.015,-42824.744999999995,-77659.02,-48968.145,-9342.945,-16375.545,7412.849999999999,-61018.02,-3.955586207198156,2.392751791125636,5.904604121126535,6.027906558346431,5.187178962999226,3.4630023774011196,-4.583586749330035,-7.637642399489873,0.37731837,-0.830381175,0.43139538,-10.743039999999999,4.68482,-43.99458,68.0
1774823423.271914,0.004141807556152344,2026-03-29T22:30:23.271,2026-03-29T18:30:23.271,-22755.78,-42817.049999999996,-77652.045,-48958.155,-9334.664999999999,-16369.695,7407.719999999999,-61011.99,-1.8644014988104565,0.5963610286961191,2.7022071695670005,5.189237167866351,2.510349666138402,1.2119501277234188,-6.16975308374533,-4.993599829988028,0.378233895,-0.834043275,0.43261608,0.57988,3.6013599999999997,-49.50344,68.0
1774823423.2719374,2.3365020751953125e-05,2026-03-29T22:30:23.271,2026-03-29T18:30:23.271,-22751.594999999998,-42815.205,-77656.05,-48966.255,-9344.115,-16384.23,7398.8099999999995,-61010.954999999994,1.1199621368010795,-1.4568478148696202,-1.6952189719925328,2.1192021444045053,-0.9651216155667601,-1.0955693860589004,-4.705488397293425,-0.06208141599364265,0.378233895,-0.834043275,0.43261608,0.57988,3.6013599999999997,-49.50344,68.0
1774823423.28273,0.010792732238769531,2026-03-29T22:30:23.282,2026-03-29T18:30:23.282,-22739.219999999998,-42816.06,-77672.385,-48988.17,-9365.039999999999,-16403.625,7386.48,-61005.104999999996,3.6379977285357317,-2.8237416769285884,-5.321560660926788,-1.8472378245651344,-3.7752771598184607,-2.5973664289409806,-0.930786646902445,4.921363729517975,0.378233895,-0.834043275,0.43261608,0.57988,3.6013599999999997,-49.50344,68.0
1774823423.2827556,2.5510787963867188e-05,2026-03-29T22:30:23.282,2026-03-29T18:30:23.282,-22727.969999999998,-42820.604999999996,-77673.735,-48983.58,-9362.295,-16405.2,7367.759999999999,-61005.375,4.523154695534222,-2.8963589215967316,-6.584825207690453,-5.020411205545449,-4.889165360220167,-2.96715771166748,3.262807457402838,7.687334686509896,0.378233895,-0.834043275,0.43261608,0.57988,3.6013599999999997,-49.50344,68.0
1774823423.282781,2.5272369384765625e-05,2026-03-29T22:30:23.282,2026-03-29T18:30:23.282,-22763.07,-42825.24,-77646.15,-48955.725,-9338.039999999999,-16381.305,7384.005,-61024.5,3.3534772599795635,-1.6651039829941086,-4.958133375597672,-6.064277533195127,-4.055316607885013,-2.38814375429228,5.780694249604976,6.97659467703185,0.378233895,-0.834043275,0.43261608,0.57988,3.6013599999999997,-49.50344,68.0
1774823423.2827911,1.0251998901367188e-05,2026-03-29T22:30:23.282,2026-03-29T18:30:23.282,-22774.23,-42814.53,-77642.055,-48957.93,-9336.105,-16376.715,7400.429999999999,-61026.03,0.6575889069768155,0.29672682302073244,-1.1832998513099053,-4.541001958248986,-1.7823852226055483,-1.289940011324834,5.378220500022802,3.11834268979272,0.378233895,-0.834043275,0.43261608,0.57988,3.6013599999999997,-49.50344,68.0
1774823423.2828028,1.1682510375976562e-05,2026-03-29T22:30:23.282,2026-03-29T18:30:23.282,-22760.864999999998,-42823.89,-77654.43,-48966.075,-9342.404999999999,-16380.045,7392.825,-61013.475,-2.3277272307757007,2.106708712583056,3.0824629259087652,-1.0797922446644266,0.9671345982692522,-0.06112607235790633,2.285603058359945,-2.1252356380093125,0.378233895,-0.834043275,0.43261608,0.57988,3.6013599999999997,-49.50344,68.0
1774823423.282812,9.298324584960938e-06,2026-03-29T22:30:23.282,2026-03-29T18:30:23.282,-22754.879999999997,-42810.705,-77641.965,-48948.615,-9323.234999999999,-16359.39,7403.625,-61011.54,-4.235244392221142,2.9718133477327178,6.001866871978098,2.8866897142865087,3.1888378990310833,1.0816962390569569,-1.912989997580532,-6.37321062438549,0.378233895,-0.834043275,0.43261608,0.57988,3.6013599999999997,-49.50344,68.0
1774823423.2883208,0.0055086612701416016,2026-03-29T22:30:23.288,2026-03-29T18:30:23.288,-22733.774999999998,-42800.04,-77640.61499999999,-48948.03,-9319.545,-16352.189999999999,7412.13,-61001.415,-4.205192107920756,2.5312424617018445,6.345014012857149,5.706191681686104,4.175862660887711,2.028187111496978,-5.085922505682758,-7.718039332636926,0.378233895,-0.834043275,0.43261608,0.57988,3.6013599999999997,-49.50344,68.0
1774823423.2883575,3.6716461181640625e-05,2026-03-29T22:30:23.288,2026-03-29T18:30:23.288,-22731.12,-42819.255,-77663.925,-48975.705,-9347.22,-16377.119999999999,7402.7699999999995,-60982.38,-2.2798877249494183,0.9979795835559925,3.9938022821645873,6.178584068804457,3.6887212828228724,2.6223208887716525,-5.636749314261954,-5.58922971813322,0.378233895,-0.834043275,0.43261608,0.57988,3.6013599999999997,-49.50344,68.0
1774823423.2917843,0.003426790237426758,2026-03-29T22:30:23.291,2026-03-29T18:30:23.291,-22747.32,-42818.76,-77668.29,-48982.365,-9355.859999999999,-16388.415,7410.87,-60995.384999999995,0.6294852427167963,-0.9513499439529898,-0.03589692095782588,4.05193759131108,1.9550682994246693,2.594761620004313,-3.3122008814351998,-0.9941276277691704,0.386290515,-0.827695635,0.43621714500000003,10.97194,2.77732,-54.676579999999994,68.0
1774823423.2918098,2.5510787963867188e-05,2026-03-29T22:30:23.291,2026-03-29T18:30:23.291,-22739.535,-42812.055,-77676.165,-48988.485,-9361.35,-16396.38,7401.915,-60996.869999999995,3.18170342929107,-2.478792773304938,-4.04327611690213,0.14604683390229964,-0.44347889628930587,1.681042891250863,0.6758269621884572,3.9649499486265793,0.386290515,-0.827695635,0.43621714500000003,10.97194,2.77732,-54.676579999999994,68.0
1774823423.2956812,0.003871440887451172,2026-03-29T22:30:23.295,2026-03-29T18:30:23.295,-22738.77,-42817.77,-77673.15,-48981.015,-9353.295,-16386.255,7396.605,-60996.78,4.2347924783904585,-2.943011475358189,-6.3595639303681395,-3.9535390606111673,-2.7386543349415726,-0.12465464177422848,4.27550044756677,7.062803794484363,0.386290515,-0.827695635,0.43621714500000003,10.97194,2.77732,-54.676579999999994,68.0
1774823423.2956955,1.430511474609375e-05,2026-03-29T22:30:23.295,2026-03-29T18:30:23.295,-22752.405,-42808.365,-77641.965,-48944.564999999995,-9316.215,-16348.949999999999,7412.94,-61013.07,3.365114686141246,-2.161508927608521,-6.0316728177648065,-6.523157748994508,-4.167918262316122,-2.3614964997848555,5.6468455934803545,6.958288955872677,0.386290515,-0.827695635,0.43621714500000003,10.97194,2.77732,-54.676579999999994,68.0
1774823423.2998197,0.004124164581298828,2026-03-29T22:30:23.299,2026-03-29T18:30:23.299,-22760.055,-42807.24,-77634.405,-48941.64,-9319.14,-16357.635,7420.005,-61023.689999999995,1.0363507898717013,-0.47397787183556206,-3.1991474621230496,-6.411692565696281,-4.182473404453601,-4.136563350815008,4.1015438686019285,3.776496635409208,0.386290515,-0.827695635,0.43621714500000003,10.97194,2.77732,-54.676579999999994,68.0
1774823423.2998328,1.3113021850585938e-05,2026-03-29T22:30:23.299,2026-03-29T18:30:23.299,-22773.915,-42830.549999999996,-77666.58,-48982.545,-9366.39,-16410.78,7400.384999999999,-61033.005,-1.648008307620571,1.4100088309980743,0.9757606400003078,-3.549425609544712,-2.6459222634118875,-4.472953805163998,0.4501657953921125,-0.9870547995378244,0.386290515,-0.827695635,0.43621714500000003,10.97194,2.77732,-54.676579999999994,68.0
1774823423.3104324,0.010599613189697266,2026-03-29T22:30:23.310,2026-03-29T18:30:23.310,-22771.215,-42829.38,-77660.50499999999,-48972.375,-9360.0,-16413.84,7375.905,-61029.674999999996,-3.4761608250016915,2.7086765301058553,4.7852376186875,0.966636949640141,0.041077202348607664,-2.8405633385931517,-3.4193868353705232,-5.176849849491324,0.386290515,-0.827695635,0.43621714500000003,10.97194,2.77732,-54.676579999999994,68.0
1774823423.3104591,2.6702880859375e-05,2026-03-29T22:30:23.310,2026-03-29T18:30:23.310,-22772.79,-42820.244999999995,-77647.86,-48955.049999999996,-9343.17,-16401.645,7366.41,-61036.829999999994,-3.6833255403514435,2.8869694988321077,6.664718872159275,5.274620209512552,2.9781072904532597,0.4168598635368544,-5.514089406332603,-6.961493130187703,0.386290515,-0.827695635,0.43621714500000003,10.97194,2.77732,-54.676579999999994,68.0
1774823423.310485,2.574920654296875e-05,2026-03-29T22:30:23.310,2026-03-29T18:30:23.310,-22750.155,-42818.715,-77657.355,-48960.36,-9345.555,-16399.395,7365.33,-61015.814999999995,-2.2724216846795144,1.8699227757038548,5.8216997470253276,7.501511349071102,5.019485667373067,4.0463320673979615,-4.758714026800458,-5.638224691849138,0.386290515,-0.827695635,0.43621714500000003,10.97194,2.77732,-54.676579999999994,68.0
1774823423.310495,1.0013580322265625e-05,2026-03-29T22:30:23.310,2026-03-29T18:30:23.310,-22748.489999999998,-42824.025,-77665.905,-48966.975,-9352.845,-16394.265,7391.16,-61007.13,0.0345058417675629,0.06944211795643677,2.560110154899493,6.572202221842853,5.206646919063014,6.352379434243767,-1.544886888174272,-1.9027683863465403,0.386290515,-0.827695635,0.43621714500000003,10.97194,2.77732,-54.676579999999994,68.0
1774823423.3133178,0.0028228759765625,2026-03-29T22:30:23.313,2026-03-29T18:30:23.313,-22781.43,-42846.255,-77677.605,-48970.845,-9353.475,-16384.815,7407.585,-61030.17,2.1684179916006125,-1.7824136030204305,-1.8269912476312238,2.7274072620573597,3.223961061696822,6.001225330155426,2.473644882219593,2.5149964163450886,0.392027805,-0.81225378,0.44128305,12.253779999999999,-1.9838,-60.917919999999995,68.0
1774823423.3133447,2.6941299438476562e-05,2026-03-29T22:30:23.313,2026-03-29T18:30:23.313,-22788.09,-42856.92,-77684.175,-48970.619999999995,-9339.39,-16367.49,7411.41,-61037.325,3.215852045405836,-2.9265098855979716,-5.559816442591145,-2.4992686987382546,-0.34184106754178334,2.7750029389720967,5.231969379727285,5.659326140490649,0.392027805,-0.81225378,0.44128305,12.253779999999999,-1.9838,-60.917919999999995,68.0
1774823423.3158853,0.00254058837890625,2026-03-29T22:30:23.315,2026-03-29T18:30:23.315,-22746.915,-42828.03,-77668.69499999999,-48975.75,-9344.699999999999,-16385.22,7400.07,-61003.665,2.8122780245505252,-2.881600491953008,-7.080643104376752,-6.8773247281079355,-4.116241740983227,-2.1446360856616984,5.312802350651097,6.220031900166829,0.392027805,-0.81225378,0.44128305,12.253779999999999,-1.9838,-60.917919999999995,68.0
1774823423.3159118,2.6464462280273438e-05,2026-03-29T22:30:23.315,2026-03-29T18:30:23.315,-22733.28,-42812.775,-77657.84999999999,-48976.965,-9349.244999999999,-16396.875,7381.17,-60997.994999999995,1.2559077668792404,-1.6423201909411458,-5.694973618533608,-8.426828164784826,-6.448896008035252,-6.584803713965685,2.670210345176693,4.076374336377473,0.392027805,-0.81225378,0.44128305,12.253779999999999,-1.9838,-60.917919999999995,68.0
1774823423.3227575,0.006845712661743164,2026-03-29T22:30:23.322,2026-03-29T18:30:23.322,-22750.2,-42811.2,-77641.605,-48964.275,-9340.56,-16392.87,7383.285,-61021.979999999996,-0.6849578027379124,0.3088652156888708,-1.8865219181736241,-6.317922419786861,-6.1432542002008885,-8.355762253031765,-1.3503582817796531,0.28905406996092964,0.392027805,-0.81225378,0.44128305,12.253779999999999,-1.9838,-60.917919999999995,68.0
1774823423.32278,2.2411346435546875e-05,2026-03-29T22:30:23.322,2026-03-29T18:30:23.322,-22767.704999999998,-42817.229999999996,-77647.815,-48969.54,-9346.23,-16389.675,7376.3099999999995,-61029.765,-2.1545204456766123,2.1847683756680216,2.836000759722704,-1.3115469105659565,-3.077204769636219,-6.347254937949653,-4.70231541880227,-3.4261728380565653,0.392027805,-0.81225378,0.44128305,12.253779999999999,-1.9838,-60.917919999999995,68.0
1774823423.3228028,2.288818359375e-05,2026-03-29T22:30:23.322,2026-03-29T18:30:23.322,-22769.774999999998,-42814.979999999996,-77651.595,-48964.229999999996,-9339.255,-16373.295,7371.45,-61039.619999999995,-2.5899446117613487,3.2050918451137624,6.522114547219847,4.492095061272066,1.610532749818697,-1.1902284261137714,-5.682083519658256,-5.481451782525668,0.392027805,-0.81225378,0.44128305,12.253779999999999,-1.9838,-60.917919999999995,68.0
1774823423.3228128,1.0013580322265625e-05,2026-03-29T22:30:23.322,2026-03-29T18:30:23.322,-22759.92,-42813.72,-77648.67,-48962.384999999995,-9342.18,-16381.08,7370.865,-61031.52,-1.9292066698633803,2.916761520905639,7.57644221560331,8.529624810407043,5.920120727827339,4.898951157063397,-3.7928304285294394,-5.096700707607964,0.392027805,-0.81225378,0.44128305,12.253779999999999,-1.9838,-60.917919999999995,68.0
1774823423.3292997,0.0064868927001953125,2026-03-29T22:30:23.329,2026-03-29T18:30:23.329,-22726.98,-42789.96,-77624.415,-48937.994999999995,-9317.97,-16359.119999999999,7420.41,-61013.564999999995,-0.5743844953943975,1.3938860451376414,5.449194137957951,8.91329877965506,7.850786429480588,9.083532750479334,0.010096259453155638,-2.585047459320765,0.392027805,-0.81225378,0.44128305,12.253779999999999,-1.9838,-60.917919999999995,68.0
1774823423.329312,1.239776611328125e-05,2026-03-29T22:30:23.329,2026-03-29T18:30:23.329,-22730.67,-42801.345,-77621.94,-48932.415,-9306.539999999999,-16345.755,7438.32,-61000.155,0.8412252076002303,-0.7704041847425093,0.9216759512591276,5.323600475066385,6.348096782269995,9.254369250263855,3.8111355391870148,0.8544223225523374,0.392027805,-0.81225378,0.44128305,12.253779999999999,-1.9838,-60.917919999999995,68.0
1774823423.3377032,0.008391141891479492,2026-03-29T22:30:23.337,2026-03-29T18:30:23.337,-22768.649999999998,-42818.939999999995,-77646.375,-48958.47,-9325.619999999999,-16357.095,7428.105,-61013.115,1.7512465156535193,-2.6883212998586785,-4.16144747911461,-0.7715942863929801,1.8809311898608485,5.107823750799479,5.707118962796816,3.711676132781846,0.39733785,-0.813413445,0.439635105,6.36342,-7.00434,-62.99328,68.0
1774823423.3377285,2.5272369384765625e-05,2026-03-29T22:30:23.337,2026-03-29T18:30:23.337,-22735.395,-42809.985,-77657.04,-48973.77,-9341.1,-16366.814999999999,7423.155,-60986.924999999996,1.8783750374009918,-3.5371119680578094,-7.633861102282464,-6.709653158732853,-3.668161391979055,-1.6040012226340352,4.7631974383424875,4.831812329403984,0.39733785,-0.813413445,0.439635105,6.36342,-7.00434,-62.99328,68.0
1774823423.3416886,0.003960132598876953,2026-03-29T22:30:23.341,2026-03-29T18:30:23.341,-22729.68,-42814.395,-77661.94499999999,-48972.689999999995,-9345.195,-16375.365,7421.3099999999995,-60977.295,1.2962374135253687,-2.9109531167302203,-7.931332903200319,-9.803526775642176,-7.800756217748358,-7.821423114692328,1.470103930036912,3.8772180155848495,0.39733785,-0.813413445,0.439635105,6.36342,-7.00434,-62.99328,68.0
1774823423.3417084,1.9788742065429688e-05,2026-03-29T22:30:23.341,2026-03-29T18:30:23.341,-22729.184999999998,-42815.79,-77662.26,-48973.455,-9357.525,-16396.92,7411.005,-60978.509999999995,0.3337747366628427,-1.015129563303655,-4.803844948857227,-8.572327868253529,-8.54846230129557,-10.600515281084844,-2.519831965016667,1.4035640141662242,0.39733785,-0.813413445,0.439635105,6.36342,-7.00434,-62.99328,68.0
1774823423.3417282,1.9788742065429688e-05,2026-03-29T22:30:23.341,2026-03-29T18:30:23.341,-22739.445,-42809.895,-77648.175,-48964.32,-9351.315,-16395.255,7411.275,-60993.63,-0.6044475783102498,1.3906536934803122,0.5117945467583143,-3.4614225998091612,-5.431141295352917,-8.53592906571636,-5.233019239256038,-1.4495633481616441,0.39733785,-0.813413445,0.439635105,6.36342,-7.00434,-62.99328,68.0
1774823423.3417377,9.5367431640625e-06,2026-03-29T22:30:23.341,2026-03-29T18:30:23.341,-22747.14,-42813.09,-77649.66,-48964.455,-9349.109999999999,-16394.22,7399.62,-61005.195,-1.2060539918592275,3.2913161592388787,5.768203125223305,3.3037437333984463,0.24866823334914293,-2.4821766643418295,-5.359257895156226,-3.4861940498988133,0.39733785,-0.813413445,0.439635105,6.36342,-7.00434,-62.99328,68.0
1774823423.3448563,0.0031185150146484375,2026-03-29T22:30:23.344,2026-03-29T18:30:23.344,-22766.579999999998,-42810.119999999995,-77624.19,-48929.58,-9307.395,-16350.255,7394.535,-61028.729999999996,-1.3387078506566892,3.8432118023703623,8.657180325946147,8.692369876117018,5.95054751038822,4.801498392011117,-2.8855858236201373,-3.954528116936503,0.39733785,-0.813413445,0.439635105,6.36342,-7.00434,-62.99328,68.0
1774823423.3448727,1.6450881958007812e-05,2026-03-29T22:30:23.344,2026-03-29T18:30:23.344,-22764.69,-42810.075,-77615.37,-48917.835,-9296.82,-16335.224999999999,7399.349999999999,-61028.055,-1.0443823402327377,2.750127435355391,7.832409857795306,10.242420408447902,9.052445825309265,9.934526539977371,0.9281426333256572,-2.8116563052882952,0.39733785,-0.813413445,0.439635105,6.36342,-7.00434,-62.99328,68.0
1774823423.3485723,0.0036995410919189453,2026-03-29T22:30:23.348,2026-03-29T18:30:23.348,-22753.215,-42824.655,-77639.67,-48940.11,-9316.89,-16354.215,7398.2699999999995,-61011.09,-0.47401004400382846,0.4201352168016372,3.547610783330845,7.203374654893144,8.082445039215461,10.517558202581693,4.2021088191426115,-0.6665715300850322,0.39733785,-0.813413445,0.439635105,6.36342,-7.00434,-62.99328,68.0
1774823423.348606,3.3855438232421875e-05,2026-03-29T22:30:23.348,2026-03-29T18:30:23.348,-22759.92,-42845.49,-77675.48999999999,-48976.875,-9353.07,-16398.27,7400.924999999999,-61004.79,0.18659853850421051,-2.1790310203141656,-2.3975042793511014,0.9084855579465504,3.435025814086571,6.278840160712159,5.3752494714268835,1.537961930531963,0.39733785,-0.813413445,0.439635105,6.36342,-7.00434,-62.99328,68.0
1774823423.3525758,0.003969669342041016,2026-03-29T22:30:23.352,2026-03-29T18:30:23.352,-22779.629999999997,-42846.479999999996,-77700.23999999999,-49012.83,-9391.05,-16438.32,7395.4349999999995,-61026.84,0.7646842921534571,-3.919421912855947,-7.41046394568063,-5.812338581604415,-2.784878974500758,-0.7947809166268726,3.9558817684118845,2.940997064152594,0.41442765,-0.826719075,0.43920786,15.015839999999999,-7.553699999999999,-65.52644,68.0
1774823423.3526256,4.982948303222656e-05,2026-03-29T22:30:23.352,2026-03-29T18:30:23.352,-22764.915,-42839.549999999996,-77700.19499999999,-49010.895,-9388.26,-16431.57,7385.67,-61018.965,1.1191262310238688,-4.00367532479763,-9.245138591397366,-9.919879716578919,-7.73116423384842,-7.407340751728765,0.7203949061471614,3.092845714673764,0.41442765,-0.826719075,0.43920786,15.015839999999999,-7.553699999999999,-65.52644,68.0
1774823423.3601923,0.007566690444946289,2026-03-29T22:30:23.360,2026-03-29T18:30:23.360,-22744.754999999997,-42830.729999999996,-77685.48,-48990.78,-9368.505,-16408.079999999998,7389.36,-60993.494999999995,1.1499763880318568,-2.3330171895816596,-7.022150426255875,-9.560481474862163,-9.14520921744521,-10.521568260836997,-2.716011122883504,2.0760618082114064,0.41442765,-0.826719075,0.43920786,15.015839999999999,-7.553699999999999,-65.52644,68.0
1774823423.3602145,2.2172927856445312e-05,2026-03-29T22:30:23.360,2026-03-29T18:30:23.360,-22766.129999999997,-42836.895,-77676.795,-48977.145,-9354.645,-16395.48,7391.429999999999,-61014.375,0.8194440402283333,0.4186499725659776,-1.6602537776505113,-4.918424882668534,-6.411146188546615,-8.784436123163855,-4.718267307124827,0.4002564212517172,0.41442765,-0.826719075,0.43920786,15.015839999999999,-7.553699999999999,-65.52644,68.0
1774823423.360234,1.9550323486328125e-05,2026-03-29T22:30:23.360,2026-03-29T18:30:23.360,-22765.86,-42836.49,-77674.36499999999,-48977.28,-9349.875,-16385.265,7398.855,-61024.005,0.18427958194917365,3.072459243756181,4.497348107915662,1.8738978093435206,-0.833396062547597,-3.1271842095393523,-4.419755491016431,-1.2510868338044039,0.41442765,-0.826719075,0.43920786,15.015839999999999,-7.553699999999999,-65.52644,68.0
1774823423.3602412,7.152557373046875e-06,2026-03-29T22:30:23.360,2026-03-29T18:30:23.360,-22753.844999999998,-42839.865,-77684.12999999999,-48995.055,-9369.63,-16403.76,7391.429999999999,-61004.564999999995,-0.5845177340461913,4.450015947387381,8.713342561634112,7.726221389275927,4.993173470902878,3.732156588738771,-2.0953969555132144,-2.2969505500015495,0.41442765,-0.826719075,0.43920786,15.015839999999999,-7.553699999999999,-65.52644,68.0
1774823423.3639722,0.0037310123443603516,2026-03-29T22:30:23.363,2026-03-29T18:30:23.363,-22750.155,-42835.5,-77675.895,-48990.915,-9371.205,-16407.045,7380.585,-60997.77,-1.226212799574862,3.8997181489168447,9.087265756768213,10.016269909857138,8.412718218108486,8.618378762716668,1.0397945211332151,-2.4479007008979816,0.41442765,-0.826719075,0.43920786,15.015839999999999,-7.553699999999999,-65.52644,68.0
1774823423.3639915,1.9311904907226562e-05,2026-03-29T22:30:23.363,2026-03-29T18:30:23.363,-22776.434999999998,-42835.365,-77661.62999999999,-48968.145,-9349.154999999999,-16389.225,7383.6449999999995,-61024.59,-1.4723289266420723,1.607441574855091,5.426703246471411,7.783932416923567,7.94452031821791,9.399713804680587,3.4735153821046882,-1.7554107224633408,0.41442765,-0.826719075,0.43920786,15.015839999999999,-7.553699999999999,-65.52644,68.0
1774823423.3681228,0.004131317138671875,2026-03-29T22:30:23.368,2026-03-29T18:30:23.368,-22788.495,-42831.494999999995,-77653.89,-48952.665,-9329.67,-16374.015,7373.79,-61047.494999999995,-1.1637168079340439,-1.4576297952401023,-0.6475538236537484,2.1406839391844414,3.9383692972949476,5.9360789973130155,4.137715219901129,-0.5355539127287484,0.41442765,-0.826719075,0.43920786,15.015839999999999,-7.553699999999999,-65.52644,68.0
1774823423.3681524,2.956390380859375e-05,2026-03-29T22:30:23.368,2026-03-29T18:30:23.368,-22779.135,-42830.729999999996,-77657.84999999999,-48959.909999999996,-9337.095,-16381.035,7364.61,-61040.295,-0.34887351168233033,-3.9517952714320783,-6.4218371654537645,-4.284000103605103,-1.6478093470285213,0.04446983938893317,2.880212304414197,0.7748294027679865,0.41442765,-0.826719075,0.43920786,15.015839999999999,-7.553699999999999,-65.52644,68.0
1774823423.371833,0.003680706024169922,2026-03-29T22:30:23.371,2026-03-29T18:30:23.371,-22773.465,-42834.195,-77664.59999999999,-48971.475,-9350.1,-16393.95,7372.755,-61034.04,0.6954851156294161,-4.748348613909539,-9.313924693167477,-8.583157595683627,-6.216844142095023,-5.456604713525839,0.45702550493798666,1.7642505143024465,0.436949565,-0.84008574,0.437926125,26.49136,-5.4020399999999995,-67.61706,68.0
1774823423.3718417,8.58306884765625e-06,2026-03-29T22:30:23.371,2026-03-29T18:30:23.371,-22770.989999999998,-42841.215,-77668.92,-48976.02,-9355.14,-16400.565,7389.2699999999995,-61024.095,1.551062794461701,-3.45025433591777,-8.04312294341472,-8.907355017212724,-7.762630092411031,-8.119796205577737,-1.9113116065649143,2.1520840353230963,0.436949565,-0.84008574,0.437926125,26.49136,-5.4020399999999995,-67.61706,68.0
1774823423.3760097,0.004168033599853516,2026-03-29T22:30:23.376,2026-03-29T18:30:23.376,-22753.934999999998,-42836.31,-77670.94499999999,-48976.2,-9358.199999999999,-16407.72,7393.005,-61003.665,1.8287272756852062,-0.589002694999674,-3.2085437158834478,-5.271740785278517,-5.768427066328016,-6.979279786327255,-3.1639898925113275,1.8418146357824912,0.436949565,-0.84008574,0.437926125,26.49136,-5.4020399999999995,-67.61706,68.0
1774823423.3760302,2.0503997802734375e-05,2026-03-29T22:30:23.376,2026-03-29T18:30:23.376,-22750.29,-42829.965,-77671.935,-48981.825,-9361.215,-16404.84,7381.17,-61007.265,1.3514829494688234,2.5902735109220902,2.9908011903242655,0.5226963611822596,-1.3625003777543092,-2.88493033971909,-2.8819272464645795,0.9306570556623188,0.436949565,-0.84008574,0.437926125,26.49136,-5.4020399999999995,-67.61706,68.0
1774823423.3862865,0.010256290435791016,2026-03-29T22:30:23.386,2026-03-29T18:30:23.386,-22753.125,-42810.165,-77641.37999999999,-48947.22,-9323.145,-16360.335,7397.415,-61022.564999999995,0.26064091174375603,4.671955995448237,7.764111749628285,5.785431678190135,3.305056962956579,2.0455502002343744,-1.405578499694144,-0.314024097745852,0.436949565,-0.84008574,0.437926125,26.49136,-5.4020399999999995,-67.61706,68.0
1774823423.3863096,2.3126602172851562e-05,2026-03-29T22:30:23.386,2026-03-29T18:30:23.386,-22750.965,-42790.229999999996,-77608.575,-48908.07,-9287.01,-16328.654999999999,7417.17,-61017.03,-1.016249997379536,4.703774687163956,8.998930094824239,8.201958285645578,6.12507493588806,5.527084412716524,0.42914165488023936,-1.510452277541324,0.436949565,-0.84008574,0.437926125,26.49136,-5.4020399999999995,-67.61706,68.0
1774823423.3863268,1.71661376953125e-05,2026-03-29T22:30:23.386,2026-03-29T18:30:23.386,-22745.52,-42797.43,-77628.465,-48927.869999999995,-9308.699999999999,-16353.675,7407.8099999999995,-61001.055,-1.9348169965312987,2.6358588912391054,6.208537140160688,6.8656354750610475,6.000070826310083,6.186003457938678,1.7602332106282195,-2.2546249483993277,0.436949565,-0.84008574,0.437926125,26.49136,-5.4020399999999995,-67.61706,68.0
1774823423.3863337,6.9141387939453125e-06,2026-03-29T22:30:23.386,2026-03-29T18:30:23.386,-22751.594999999998,-42809.354999999996,-77646.06,-48954.6,-9329.984999999999,-16370.595,7405.29,-61010.369999999995,-2.0720023136432966,-0.6389571166747905,0.7257823917057387,2.6091277390111816,3.2679200545037346,4.098932344564517,2.1130476996309517,-2.243240040098304,0.436949565,-0.84008574,0.437926125,26.49136,-5.4020399999999995,-67.61706,68.0
1774823423.3863425,8.821487426757812e-06,2026-03-29T22:30:23.386,2026-03-29T18:30:23.386,-22744.844999999998,-42818.22,-77667.39,-48978.405,-9351.945,-16386.165,7403.804999999999,-61010.909999999996,-1.3254178899178422,-3.670599852356351,-4.934822220433927,-2.4807258423614256,-0.5830104774275146,0.5824934659848516,1.5560625864134527,-1.398062547431811,0.436949565,-0.84008574,0.437926125,26.49136,-5.4020399999999995,-67.61706,68.0
1774823423.3863497,7.152557373046875e-06,2026-03-29T22:30:23.386,2026-03-29T18:30:23.386,-22737.015,-42825.6,-77677.29,-48978.0,-9349.199999999999,-16383.914999999999,7404.705,-61009.47,0.02219612986017659,-5.0965299427303545,-8.240264313515599,-6.092464021883233,-3.7148245525431047,-2.58663057584111,0.5565271056372846,0.0595756601525382,0.436949565,-0.84008574,0.437926125,26.49136,-5.4020399999999995,-67.61706,68.0
1774823423.3924935,0.006143808364868164,2026-03-29T22:30:23.392,2026-03-29T18:30:23.392,-22776.03,-42844.814999999995,-77669.50499999999,-48971.79,-9341.595,-16379.955,7401.96,-61024.905,1.4107836596411476,-4.257811171104289,-7.784384928404667,-6.752751102005675,-4.829251149858583,-4.075662473411207,-0.34168866688404614,1.636187146506792,0.455015925,-0.841001265,0.443175135,36.05938,-3.26564,-66.54885999999999,68.0
1774823423.3925364,4.291534423828125e-05,2026-03-29T22:30:23.392,2026-03-29T18:30:23.392,-22784.94,-42815.43,-77639.715,-48955.365,-9329.58,-16372.439999999999,7396.38,-61034.22,2.2410617397005614,-1.5062126356354866,-3.8918497793049034,-4.427545117721956,-3.7093034384000947,-3.5610124169905126,-0.8152367250348375,2.7161120226917013,0.455015925,-0.841001265,0.443175135,36.05938,-3.26564,-66.54885999999999,68.0
1774823423.3987994,0.006263017654418945,2026-03-29T22:30:23.398,2026-03-29T18:30:23.398,-22758.344999999998,-42804.0,-77633.37,-48947.534999999996,-9324.315,-16370.64,7390.125,-61020.99,2.1386110741394133,1.9418839562217343,1.581290129597939,-0.4166116283310102,-1.1859785337488717,-1.7131315613826696,-0.8713266315527345,2.7988917260747863,0.455015925,-0.841001265,0.443175135,36.05938,-3.26564,-66.54885999999999,68.0
1774823423.3988187,1.9311904907226562e-05,2026-03-29T22:30:23.398,2026-03-29T18:30:23.398,-22761.855,-42819.795,-77657.22,-48967.155,-9343.8,-16392.96,7385.58,-61021.439999999995,1.1247519575800364,4.544775826841098,6.13609667412836,3.3543521549839936,1.3931382744728082,0.31570059312563997,-0.7372777017179291,1.734209355928797,0.455015925,-0.841001265,0.443175135,36.05938,-3.26564,-66.54885999999999,68.0
1774823423.3988407,2.193450927734375e-05,2026-03-29T22:30:23.398,2026-03-29T18:30:23.398,-22765.725,-42828.299999999996,-77665.00499999999,-48975.93,-9355.05,-16403.04,7382.61,-61022.97,-0.3847180004233774,5.12803536410094,7.780780790231346,5.264635453284668,2.876778435591321,1.5670727467046968,-0.6323004836743121,-0.1570604772591077,0.455015925,-0.841001265,0.443175135,36.05938,-3.26564,-66.54885999999999,68.0
1774823423.3988476,6.9141387939453125e-06,2026-03-29T22:30:23.398,2026-03-29T18:30:23.398,-22774.454999999998,-42835.95,-77663.52,-48971.61,-9352.935,-16395.795,7381.755,-61024.814999999995,-1.7546971807243759,3.4177336745644986,5.908581385740169,4.699318933954177,2.8294067127942575,1.7333555053972198,-0.5874948971478949,-2.1555072101026287,0.455015925,-0.841001265,0.443175135,36.05938,-3.26564,-66.54885999999999,68.0
1774823423.405488,0.006640434265136719,2026-03-29T22:30:23.405,2026-03-29T18:30:23.405,-22761.045,-42832.89,-77664.825,-48970.619999999995,-9350.865,-16391.88,7368.884999999999,-61014.78,-2.4033754176120854,0.17069898016449547,1.5134490748532226,2.2151232226068656,1.6203546284771488,1.176302494543544,-0.43661016367725,-3.40974898615324,0.455015925,-0.841001265,0.443175135,36.05938,-3.26564,-66.54885999999999,68.0
1774823423.405514,2.5987625122070312e-05,2026-03-29T22:30:23.405,2026-03-29T18:30:23.405,-22751.46,-42823.17,-77655.915,-48956.985,-9326.43,-16364.115,7383.285,-61011.0,-2.0523732080325483,-3.1607674071141085,-3.328176113046703,-0.8518877680621623,0.09307388109199483,0.5566620539472685,0.01963524081902368,-3.3021516679667418,0.455015925,-0.841001265,0.443175135,36.05938,-3.26564,-66.54885999999999,68.0
1774823423.4181793,0.012665271759033203,2026-03-29T22:30:23.418,2026-03-29T18:30:23.418,-22739.175,-42797.564999999995,-77628.42,-48930.299999999996,-9297.315,-16333.47,7408.844999999999,-61004.52,-0.8453513225077901,-5.080988229692103,-6.4421806386889875,-3.092321012723096,-0.9571002339792415,0.34228422797979724,0.7934285466606849,-1.7553170470905655,0.455015925,-0.841001265,0.443175135,36.05938,-3.26564,-66.54885999999999,68.0
1774823423.418208,2.86102294921875e-05,2026-03-29T22:30:23.418,2026-03-29T18:30:23.418,-22746.645,-42812.64,-77650.73999999999,-48959.82,-9333.539999999999,-16373.519999999999,7378.74,-61004.295,0.7148878888269523,-4.725859619967893,-6.538952981121024,-3.674304275038068,-1.19234099962486,0.510098756138966,1.5974263380415026,0.6735839889022618,0.455015925,-0.841001265,0.443175135,36.05938,-3.26564,-66.54885999999999,68.0
1774823423.418233,2.5033950805664062e-05,2026-03-29T22:30:23.418,2026-03-29T18:30:23.418,-22762.215,-42835.049999999996,-77673.69,-48982.095,-9356.31,-16395.12,7370.37,-61014.104999999996,1.9810138563238426,-2.2544915383540562,-3.7464925360214747,-2.6371900521744283,-0.8198062876523888,0.6171309538738668,1.9435143543206244,2.98154155629699,0.466124295,-0.8227518,0.45239142,27.66638,-3.3419399999999997,-65.37384,68.0
1774823423.418243,1.0013580322265625e-05,2026-03-29T22:30:23.418,2026-03-29T18:30:23.418,-22761.045,-42833.385,-77663.7,-48972.78,-9351.404999999999,-16390.845,7395.66,-61008.884999999995,2.433153776598064,1.2212563045579095,0.5250373929583094,-0.7337484909137791,-0.3495485389620311,0.17722598792589506,1.423406589951228,4.1347439745111645,0.466124295,-0.8227518,0.45239142,27.66638,-3.3419399999999997,-65.37384,68.0
1774823423.4182556,1.2636184692382812e-05,2026-03-29T22:30:23.418,2026-03-29T18:30:23.418,-22759.92,-42822.36,-77638.72499999999,-48946.814999999995,-9329.085,-16366.59,7437.195,-61000.244999999995,1.892221022524371,4.138576946870682,4.290195911245739,1.0416273097328896,-0.20408610852908435,-0.9133073489315054,0.014744521238062202,3.53798482288345,0.466124295,-0.8227518,0.45239142,27.66638,-3.3419399999999997,-65.37384,68.0
1774823423.4182644,8.821487426757812e-06,2026-03-29T22:30:23.418,2026-03-29T18:30:23.418,-22780.44,-42841.89,-77665.77,-48975.479999999996,-9357.435,-16397.055,7418.745,-61021.259999999995,0.587219933158017,5.189725445407563,5.91378443866795,1.963394384314467,-0.4323962848929002,-2.192153208629606,-1.7851336825704722,1.342496787574944,0.466124295,-0.8227518,0.45239142,27.66638,-3.3419399999999997,-65.37384,68.0
1774823423.4229364,0.004672050476074219,2026-03-29T22:30:23.422,2026-03-29T18:30:23.422,-22776.21,-42857.775,-77705.73,-49017.645,-9396.585,-16439.895,7385.4,-61019.415,-0.9465747658576135,3.911793925848824,4.822199883553614,1.8651400923429218,-0.7013232637967148,-2.835222428558994,-3.118203138448361,-1.5672097186642902,0.466124295,-0.8227518,0.45239142,27.66638,-3.3419399999999997,-65.37384,68.0
1774823423.4229538,1.7404556274414062e-05,2026-03-29T22:30:23.422,2026-03-29T18:30:23.422,-22759.29,-42848.64,-77697.18,-49010.445,-9388.17,-16429.095,7384.139999999999,-60995.97,-2.090901287884955,0.8925810284213639,1.6908620758757724,1.0973518937031994,-0.5590416435172063,-2.1539803002044535,-3.176826941139224,-3.9277934176409186,0.466124295,-0.8227518,0.45239142,27.66638,-3.3419399999999997,-65.37384,68.0
1774823423.4255588,0.002604961395263672,2026-03-29T22:30:23.425,2026-03-29T18:30:23.425,-22767.12,-42835.905,-77668.92,-48979.89,-9355.05,-16398.72,7405.605,-61010.325,-2.3942258456219854,-2.5000884049913528,-1.9441562509536288,0.22796520857055877,0.2048305432661457,-0.09703437487893729,-1.6686439003021996,-4.652079400857,0.466124295,-0.8227518,0.45239142,27.66638,-3.3419399999999997,-65.37384,68.0
1774823423.4255817,2.288818359375e-05,2026-03-29T22:30:23.425,2026-03-29T18:30:23.425,-22771.98,-42831.494999999995,-77656.275,-48963.06,-9336.914999999999,-16376.4,7420.32,-61019.549999999996,-1.7468441055796269,-4.740952402847288,-4.4361897703091895,-0.31286169432443006,1.3400980299717924,2.5632570878544128,0.9241213176058848,-3.337848250071376,0.466124295,-0.8227518,0.45239142,27.66638,-3.3419399999999997,-65.37384,68.0
1774823423.4282005,0.0026187896728515625,2026-03-29T22:30:23.428,2026-03-29T18:30:23.428,-22768.559999999998,-42835.095,-77663.7,-48972.15,-9348.705,-16386.84,7399.665,-61014.915,-0.41521587520489345,-4.837185620678434,-4.77461091472616,-0.4386802347685057,2.2137511572345576,4.518897155078241,3.469612592253473,-0.48862270910333033,0.466124295,-0.8227518,0.45239142,27.66638,-3.3419399999999997,-65.37384,68.0
1774823423.4282205,2.002716064453125e-05,2026-03-29T22:30:23.428,2026-03-29T18:30:23.428,-22761.315,-42828.975,-77658.97499999999,-48966.39,-9341.46,-16383.914999999999,7391.295,-61016.805,1.0717788858139266,-2.7715629301158042,-2.9892470981161985,-0.3677252089756895,2.161927409399221,4.5818658069980005,4.682782934774112,2.6738445272197984,0.466124295,-0.8227518,0.45239142,27.66638,-3.3419399999999997,-65.37384,68.0
1774823423.4352105,0.006989955902099609,2026-03-29T22:30:23.435,2026-03-29T18:30:23.435,-22753.215,-42829.155,-77663.87999999999,-48968.595,-9341.73,-16386.93,7399.17,-61012.935,2.134160992408985,0.5006388188468522,-0.053876706077939325,-0.3957020676237632,0.9211102545067442,2.373296171414309,3.7742073118243273,4.738954896333238,0.47424195,-0.794736735,0.45428350500000003,4.97476,-5.02054,-63.54264,68.0
1774823423.4352272,1.6689300537109375e-05,2026-03-29T22:30:23.435,2026-03-29T18:30:23.435,-22768.065,-42842.025,-77673.555,-48979.35,-9351.99,-16400.745,7387.335,-61017.03,2.364711357532492,3.495356803024607,2.6293934994184784,-0.6440554475755149,-1.1210496735297855,-1.342092909955389,0.9233450732081375,4.746702833826433,0.47424195,-0.794736735,0.45428350500000003,4.97476,-5.02054,-63.54264,68.0
1774823423.4352503,2.3126602172851562e-05,2026-03-29T22:30:23.435,2026-03-29T18:30:23.435,-22777.29,-42835.229999999996,-77665.68,-48972.33,-9346.14,-16398.72,7366.23,-61025.939999999995,1.6802539824718794,4.877269937045748,3.8973111494745463,-0.9509839102947184,-3.0299167248750676,-4.9044156079924175,-2.6944529637706527,2.6424930953695376,0.47424195,-0.794736735,0.45428350500000003,4.97476,-5.02054,-63.54264,68.0
1774823423.4352548,4.5299530029296875e-06,2026-03-29T22:30:23.435,2026-03-29T18:30:23.435,-22757.94,-42819.975,-77649.03,-48958.83,-9338.445,-16390.575,7366.1849999999995,-61013.744999999995,0.34678735691990403,4.059770300502926,3.3277247624436748,-0.9759908393273875,-3.764938012442688,-6.51801392400846,-5.390404403831186,-0.6722086054151911,0.47424195,-0.794736735,0.45428350500000003,4.97476,-5.02054,-63.54264,68.0
1774823423.4411623,0.005907535552978516,2026-03-29T22:30:23.441,2026-03-29T18:30:23.441,-22742.1,-42803.415,-77627.79,-48939.705,-9323.505,-16376.22,7373.61,-61002.045,-1.1260910896110203,1.4554633487814228,1.3611616020868968,-0.4519581601585454,-2.7432733647307095,-5.165790070399118,-5.75714989559835,-3.7299409028655943,0.47424195,-0.794736735,0.45428350500000003,4.97476,-5.02054,-63.54264,68.0
1774823423.4411929,3.0517578125e-05,2026-03-29T22:30:23.441,2026-03-29T18:30:23.441,-22734.315,-42803.415,-77631.20999999999,-48942.945,-9330.705,-16390.8,7377.4349999999995,-60991.965,-2.178465784002557,-1.7308432934387612,-0.9812202690173149,0.5773823992365305,-0.22240516460278195,-1.209309252932733,-3.3987512744826973,-5.157691620174305,0.47424195,-0.794736735,0.45428350500000003,4.97476,-5.02054,-63.54264,68.0
1774823423.444345,0.003152132034301758,2026-03-29T22:30:23.444,2026-03-29T18:30:23.444,-22740.48,-42831.405,-77664.555,-48964.68,-9343.17,-16394.67,7393.59,-60990.795,-2.4085256801496313,-4.063524870646628,-2.6180118944505835,1.695675619549572,2.728369634768836,3.665463703961108,0.7810330460829173,-4.30543791347351,0.47424195,-0.794736735,0.45428350500000003,4.97476,-5.02054,-63.54264,68.0
1774823423.4443648,1.9788742065429688e-05,2026-03-29T22:30:23.444,2026-03-29T18:30:23.444,-22741.335,-42856.515,-77692.995,-48980.384999999995,-9346.095,-16381.305,7414.65,-60996.149999999994,-1.7208295753287406,-4.5285525481044795,-2.904744733853669,2.2901617672305994,4.692548084953512,7.180171532871223,4.9148119107581385,-1.5491973980079963,0.47424195,-0.794736735,0.45428350500000003,4.97476,-5.02054,-63.54264,68.0
1774823423.4495547,0.0051898956298828125,2026-03-29T22:30:23.449,2026-03-29T18:30:23.449,-22787.82,-42862.86,-77675.08499999999,-48956.895,-9322.109999999999,-16359.029999999999,7417.755,-61022.744999999995,-0.36237473825573613,-2.9776770887837065,-1.8801398114764099,1.8868352661936625,4.5994147739320965,7.548829645185655,7.012614459302579,1.8763853093428804,0.47424195,-0.794736735,0.45428350500000003,4.97476,-5.02054,-63.54264,68.0
1774823423.4495764,2.1696090698242188e-05,2026-03-29T22:30:23.449,2026-03-29T18:30:23.449,-22770.719999999998,-42815.52,-77657.4,-48948.75,-9318.779999999999,-16361.64,7401.24,-61018.02,1.1654559411126588,-0.16785472481664884,-0.17137793775430754,0.4619799510358205,2.3008958177551513,4.390013915922095,5.92588586047731,4.441074189401929,0.47424195,-0.794736735,0.45428350500000003,4.97476,-5.02054,-63.54264,68.0
1774823423.4521427,0.0025663375854492188,2026-03-29T22:30:23.452,2026-03-29T18:30:23.452,-22723.649999999998,-42812.1,-77676.25499999999,-48978.09,-9346.904999999999,-16390.845,7385.264999999999,-60979.545,2.2878549462457136,2.609808526828741,1.3632728385474406,-1.4570370496537772,-1.275485606376186,-1.0008999592695291,1.9648000253019597,5.016410484732001,0.48144408,-0.7749003600000001,0.453429015,-13.62718,-3.0672599999999997,-59.361399999999996,68.0
1774823423.4521625,1.9788742065429688e-05,2026-03-29T22:30:23.452,2026-03-29T18:30:23.452,-22703.67,-42815.385,-77681.52,-48999.195,-9364.904999999999,-16406.505,7390.3949999999995,-60947.595,2.5671240440610306,4.129112105907618,2.059519468773263,-2.9866880687450363,-4.505684056368872,-6.188958260728377,-3.158391024566676,3.3829249748673877,0.48144408,-0.7749003600000001,0.453429015,-13.62718,-3.0672599999999997,-59.361399999999996,68.0
1774823423.462488,0.010325431823730469,2026-03-29T22:30:23.462,2026-03-29T18:30:23.462,-22756.004999999997,-42838.064999999995,-77683.815,-48995.955,-9362.835,-16406.055,7399.755,-60998.22,1.8685226886172714,3.775084945387296,1.7314896341351604,-3.3051393228362875,-5.822191071929724,-8.719731898440997,-7.073227157141452,0.31365111000825585,0.48144408,-0.7749003600000001,0.453429015,-13.62718,-3.0672599999999997,-59.361399999999996,68.0
1774823423.4625056,1.7642974853515625e-05,2026-03-29T22:30:23.462,2026-03-29T18:30:23.462,-22808.925,-42857.595,-77687.415,-48981.555,-9351.72,-16396.02,7415.82,-61060.77,0.42101970555784385,1.791495811756491,0.695145127878395,-2.090554920469894,-4.484683236378002,-7.2974863931388345,-7.857204177308599,-2.79829542848926,0.48144408,-0.7749003600000001,0.453429015,-13.62718,-3.0672599999999997,-59.361399999999996,68.0
1774823423.4625428,3.719329833984375e-05,2026-03-29T22:30:23.462,2026-03-29T18:30:23.462,-22788.629999999997,-42862.814999999995,-77700.87,-48987.18,-9357.93,-16403.85,7417.485,-61032.869999999995,-1.2528292111936348,-0.8696131279633463,-0.4515136562492347,0.25213385232211866,-0.9854666972520462,-2.448716771351464,-4.983911697206588,-4.585976019327232,0.48144408,-0.7749003600000001,0.453429015,-13.62718,-3.0672599999999997,-59.361399999999996,68.0
1774823423.46255,7.152557373046875e-06,2026-03-29T22:30:23.462,2026-03-29T18:30:23.462,-22784.805,-42860.43,-77685.165,-48974.49,-9346.859999999999,-16396.38,7399.844999999999,-61029.765,-2.5187657492551643,-3.0089543786818886,-1.156700754322299,2.7156001213647003,3.1278318964066054,3.6681803083870017,0.3560195036941095,-4.322378312224781,0.48144408,-0.7749003600000001,0.453429015,-13.62718,-3.0672599999999997,-59.361399999999996,68.0
1774823423.4625585,8.58306884765625e-06,2026-03-29T22:30:23.462,2026-03-29T18:30:23.462,-22757.445,-42845.939999999995,-77679.09,-48977.595,-9349.965,-16399.53,7384.365,-61004.655,-2.8645165994767248,-3.7264690099068623,-1.1770694456614017,4.132885268472818,5.949814895481849,8.23992082546521,5.746452764794633,-2.2192858956152857,0.48144408,-0.7749003600000001,0.453429015,-13.62718,-3.0672599999999997,-59.361399999999996,68.0
1774823423.4625647,6.198883056640625e-06,2026-03-29T22:30:23.462,2026-03-29T18:30:23.462,-22749.84,-42835.14,-77673.42,-48983.04,-9352.664999999999,-16396.559999999998,7393.23,-60990.84,-2.1025800596680444,-2.801219188665616,-0.6503965642933424,3.73914890367667,6.114290436285426,9.111785707029613,8.64790477449538,0.7138144858977294,0.48144408,-0.7749003600000001,0.453429015,-13.62718,-3.0672599999999997,-59.361399999999996,68.0
1774823423.4681144,0.00554966926574707,2026-03-29T22:30:23.468,2026-03-29T18:30:23.468,-22728.825,-42816.33,-77665.545,-48997.619999999995,-9369.225,-16411.184999999998,7396.83,-60970.365,-0.46418722237389953,-0.7435234808142042,0.0359827538229561,1.5784779748582134,3.462206723177551,5.815574665258096,7.603631050688451,3.1647988238283498,0.48144408,-0.7749003600000001,0.453429015,-13.62718,-3.0672599999999997,-59.361399999999996,68.0
1774823423.4681323,1.7881393432617188e-05,2026-03-29T22:30:23.468,2026-03-29T18:30:23.468,-22749.344999999998,-42818.04,-77650.065,-48972.735,-9350.234999999999,-16402.14,7394.219999999999,-60995.655,1.4600103647416516,1.4820591149833633,0.48892938757136534,-1.4577953094378782,-0.8482675159558206,-0.1832359975991212,2.972749309683484,4.120626439316427,0.48144408,-0.7749003600000001,0.453429015,-13.62718,-3.0672599999999997,-59.361399999999996,68.0
1774823423.4729056,0.004773378372192383,2026-03-29T22:30:23.472,2026-03-29T18:30:23.472,-22773.42,-42815.655,-77620.41,-48937.095,-9321.84,-16377.93,7395.525,-61026.524999999994,2.9235191303875223,2.9142398959229863,0.5235072841839495,-4.0036853265060195,-4.856095524410816,-6.147281429156036,-3.1790795208308538,3.2925334587582507,0.487852755,-0.771665505,0.452208315,-22.37116,-2.8383599999999998,-56.75194,68.0
1774823423.4729254,1.9788742065429688e-05,2026-03-29T22:30:23.472,2026-03-29T18:30:23.472,-22762.89,-42815.205,-77635.035,-48953.34,-9336.6,-16389.045,7389.224999999999,-61012.575,3.3066222245299364,3.0134215084180536,0.23433757401211122,-4.843520580534313,-6.703229302488743,-9.33381300030668,-8.007166296511246,1.1823946023948209,0.487852755,-0.771665505,0.452208315,-22.37116,-2.8383599999999998,-56.75194,68.0
1774823423.476061,0.00313568115234375,2026-03-29T22:30:23.476,2026-03-29T18:30:23.476,-22742.594999999998,-42812.235,-77656.455,-48969.27,-9339.029999999999,-16387.245,7394.94,-61010.82,2.3747998762910165,1.857156539606571,-0.10119616133887677,-3.4987942515672827,-5.50732901199747,-8.27192866191967,-9.214428062452761,-1.2108089105449564,0.487852755,-0.771665505,0.452208315,-22.37116,-2.8383599999999998,-56.75194,68.0
1774823423.476071,9.775161743164062e-06,2026-03-29T22:30:23.476,2026-03-29T18:30:23.476,-22759.829999999998,-42821.775,-77652.54,-48957.57,-9325.755,-16371.99,7401.96,-61025.985,0.4073490799670232,0.04624136546245665,-0.2179208907718594,-0.4914030086783422,-1.7868097866458545,-3.4489975510240387,-6.153673116087245,-2.8768874332416488,0.487852755,-0.771665505,0.452208315,-22.37116,-2.8383599999999998,-56.75194,68.0
1774823423.4807673,0.004696369171142578,2026-03-29T22:30:23.480,2026-03-29T18:30:23.480,-22772.295,-42826.814999999995,-77657.04,-48959.1,-9328.904999999999,-16373.789999999999,7399.844999999999,-61020.54,-1.869808949278088,-1.6074856623708174,-0.03481981214865081,2.8576632844496133,2.7674905939666647,2.9166860811742183,-0.1726808036290826,-3.23054247861832,0.487852755,-0.771665505,0.452208315,-22.37116,-2.8383599999999998,-56.75194,68.0
1774823423.4807937,2.6464462280273438e-05,2026-03-29T22:30:23.480,2026-03-29T18:30:23.480,-22763.565,-42825.33,-77663.79,-48970.845,-9345.15,-16391.61,7392.375,-61013.52,-3.541272880693623,-2.4492989955758473,0.29796147318340377,5.016766977643055,6.071223261806408,7.908639422916113,5.980988211098697,-2.304099821828401,0.487852755,-0.771665505,0.452208315,-22.37116,-2.8383599999999998,-56.75194,68.0
1774823423.4922833,0.011489629745483398,2026-03-29T22:30:23.492,2026-03-29T18:30:23.492,-22783.14,-42832.26,-77654.295,-48951.765,-9322.83,-16371.269999999999,7400.16,-61032.96,-3.8640618525952193,-2.236598313701424,0.5022208267343226,4.953304540858635,6.612291233022822,9.263604011039678,9.432060870026797,-0.640625956439411,0.487852755,-0.771665505,0.452208315,-22.37116,-2.8383599999999998,-56.75194,68.0
1774823423.4922984,1.5020370483398438e-05,2026-03-29T22:30:23.492,2026-03-29T18:30:23.492,-22772.61,-42830.46,-77653.305,-48950.235,-9319.994999999999,-16368.39,7401.509999999999,-61021.799999999996,-2.594598185937088,-1.1836942098810055,0.3603791362704718,2.6320772634272878,4.1509112460203195,6.4087368714945665,8.533332639558983,1.0193845626193259,0.487852755,-0.771665505,0.452208315,-22.37116,-2.8383599999999998,-56.75194,68.0
1774823423.4923117,1.33514404296875e-05,2026-03-29T22:30:23.492,2026-03-29T18:30:23.492,-22759.065,-42832.215,-77663.16,-48965.31,-9337.32,-16383.42,7402.5,-61002.585,-0.13859833875536573,0.19294731183414096,-0.12641931586788752,-0.9395946988744713,-0.17322055843160947,0.7047853126674257,3.6605730431617416,2.0793364429822345,0.487852755,-0.771665505,0.452208315,-22.37116,-2.8383599999999998,-56.75194,68.0
1774823423.492316,4.291534423828125e-06,2026-03-29T22:30:23.492,2026-03-29T18:30:23.492,-22751.415,-42835.095,-77675.94,-48980.07,-9350.64,-16393.454999999998,7394.219999999999,-60993.09,2.5599232586773657,1.3303087898750547,-0.7109618317664375,-4.153553833344828,-4.3744552904386085,-5.2077633845031315,-2.940749592493868,2.2927552110701055,0.487852755,-0.771665505,0.452208315,-22.37116,-2.8383599999999998,-56.75194,68.0
1774823423.5245636,0.03224754333496094,2026-03-29T22:30:23.524,2026-03-29T18:30:23.524,-22750.469999999998,-42832.305,-77673.105,-48978.63,-9348.84,-16393.815,7381.53,-60994.619999999995,4.371720281163602,1.8476305311577652,-1.0283956915821062,-5.533436737338295,-6.5427902590080995,-8.642613253496807,-8.196672473398133,1.7672599418820467,0.493223835,-0.78039351,0.444273765,-16.023,-2.1516599999999997,-55.25646,68.0
1774823423.5245833,1.9788742065429688e-05,2026-03-29T22:30:23.524,2026-03-29T18:30:23.524,-22752.495,-42813.0,-77640.525,-48946.68,-9320.039999999999,-16369.965,7381.71,-61011.854999999996,4.450874023305042,1.6561476766441252,-0.8130493288491476,-4.4208775444130355,-5.721483238860778,-8.099794528284155,-9.648353746291432,0.8148368150052177,0.493223835,-0.78039351,0.444273765,-16.023,-2.1516599999999997,-55.25646,68.0
1774823423.5246017,1.8358230590820312e-05,2026-03-29T22:30:23.524,2026-03-29T18:30:23.524,-22744.215,-42804.945,-77627.52,-48935.295,-9312.57,-16366.59,7391.025,-60999.255,2.626751543646567,0.9297264501816728,-0.07923526674544931,-1.2931940837685654,-2.33359356103801,-3.925907719695261,-6.614822977573771,-0.23322252602127355,0.493223835,-0.78039351,0.444273765,-16.023,-2.1516599999999997,-55.25646,68.0
1774823423.524609,7.3909759521484375e-06,2026-03-29T22:30:23.524,2026-03-29T18:30:23.524,-22761.945,-42819.479999999996,-77643.54,-48950.64,-9328.32,-16380.945,7381.844999999999,-61015.095,-0.4608429275440494,-0.016523700154587366,0.8458866382288863,2.441900316273803,2.0343108037441042,1.8900197667531886,-0.5195251847689605,-1.1377369335179381,0.493223835,-0.78039351,0.444273765,-16.023,-2.1516599999999997,-55.25646,68.0
1774823423.5246177,8.58306884765625e-06,2026-03-29T22:30:23.524,2026-03-29T18:30:23.524,-22764.195,-42833.744999999995,-77665.815,-48972.375,-9346.005,-16391.43,7399.259999999999,-61007.49,-3.5694759684378266,-0.863433828138449,1.4711907736382188,5.0859630728766465,5.380988407232223,6.669796849006184,5.779090820341004,-1.7533736151265185,0.493223835,-0.78039351,0.444273765,-16.023,-2.1516599999999997,-55.25646,68.0
1774823423.5246243,6.67572021484375e-06,2026-03-29T22:30:23.524,2026-03-29T18:30:23.524,-22758.39,-42843.645,-77679.94499999999,-48982.365,-9355.904999999999,-16400.43,7404.21,-60990.704999999994,-5.347147501364546,-1.3806590269870682,1.4033298405512638,5.430604257977839,6.21581166828811,8.288953286153557,9.337543054890288,-1.9688458883399012,0.493223835,-0.78039351,0.444273765,-16.023,-2.1516599999999997,-55.25646,68.0
1774823423.5246325,8.106231689453125e-06,2026-03-29T22:30:23.524,2026-03-29T18:30:23.524,-22771.98,-42846.615,-77674.545,-48965.985,-9334.619999999999,-16380.855,7408.17,-61001.954999999994,-4.918833316416618,-1.4578827997431454,0.5819946916379934,3.3169543006363784,4.2291063772161825,6.128235070161638,8.516095610124161,-1.6732939803367557,0.493223835,-0.78039351,0.444273765,-16.023,-2.1516599999999997,-55.25646,68.0
1774823423.5246391,6.67572021484375e-06,2026-03-29T22:30:23.524,2026-03-29T18:30:23.524,-22793.04,-42843.24,-77667.93,-48962.655,-9332.955,-16382.07,7408.259999999999,-61030.079999999994,-2.3130306538960625,-1.0956381042629737,-0.6472468897211042,-0.28816491438504843,0.40344715337209286,1.3045945396371679,3.7451570857940495,-0.8067234501251838,0.493223835,-0.78039351,0.444273765,-16.023,-2.1516599999999997,-55.25646,68.0
1774823423.5246465,7.3909759521484375e-06,2026-03-29T22:30:23.524,2026-03-29T18:30:23.524,-22786.02,-42828.119999999995,-77648.04,-48949.02,-9321.705,-16373.835,7408.9349999999995,-61033.95,1.477945165523797,-0.3886730508648923,-1.6784589983926284,-3.737050523103467,-3.471883886827145,-3.9008500748412978,-2.69386751865874,0.5255565394812404,0.493223835,-0.78039351,0.444273765,-16.023,-2.1516599999999997,-55.25646,68.0
1774823423.5246525,5.9604644775390625e-06,2026-03-29T22:30:23.524,2026-03-29T18:30:23.524,-22732.92,-42817.814999999995,-77660.415,-48971.205,-9347.085,-16398.72,7395.4349999999995,-60988.994999999995,4.863893223655083,0.4827322445163559,-1.9481312770215622,-5.461203411794814,-5.643304645168444,-7.126601999854525,-7.764034372979436,1.9661242185648478,0.493223835,-0.78039351,0.444273765,-16.023,-2.1516599999999997,-55.25646,68.0
1774823423.52466,7.62939453125e-06,2026-03-29T22:30:23.524,2026-03-29T18:30:23.524,-22735.035,-42847.604999999996,-77695.56,-49006.619999999995,-9381.734999999999,-16435.665,7357.23,-60980.625,6.320710428860956,1.26651840713169,-1.242558932536699,-4.693098022114768,-5.1931369858735295,-7.009015410583746,-9.116489882544434,2.9495601193475305,0.50695671,-0.78478803,0.4431141,-5.76828,2.12114,-54.35612,68.0
1774823423.524666,5.9604644775390625e-06,2026-03-29T22:30:23.524,2026-03-29T18:30:23.524,-22777.559999999998,-42853.59,-77692.00499999999,-49002.659999999996,-9374.625,-16428.555,7356.0599999999995,-60999.57,5.077034719763272,1.6848077004825823,0.15712476151692711,-1.8138411399085788,-2.4295270275196312,-3.759633153678266,-6.190840023621631,2.91476679572909,0.50695671,-0.78478803,0.4431141,-5.76828,2.12114,-54.35612,68.0
1774823423.5246737,7.62939453125e-06,2026-03-29T22:30:23.524,2026-03-29T18:30:23.524,-22791.375,-42826.365,-77650.29,-48951.09,-9321.164999999999,-16368.885,7403.49,-61034.445,1.5140730593595844,1.5244617053441172,1.5832835538844825,1.8335067616994212,1.300450893090731,1.0028787459470792,-0.4511007782261961,1.6116303395218878,0.50695671,-0.78478803,0.4431141,-5.76828,2.12114,-54.35612,68.0
1774823423.5246794,5.7220458984375e-06,2026-03-29T22:30:23.524,2026-03-29T18:30:23.524,-22771.395,-42816.78,-77637.19499999999,-48938.13,-9309.285,-16352.01,7433.955,-61015.454999999994,-2.925471639664479,0.747832958537994,2.304074329760134,4.574495999210911,4.2680123940451145,5.056450977931202,5.344169031802806,-0.661007689668967,0.50695671,-0.78478803,0.4431141,-5.76828,2.12114,-54.35612,68.0
1774823423.5246868,7.3909759521484375e-06,2026-03-29T22:30:23.524,2026-03-29T18:30:23.524,-22755.195,-42816.24,-77644.665,-48948.795,-9321.57,-16370.82,7423.83,-60996.689999999995,-6.315076601405336,-0.43446842183890844,1.9026589585170017,5.1799605366413575,5.169115209252357,6.616587009171671,8.474472418054566,-3.0531857815546664,0.50695671,-0.78478803,0.4431141,-5.76828,2.12114,-54.35612,68.0
1774823423.5246933,6.4373016357421875e-06,2026-03-29T22:30:23.524,2026-03-29T18:30:23.524,-22770.495,-42824.115,-77649.20999999999,-48948.93,-9320.85,-16373.07,7416.585,-61013.43,-7.081015792525244,-1.5900486425200793,0.5156709765781285,3.4249932615486967,3.701554717836658,5.124881718026492,7.545569781534682,-4.464329872552893,0.50695671,-0.78478803,0.4431141,-5.76828,2.12114,-54.35612,68.0
1774823423.5247009,7.62939453125e-06,2026-03-29T22:30:23.524,2026-03-29T18:30:23.524,-22774.95,-42833.295,-77664.23999999999,-48964.455,-9333.63,-16384.05,7416.045,-61015.545,-4.734552805302768,-2.2125931558197096,-1.2039957151636624,0.17235495360459907,0.6554169993632902,1.435394714998356,3.1179968062343115,-4.0507319593646045,0.50695671,-0.78478803,0.4431141,-5.76828,2.12114,-54.35612,68.0
1774823423.5247068,5.9604644775390625e-06,2026-03-29T22:30:23.524,2026-03-29T18:30:23.524,-22769.954999999998,-42838.29,-77670.315,-48977.46,-9344.565,-16392.375,7410.195,-61006.86,-0.15837208729135924,-1.9469973477725857,-2.3967005959675003,-3.0509284998623754,-2.5034928514408934,-2.6551620910666034,-2.611079103111906,-1.7054569383195644,0.50695671,-0.78478803,0.4431141,-5.76828,2.12114,-54.35612,68.0
1774823423.5282705,0.0035636425018310547,2026-03-29T22:30:23.528,2026-03-29T18:30:23.528,-22761.809999999998,-42836.22,-77665.95,-48975.299999999996,-9342.9,-16391.52,7401.42,-60998.49,4.712633268220334,-0.7902306818160975,-2.430332682178451,-4.776287976552337,-4.34070079038836,-5.281406501899635,-6.898520877599047,1.7540320978778887,0.50695671,-0.78478803,0.4431141,-5.76828,2.12114,-54.35612,68.0
1774823423.5282881,1.7642974853515625e-05,2026-03-29T22:30:23.528,2026-03-29T18:30:23.528,-22757.579999999998,-42827.939999999995,-77655.33,-48961.439999999995,-9330.615,-16379.91,7401.105,-60996.869999999995,7.708111539974302,0.8446158744913668,-1.2382283595488197,-4.270935366712434,-4.108542951476684,-5.362288991625111,-7.77625102760449,4.8422781385599025,0.50695671,-0.78478803,0.4431141,-5.76828,2.12114,-54.35612,68.0
1774823423.532315,0.004026889801025391,2026-03-29T22:30:23.532,2026-03-29T18:30:23.532,-22746.87,-42825.42,-77664.42,-48969.18,-9337.994999999999,-16387.2,7403.8949999999995,-60991.74,7.392687204760122,2.262176262754507,0.6207632619033234,-1.853444932315921,-2.0485084991086127,-3.0418118808366628,-4.962567369565894,6.043844395772026,0.515562645,-0.771421365,0.446471025,-8.95762,5.9208799999999995,-51.8077,68.0
1774823423.5323431,2.8133392333984375e-05,2026-03-29T22:30:23.532,2026-03-29T18:30:23.532,-22750.785,-42834.33,-77666.4,-48968.64,-9338.13,-16390.845,7408.17,-60990.659999999996,3.7546652245691488,2.781979473238043,2.2242654853809474,1.2907560318107505,0.7808816720531205,0.4598552089314544,0.062132945837824104,4.5589162945526835,0.515562645,-0.771421365,0.446471025,-8.95762,5.9208799999999995,-51.8077,68.0
1774823423.5392616,0.006918430328369141,2026-03-29T22:30:23.539,2026-03-29T18:30:23.539,-22769.73,-42837.21,-77661.22499999999,-48965.085,-9336.555,-16389.945,7403.535,-60995.115,-1.717946577911559,2.0714235142561437,2.7477480339213156,3.6923309574848173,3.0434921389789573,3.478138655746766,4.825931268809397,0.7885186793884074,0.515562645,-0.771421365,0.446471025,-8.95762,5.9208799999999995,-51.8077,68.0
1774823423.539271,9.5367431640625e-06,2026-03-29T22:30:23.539,2026-03-29T18:30:23.539,-22773.555,-42831.854999999996,-77663.61,-48967.695,-9340.154999999999,-16391.34,7401.105,-61005.24,-6.641260503459895,0.3489759591380809,1.893019752625602,4.291895990366095,3.758869739350908,4.694934142654426,7.083819935427325,-3.7203200275724377,0.515562645,-0.771421365,0.446471025,-8.95762,5.9208799999999995,-51.8077,68.0
1774823423.540264,0.0009927749633789062,2026-03-29T22:30:23.540,2026-03-29T18:30:23.540,-22776.39,-42834.869999999995,-77659.605,-48957.93,-9330.57,-16382.07,7406.37,-61024.229999999996,-8.776794094001863,-1.6626164357204571,0.059455291836865765,2.9136105346148216,2.7278524083521245,3.7125513092810554,5.88160154731042,-6.90460103850153,0.515562645,-0.771421365,0.446471025,-8.95762,5.9208799999999995,-51.8077,68.0
1774823423.540272,8.106231689453125e-06,2026-03-29T22:30:23.540,2026-03-29T18:30:23.540,-22770.0,-42834.015,-77657.355,-48957.39,-9334.395,-16386.93,7401.6449999999995,-61015.86,-7.054104639451875,-3.0384836907901764,-1.8404346115247505,0.3033968284937714,0.56513985791376,1.1615172827614977,1.9578787610076431,-7.136535631096376,0.515562645,-0.771421365,0.446471025,-8.95762,5.9208799999999995,-51.8077,68.0
1774823423.54467,0.0043981075286865234,2026-03-29T22:30:23.544,2026-03-29T18:30:23.544,-22768.2,-42838.875,-77665.00499999999,-48965.4,-9342.045,-16398.18,7389.315,-61012.619999999995,-2.105286589537817,-3.083601749927806,-2.8371284173692666,-2.2677317831369996,-1.6491747068459885,-1.67222631179589,-2.684554933621632,-4.053707644751284,0.515562645,-0.771421365,0.446471025,-8.95762,5.9208799999999995,-51.8077,68.0
1774823423.5446992,2.9087066650390625e-05,2026-03-29T22:30:23.544,2026-03-29T18:30:23.544,-22762.89,-42843.465,-77666.12999999999,-48962.34,-9337.635,-16395.795,7385.67,-61012.125,3.954889501514166,-1.6897634771291388,-2.4031164614657827,-3.62690698020416,-2.907646657637311,-3.4903231531773478,-5.797454422755328,1.1547111649751964,0.515562645,-0.771421365,0.446471025,-8.95762,5.9208799999999995,-51.8077,68.0
1774823423.5514865,0.006787300109863281,2026-03-29T22:30:23.551,2026-03-29T18:30:23.551,-22760.82,-42844.5,-77662.62,-48958.38,-9329.895,-16386.704999999998,7402.23,-61004.07,8.433724419156922,0.5680432255693858,-0.7362401193120041,-3.241402736973104,-2.7351729418081243,-3.5752258120086986,-5.978399981329501,6.19390834973031,0.515562645,-0.771421365,0.446471025,-8.95762,5.9208799999999995,-51.8077,68.0
1774823423.551506,1.9550323486328125e-05,2026-03-29T22:30:23.551,2026-03-29T18:30:23.551,-22765.905,-42840.9,-77671.44,-48971.43,-9335.07,-16385.13,7403.445,-61002.63,9.262701281018261,2.664896982673842,1.3263604692006534,-1.4251915423934602,-1.3595042559579453,-2.062920653623866,-3.3029861286935085,8.68133634874215,0.515562645,-0.771421365,0.446471025,-8.95762,5.9208799999999995,-51.8077,68.0
1774823423.5515437,3.7670135498046875e-05,2026-03-29T22:30:23.551,2026-03-29T18:30:23.551,-22733.415,-42814.619999999995,-77669.28,-48984.659999999996,-9350.055,-16397.01,7398.045,-60979.274999999994,5.957549685887181,3.596502495803087,2.7286295058245065,0.8693732666376843,0.46376250987074336,0.20273706593030053,0.7875250867360116,7.281514767438957,0.518248185,-0.751035675,0.445860675,-20.936719999999998,8.27092,-49.45766,68.0
1774823423.5515504,6.67572021484375e-06,2026-03-29T22:30:23.551,2026-03-29T18:30:23.551,-22722.93,-42822.314999999995,-77669.37,-48987.045,-9361.305,-16409.204999999998,7392.0599999999995,-60957.18,-0.11165979228480159,2.868515552643196,2.739285240807845,2.548892385436491,1.8577229331629819,2.1272970408002077,4.253095430278044,2.4131023030176544,0.518248185,-0.751035675,0.445860675,-20.936719999999998,8.27092,-49.45766,68.0
1774823423.563011,0.011460542678833008,2026-03-29T22:30:23.563,2026-03-29T18:30:23.563,-22736.385,-42836.445,-77674.14,-48975.615,-9351.315,-16398.27,7397.009999999999,-60964.47,-6.286690723281254,0.7625569322608922,1.3376662682644445,2.9061593735653335,2.246386845674189,2.8914071301906756,5.471400515408477,-3.8425120465490514,0.518248185,-0.751035675,0.445860675,-20.936719999999998,8.27092,-49.45766,68.0
1774823423.5630405,2.956390380859375e-05,2026-03-29T22:30:23.563,2026-03-29T18:30:23.563,-22742.64,-42844.049999999996,-77682.285,-48971.52,-9343.71,-16393.815,7391.745,-60978.915,-9.790525415977898,-1.7653563597546449,-0.7636708161096815,1.919741534382151,1.588461290265529,2.2930466078065,3.9968466000630185,-8.634843004842372,0.518248185,-0.751035675,0.445860675,-20.936719999999998,8.27092,-49.45766,68.0
1774823423.565631,0.0025904178619384766,2026-03-29T22:30:23.565,2026-03-29T18:30:23.565,-22771.215,-42834.78,-77656.185,-48953.25,-9327.465,-16377.93,7395.48,-61023.104999999996,-8.982984732801045,-3.5218904439978895,-2.4792139085270977,0.19741418202156208,0.3296052246218035,0.7664168587207957,0.7065377362956275,-9.654274764132365,0.518248185,-0.751035675,0.445860675,-20.936719999999998,8.27092,-49.45766,68.0
1774823423.565817,0.0001862049102783203,2026-03-29T22:30:23.565,2026-03-29T18:30:23.565,-22802.985,-42822.72,-77624.50499999999,-48929.4,-9301.725,-16350.3,7416.179999999999,-61066.215,-4.1315107692242234,-3.647647124519586,-2.9124207619358997,-1.3797039545330414,-0.8725689906528146,-0.8946810241360512,-2.703796492506493,-6.250746421810049,0.518248185,-0.751035675,0.445860675,-20.936719999999998,8.27092,-49.45766,68.0
1774823423.5658371,2.002716064453125e-05,2026-03-29T22:30:23.565,2026-03-29T18:30:23.565,-22753.35,-42817.455,-77638.995,-48953.52,-9330.93,-16380.18,7401.735,-61000.244999999995,2.66666045093131,-2.045457337159839,-1.8279499727029718,-2.110522472527549,-1.4896574589366767,-1.9441772083527122,-4.590649300358237,0.18350146735041778,0.518248185,-0.751035675,0.445860675,-20.936719999999998,8.27092,-49.45766,68.0
1774823423.565848,1.0967254638671875e-05,2026-03-29T22:30:23.565,2026-03-29T18:30:23.565,-22723.379999999997,-42822.854999999996,-77661.72,-48978.314999999995,-9354.734999999999,-16404.614999999998,7385.985,-60964.515,8.394913649131023,0.5510868535224044,0.2160934934809681,-1.790065454714198,-1.3531906938357459,-2.014276988356587,-4.153580523362496,6.782210441683122,0.518248185,-0.751035675,0.445860675,-20.936719999999998,8.27092,-49.45766,68.0
1774823423.5682232,0.0023751258850097656,2026-03-29T22:30:23.568,2026-03-29T18:30:23.568,-22728.915,-42823.845,-77651.415,-48960.72,-9343.08,-16400.88,7377.66,-60970.814999999995,10.4630697144058,2.914176371338035,2.1518449614978183,-0.7428607819710793,-0.6742908932585698,-1.2243670744879815,-1.7651312419093168,10.492636669715106,0.518248185,-0.751035675,0.445860675,-20.936719999999998,8.27092,-49.45766,68.0
1774823423.5682359,1.2636184692382812e-05,2026-03-29T22:30:23.568,2026-03-29T18:30:23.568,-22772.745,-42830.595,-77630.08499999999,-48932.189999999995,-9317.52,-16379.865,7385.985,-61015.274999999994,7.884550563498377,3.908617048582789,2.9587693338064223,0.41374517335659566,0.12825030622001335,-0.04904268536415972,1.2912150819775146,9.498370823614765,0.518248185,-0.751035675,0.445860675,-20.936719999999998,8.27092,-49.45766,68.0
1774823423.5745597,0.006323814392089844,2026-03-29T22:30:23.574,2026-03-29T18:30:23.574,-22797.855,-42831.45,-77633.81999999999,-48942.36,-9323.414999999999,-16382.97,7402.1849999999995,-61049.79,1.7469303207532065,3.0454567791247507,2.203924797113124,1.1241812084602438,0.6746969393956761,0.9550301678925187,3.506784594456147,4.109084085504132,0.521788215,-0.73278621,0.44128305,-33.05316,10.117379999999999,-48.221599999999995,68.0
1774823423.5745857,2.5987625122070312e-05,2026-03-29T22:30:23.574,2026-03-29T18:30:23.574,-22780.934999999998,-42826.095,-77646.915,-48960.09,-9334.71,-16391.79,7406.415,-61038.314999999995,-5.248664143705325,0.7285915295937707,0.27845093424615225,1.166930095168728,0.8045130362995374,1.4102889976214306,3.892075268547228,-3.3190131697647676,0.521788215,-0.73278621,0.44128305,-33.05316,10.117379999999999,-48.221599999999995,68.0
1774823423.5763636,0.0017778873443603516,2026-03-29T22:30:23.576,2026-03-29T18:30:23.576,-22756.23,-42824.07,-77659.47,-48979.08,-9353.654999999999,-16408.53,7397.639999999999,-61008.615,-9.983160012517306,-1.9326378732001595,-1.800616603820432,0.7079385079076479,0.6035136475181644,1.2453440585957025,2.411746032693368,-9.421967784076147,0.521788215,-0.73278621,0.44128305,-33.05316,10.117379999999999,-48.221599999999995,68.0
1774823423.5763776,1.4066696166992188e-05,2026-03-29T22:30:23.576,2026-03-29T18:30:23.576,-22757.76,-42830.595,-77658.93,-48975.93,-9353.295,-16405.2,7377.21,-61006.994999999995,-10.317466998243649,-3.6585591085956652,-2.9249454377309045,0.13242854065897866,0.28881436665666066,0.6540624030010981,-0.07801483124083426,-11.363426688516158,0.521788215,-0.73278621,0.44128305,-33.05316,10.117379999999999,-48.221599999999995,68.0
1774823423.5805554,0.00417780876159668,2026-03-29T22:30:23.580,2026-03-29T18:30:23.580,-22756.59,-42829.155,-77647.905,-48959.549999999996,-9333.945,-16380.765,7376.804999999999,-61007.04,-6.062586436268226,-3.621843996015607,-2.4861194914380516,-0.22209827767464435,0.04330617963475132,-0.05589098502465274,-2.318107731469464,-8.159813524116199,0.521788215,-0.73278621,0.44128305,-33.05316,10.117379999999999,-48.221599999999995,68.0
1774823423.580572,1.6450881958007812e-05,2026-03-29T22:30:23.580,2026-03-29T18:30:23.580,-22758.434999999998,-42826.229999999996,-77643.62999999999,-48950.415,-9322.289999999999,-16371.72,7393.365,-61013.61,0.9198631621305908,-1.8512187891720104,-0.7079821904558036,-0.2622794256279597,-0.08962248190307595,-0.6226407566011956,-3.2854566416376,-1.1728994197400542,0.521788215,-0.73278621,0.44128305,-33.05316,10.117379999999999,-48.221599999999995,68.0
1774823423.5843792,0.0038073062896728516,2026-03-29T22:30:23.584,2026-03-29T18:30:23.584,-22734.09,-42810.705,-77641.56,-48952.935,-9330.3,-16386.255,7376.58,-60996.329999999994,7.53804838815779,0.7841299992496615,1.462697689447608,-0.15092520879654392,-0.1905475745504724,-0.9147093453113742,-2.6565889736812425,6.474492203871367,0.521788215,-0.73278621,0.44128305,-33.05316,10.117379999999999,-48.221599999999995,68.0
1774823423.5844033,2.4080276489257812e-05,2026-03-29T22:30:23.584,2026-03-29T18:30:23.584,-22712.219999999998,-42819.615,-77670.62999999999,-48982.905,-9356.445,-16404.57,7357.23,-60983.685,10.846740591735667,3.0026482418152454,2.856331617163639,-0.14218165742400474,-0.3521925774786521,-0.9204995257332435,-0.8870287056882572,11.305683023033128,0.521788215,-0.73278621,0.44128305,-33.05316,10.117379999999999,-48.221599999999995,68.0
1774823423.596331,0.011927604675292969,2026-03-29T22:30:23.596,2026-03-29T18:30:23.596,-22750.065,-42838.515,-77666.48999999999,-48977.369999999995,-9346.185,-16381.935,7392.15,-60999.93,9.363633693718358,3.7392802412215462,2.70906365322902,-0.36008867467099814,-0.561490039159602,-0.6853081103931851,1.091777102362154,11.080348910671946,0.521788215,-0.73278621,0.44128305,-33.05316,10.117379999999999,-48.221599999999995,68.0
1774823423.596348,1.71661376953125e-05,2026-03-29T22:30:23.596,2026-03-29T18:30:23.596,-22791.87,-42827.04,-77640.075,-48951.765,-9324.63,-16365.42,7424.73,-61046.46,3.734117054316825,2.663651810579025,1.0827525133960152,-0.6763578114323845,-0.6700428971742903,-0.2619939750036204,2.3671308030904155,5.835808503591758,0.521788215,-0.73278621,0.44128305,-33.05316,10.117379999999999,-48.221599999999995,68.0
1774823423.5963624,1.430511474609375e-05,2026-03-29T22:30:23.596,2026-03-29T18:30:23.596,-22762.305,-42796.26,-77607.36,-48911.174999999996,-9287.01,-16338.015,7413.255,-61028.82,-3.553973219274705,0.3320412138018397,-1.1550038390811108,-0.7791581157126795,-0.48701641617680297,0.2854208732004029,2.467059081259733,-2.105542223732309,0.52343616,-0.718931265,0.43688853,-44.54394,11.33818,-46.817679999999996,68.0
1774823423.5963693,6.9141387939453125e-06,2026-03-29T22:30:23.596,2026-03-29T18:30:23.596,-22752.045,-42798.06,-77606.235,-48903.884999999995,-9276.57,-16330.724999999999,7390.485,-61020.99,-9.277384034398219,-2.0987955179759994,-2.7889293524439567,-0.3989489259336971,0.05933729221241603,0.8403847783635239,1.5136453187994219,-9.174432875563268,0.52343616,-0.718931265,0.43688853,-44.54394,11.33818,-46.817679999999996,68.0
1774823423.5963776,8.344650268554688e-06,2026-03-29T22:30:23.596,2026-03-29T18:30:23.596,-22748.175,-42816.6,-77636.79,-48937.905,-9306.539999999999,-16358.22,7373.429999999999,-61012.125,-10.910016343482246,-3.449179386668086,-2.912578255029753,0.453084597890313,0.8037502881244163,1.2110600306193025,0.07170244334129823,-12.169459061320048,0.52343616,-0.718931265,0.43688853,-44.54394,11.33818,-46.817679999999996,68.0
1774823423.5963845,6.9141387939453125e-06,2026-03-29T22:30:23.596,2026-03-29T18:30:23.596,-22762.62,-42846.255,-77671.62,-48971.61,-9337.904999999999,-16383.869999999999,7390.9349999999995,-61008.659999999996,-7.740974858471407,-3.095102468343096,-1.4302093979149895,1.402635467780796,1.369404745423744,1.178520933945451,-1.1851061064255772,-9.712855806265658,0.52343616,-0.718931265,0.43688853,-44.54394,11.33818,-46.817679999999996,68.0
1774823423.6011777,0.0047931671142578125,2026-03-29T22:30:23.601,2026-03-29T18:30:23.601,-22778.01,-42848.64,-77673.465,-48977.729999999996,-9346.41,-16394.579999999998,7430.174999999999,-61017.795,-1.1817548905300594,-1.2608997157306703,0.8733251921661027,1.8707765698428995,1.3540708167878608,0.617607584409923,-1.7951452809224107,-2.8827527130097126,0.52343616,-0.718931265,0.43688853,-44.54394,11.33818,-46.817679999999996,68.0
1774823423.601302,0.00012421607971191406,2026-03-29T22:30:23.601,2026-03-29T18:30:23.601,-22770.765,-42824.52,-77644.395,-48953.475,-9328.68,-16385.85,7431.4349999999995,-61023.149999999994,5.869035292036296,1.1136580826031073,2.7432952852419965,1.4101221057179623,0.587333955792167,-0.37308061200575143,-1.660952838309858,5.267268070632715,0.52343616,-0.718931265,0.43688853,-44.54394,11.33818,-46.817679999999996,68.0
1774823423.6047635,0.003461599349975586,2026-03-29T22:30:23.604,2026-03-29T18:30:23.604,-22756.59,-42813.314999999995,-77630.985,-48934.89,-9307.89,-16362.494999999999,7422.705,-61016.13,10.314485581394992,2.8562771042990405,3.13372900998084,0.029912585153188592,-0.6957290277211341,-1.428792994512053,-0.9936786881182226,11.08348121114978,0.52343616,-0.718931265,0.43688853,-44.54394,11.33818,-46.817679999999996,68.0
1774823423.6047857,2.2172927856445312e-05,2026-03-29T22:30:23.604,2026-03-29T18:30:23.604,-22748.715,-42805.89,-77616.315,-48916.979999999996,-9288.945,-16340.849999999999,7425.8099999999995,-61008.21,10.225029997959693,3.146042272187037,1.7890422336044909,-1.700883204172716,-1.894910504435801,-2.030674126483987,-0.12957976146822764,11.958010617453882,0.52343616,-0.718931265,0.43688853,-44.54394,11.33818,-46.817679999999996,68.0
1774823423.608776,0.0039904117584228516,2026-03-29T22:30:23.608,2026-03-29T18:30:23.608,-22747.725,-42815.43,-77630.67,-48928.14,-9299.43,-16350.615,7422.57,-61002.945,5.676175520757731,1.9047168430143295,-0.5932175943126463,-2.8769030033625014,-2.3189110154685846,-1.7532381439358389,0.6486413393869999,7.500456022544453,0.52343616,-0.718931265,0.43688853,-44.54394,11.33818,-46.817679999999996,68.0
1774823423.608792,1.5974044799804688e-05,2026-03-29T22:30:23.608,2026-03-29T18:30:23.608,-22767.66,-42838.11,-77662.305,-48956.354999999996,-9325.44,-16377.074999999999,7417.304999999999,-61020.314999999995,-1.3055254507405922,-0.1936919687118365,-2.719896917174875,-2.7257098375348314,-1.5715498534470662,-0.5326810949396174,1.1875268537329389,-0.2920156194229979,0.52343616,-0.718931265,0.43688853,-44.54394,11.33818,-46.817679999999996,68.0
1774823423.6127007,0.003908634185791016,2026-03-29T22:30:23.612,2026-03-29T18:30:23.612,-22770.765,-42850.53,-77688.58499999999,-48989.115,-9355.77,-16404.165,7407.8099999999995,-61024.049999999996,-7.6531025934440375,-2.0869314599768387,-3.398852948323854,-1.081819138833865,0.1607308612035005,1.202849443767549,1.426971211221341,-7.938020173199978,0.5261217,-0.710508435,0.43621714500000003,-61.314679999999996,12.90996,-44.19296,68.0
1774823423.6127267,2.5987625122070312e-05,2026-03-29T22:30:23.612,2026-03-29T18:30:23.612,-22765.454999999998,-42851.97,-77693.04,-48998.384999999995,-9362.115,-16404.795,7408.71,-61012.71,-10.61374480220893,-2.8662734540751544,-2.2017057681641723,1.4136169164498482,2.1072181885530883,2.653837379895206,1.3247705302394435,-12.036229189967614,0.5261217,-0.710508435,0.43621714500000003,-61.314679999999996,12.90996,-44.19296,68.0
1774823423.6164117,0.00368499755859375,2026-03-29T22:30:23.616,2026-03-29T18:30:23.616,-22762.53,-42845.04,-77679.58499999999,-48984.795,-9351.0,-16397.415,7406.37,-61010.64,-8.945682898963423,-2.217634548651468,0.2733300943666157,3.544522566131719,3.2458960947507123,3.008077337928605,0.8321313751843655,-10.783772447012794,0.5261217,-0.710508435,0.43621714500000003,-61.314679999999996,12.90996,-44.19296,68.0
1774823423.6164377,2.5987625122070312e-05,2026-03-29T22:30:23.616,2026-03-29T18:30:23.616,-22779.855,-42839.415,-77658.705,-48960.72,-9328.5,-16379.279999999999,7411.094999999999,-61034.579999999994,-3.435492928392884,-0.5451364912716914,2.696528439999651,4.111271550203634,2.8327754302303005,1.8814359817297779,-0.042467398559362116,-4.7687304687926435,0.5261217,-0.710508435,0.43621714500000003,-61.314679999999996,12.90996,-44.19296,68.0
1774823423.6208324,0.0043947696685791016,2026-03-29T22:30:23.620,2026-03-29T18:30:23.620,-22765.5,-42831.405,-77652.94499999999,-48956.174999999996,-9325.395,-16378.605,7411.1849999999995,-61021.079999999994,3.4780270259517834,1.2701448922410368,3.716057792300618,2.5948921497099753,0.8563563802981727,-0.39342855190842485,-1.1288890011016925,3.311156352268051,0.5261217,-0.710508435,0.43621714500000003,-61.314679999999996,12.90996,-44.19296,68.0
1774823423.6208587,2.6226043701171875e-05,2026-03-29T22:30:23.620,2026-03-29T18:30:23.620,-22758.075,-42831.945,-77649.48,-48951.494999999995,-9321.615,-16374.465,7411.995,-61013.88,8.791598289327233,2.336369763173104,2.7053661537185225,-0.4691773306912455,-1.8492463035417757,-2.8202175600239374,-2.0530043041476502,9.86691855465176,0.5261217,-0.710508435,0.43621714500000003,-61.314679999999996,12.90996,-44.19296,68.0
1774823423.6252313,0.004372596740722656,2026-03-29T22:30:23.625,2026-03-29T18:30:23.625,-22757.805,-42845.85,-77662.125,-48962.79,-9331.515,-16381.755,7408.035,-61005.195,10.24792708584557,2.19447900863044,0.13820871318310154,-3.6506449279773623,-3.9421720328678918,-4.1630784436974055,-2.3387022084552216,12.019960452265217,0.5261217,-0.710508435,0.43621714500000003,-61.314679999999996,12.90996,-44.19296,68.0
1774823423.6252468,1.5497207641601562e-05,2026-03-29T22:30:23.625,2026-03-29T18:30:23.625,-22753.575,-42846.84,-77670.98999999999,-48974.49,-9347.175,-16398.945,7395.929999999999,-60994.305,7.294306007971788,1.0156944870221685,-2.628920145894543,-5.2905143896013715,-4.233279109207758,-3.5679315854224174,-1.6455587125604054,8.868940543522957,0.5261217,-0.710508435,0.43621714500000003,-61.314679999999996,12.90996,-44.19296,68.0
1774823423.6317697,0.0065228939056396484,2026-03-29T22:30:23.631,2026-03-29T18:30:23.631,-22738.004999999997,-42823.17,-77670.09,-48981.465,-9359.369999999999,-16414.47,7386.255,-60994.845,1.2823147279669804,-0.5323092063582214,-4.069572646887442,-4.36455745204763,-2.3461878730846295,-1.0716922235359194,-0.02589333270976807,1.8631921056807075,0.5261217,-0.710508435,0.43621714500000003,-61.314679999999996,12.90996,-44.19296,68.0
1774823423.6317935,2.384185791015625e-05,2026-03-29T22:30:23.631,2026-03-29T18:30:23.631,-22740.84,-42828.255,-77678.81999999999,-48983.715,-9357.345,-16411.545,7391.969999999999,-61007.13,-5.157996778060812,-1.6605599673150282,-3.3224570376073568,-1.0952269465438194,0.9836586598155949,2.2927896992943344,1.9664925033003908,-5.870027814363136,0.5261217,-0.710508435,0.43621714500000003,-61.314679999999996,12.90996,-44.19296,68.0
1774823423.6318128,1.9311904907226562e-05,2026-03-29T22:30:23.631,2026-03-29T18:30:23.631,-22747.454999999998,-42845.805,-77692.36499999999,-48988.395,-9362.25,-16419.105,7388.054999999999,-61002.765,-9.276616121891092,-1.8660359764657317,-0.6948805443717192,3.0432812868320025,4.1742583454996876,4.907543230985898,3.4330309185556365,-10.929719051669167,0.529478625,-0.71179017,0.42748914,-70.45541999999999,12.681059999999999,-40.40848,68.0
