unix_time_s,dt_s,UTC,LOCAL,EMG1_Raw,EMG2_Raw,EMG3_Raw,EMG4_Raw,EMG5_Raw,EMG6_Raw,EMG7_Raw,EMG8_Raw,EMG1_Filtered,EMG2_Filtered,EMG3_Filtered,EMG4_Filtered,EMG5_Filtered,EMG6_Filtered,EMG7_Filtered,EMG8_Filtered,Accel1_Raw,Accel2_Raw,Accel3_Raw,Gyro1_Raw,Gyro2_Raw,Gyro3_Raw,Battery
1774822107.5183582,,2026-03-29T22:08:27.518,2026-03-29T18:08:27.518,-32360.67,-49117.455,-84905.055,-50178.195,-14710.005,-19847.7,5034.6449999999995,-61969.095,1.1666693162798165,-0.11720166921371711,-0.7453537948227204,-1.1645524357828503,-1.1035764257403728,-1.0334453440546894,-1.3930700480588754,0.9012062800523041,-0.169372125,-0.82775667,0.55114605,8.469299999999999,-2.73154,-5.1273599999999995,72.0
1774822107.518373,1.4781951904296875e-05,2026-03-29T22:08:27.518,2026-03-29T18:08:27.518,-32346.36,-49116.78,-84908.655,-50205.33,-14733.585,-19866.915,5032.26,-61942.005,0.7784502205037791,-0.3051779094954201,2.0423275452785465,-0.8392416476687133,0.3766886620216191,-0.9285889484658125,-1.7350628156437276,1.918435416158218,-0.169372125,-0.82775667,0.55114605,8.469299999999999,-2.73154,-5.1273599999999995,72.0
1774822107.522974,0.004601001739501953,2026-03-29T22:08:27.522,2026-03-29T18:08:27.522,-32351.265,-49131.54,-84920.715,-50199.255,-14726.475,-19867.68,5023.755,-61942.905,0.06402170127360657,-0.23073934213142636,4.069712616363503,-0.0196593914021725,1.7918173691299801,-0.15442615849595084,-1.2040414286867596,2.0792042440532947,-0.169372125,-0.82775667,0.55114605,8.469299999999999,-2.73154,-5.1273599999999995,72.0
1774822107.5229907,1.6689300537109375e-05,2026-03-29T22:08:27.522,2026-03-29T18:08:27.522,-32360.625,-49148.505,-84928.995,-50167.08,-14694.255,-19837.8,5014.71,-61946.235,-0.7403587937051461,0.1694176333396634,4.562356600293508,1.0289764098103937,2.503466677764233,0.8640540712522105,0.020467449921489113,1.1650341682358138,-0.169372125,-0.82775667,0.55114605,8.469299999999999,-2.73154,-5.1273599999999995,72.0
1774822107.5271533,0.00416254997253418,2026-03-29T22:08:27.527,2026-03-29T18:08:27.527,-32356.664999999997,-49151.52,-84932.28,-50177.205,-14696.414999999999,-19824.39,5020.74,-61932.555,-1.3282864756301846,0.7087174555018287,3.3060369697581637,1.8465693842672244,2.149991273813671,1.503161241615895,1.377143401532711,-0.48834014357644057,-0.169372125,-0.82775667,0.55114605,8.469299999999999,-2.73154,-5.1273599999999995,72.0
1774822107.5271735,2.0265579223632812e-05,2026-03-29T22:08:27.527,2026-03-29T18:08:27.527,-32361.84,-49147.29,-84937.14,-50209.424999999996,-14720.984999999999,-19825.065,5032.17,-61939.079999999994,-1.4409919996950487,1.0370325773776439,0.737353600556879,1.9695111659060025,0.8258504017722824,1.3040372575792754,2.1831807918851,-2.1132448019726016,-0.169372125,-0.82775667,0.55114605,8.469299999999999,-2.73154,-5.1273599999999995,72.0
1774822107.5306916,0.0035181045532226562,2026-03-29T22:08:27.530,2026-03-29T18:08:27.530,-32372.28,-49142.115,-84928.5,-50200.74,-14718.06,-19817.91,5036.13,-61970.445,-0.985728666111247,0.848697729399616,-2.1964571138106694,1.1735413718620087,-0.9360598668574354,0.26553448612836,1.9769895071899812,-2.8739050240486432,-0.169372125,-0.82775667,0.55114605,8.469299999999999,-2.73154,-5.1273599999999995,72.0
1774822107.5307183,2.6702880859375e-05,2026-03-29T22:08:27.530,2026-03-29T18:08:27.530,-32371.965,-49131.81,-84914.86499999999,-50188.005,-14702.445,-19812.555,5039.55,-61977.465,-0.0980232485539713,0.09438963588361514,-4.370571682756834,-0.352260257475775,-2.380692678828625,-1.1099070635626307,0.771164207340274,-2.2955254193597887,-0.169372125,-0.82775667,0.55114605,8.469299999999999,-2.73154,-5.1273599999999995,72.0
1774822107.5345576,0.003839254379272461,2026-03-29T22:08:27.534,2026-03-29T18:08:27.534,-32350.815,-49132.935,-84923.19,-50193.945,-14707.305,-19833.434999999998,5029.695,-61946.82,0.8908438185894642,-0.9341044192483143,-4.9010626722945565,-2.0101388752561538,-2.856831272113168,-2.0612884868271206,-0.9194076593854877,-0.5379705392190217,-0.1733394,-0.821714205,0.5468736,9.20178,-2.53316,-3.6318799999999998,72.0
1774822107.5345783,2.0742416381835938e-05,2026-03-29T22:08:27.534,2026-03-29T18:08:27.534,-32331.78,-49134.555,-84927.42,-50178.915,-14699.744999999999,-19833.165,5030.01,-61931.204999999994,1.5785092464855741,-1.71404430850491,-3.500496672240797,-3.013334545413476,-2.1105991851028567,-1.984466390478169,-2.3013236306535974,1.6369900401270796,-0.1733394,-0.821714205,0.5468736,9.20178,-2.53316,-3.6318799999999998,72.0
1774822107.5389736,0.004395246505737305,2026-03-29T22:08:27.538,2026-03-29T18:08:27.538,-32331.69,-49125.915,-84915.45,-50188.68,-14712.705,-19842.39,5030.595,-61930.17,1.6604015266142105,-1.7566728992436185,-0.6296285193780837,-2.7488420431327443,-0.41390169463189186,-0.7927758889761147,-2.678886588689853,3.2050600119092585,-0.1733394,-0.821714205,0.5468736,9.20178,-2.53316,-3.6318799999999998,72.0
1774822107.5389895,1.5974044799804688e-05,2026-03-29T22:08:27.538,2026-03-29T18:08:27.538,-32390.28,-49135.14,-84899.25,-50170.77,-14696.595,-19825.38,5041.08,-61988.49,1.0687728347761578,-0.8926711918492458,2.6336967355238605,-1.1208795848897168,1.535030531088583,0.9853032259554272,-1.8022277645189613,3.369233550200604,-0.1733394,-0.821714205,0.5468736,9.20178,-2.53316,-3.6318799999999998,72.0
1774822107.5467887,0.0077991485595703125,2026-03-29T22:08:27.546,2026-03-29T18:08:27.546,-32382.765,-49133.384999999995,-84912.3,-50166.494999999995,-14695.244999999999,-19828.215,5039.19,-61985.25,0.01603359682165936,0.582072501003735,4.984451136391608,1.3075457999477058,2.9020055132389104,2.4447040080993463,-0.013484414288946048,1.9619880260410232,-0.1733394,-0.821714205,0.5468736,9.20178,-2.53316,-3.6318799999999998,72.0
1774822107.5468073,1.8596649169921875e-05,2026-03-29T22:08:27.546,2026-03-29T18:08:27.546,-32359.14,-49131.54,-84921.56999999999,-50176.619999999995,-14701.59,-19832.219999999998,5035.5,-61960.814999999995,-1.0827773595469905,1.9987777303725631,5.406644449113487,3.4841936322699314,3.0755961368183353,2.7688518272126204,1.889210408719262,-0.4424341350744232,-0.1733394,-0.821714205,0.5468736,9.20178,-2.53316,-3.6318799999999998,72.0
1774822107.5468233,1.5974044799804688e-05,2026-03-29T22:08:27.546,2026-03-29T18:08:27.546,-32354.055,-49133.25,-84928.23,-50192.955,-14711.715,-19841.13,5030.82,-61950.6,-1.7788713378750756,2.62275839549545,3.6147355261074106,4.313745428100958,1.9388667795727763,1.679961785761592,3.014132976598451,-2.770474492213573,-0.1733394,-0.821714205,0.5468736,9.20178,-2.53316,-3.6318799999999998,72.0
1774822107.5468297,6.4373016357421875e-06,2026-03-29T22:08:27.546,2026-03-29T18:08:27.546,-32361.434999999998,-49146.119999999995,-84945.15,-50198.354999999996,-14713.289999999999,-19845.18,5024.835,-61955.369999999995,-1.7778814190339516,2.032261629258464,0.22717804263428676,3.19683004752623,-0.06611527883381746,-0.3719957247984385,2.7969136228831593,-3.9392675788874287,-0.1733394,-0.821714205,0.5468736,9.20178,-2.53316,-3.6318799999999998,72.0
1774822107.5555918,0.008762121200561523,2026-03-29T22:08:27.555,2026-03-29T18:08:27.555,-32358.87,-49136.13,-84923.235,-50168.52,-14691.33,-19827.09,5024.295,-61955.595,-1.0654402264630094,0.3743508246900022,-3.4277270617009092,0.4014861529379178,-2.1129954082039424,-2.3988307893543515,1.2795513020927842,-3.365099845266032,-0.1733394,-0.821714205,0.5468736,9.20178,-2.53316,-3.6318799999999998,72.0
1774822107.555612,2.0265579223632812e-05,2026-03-29T22:08:27.555,2026-03-29T18:08:27.555,-32343.93,-49122.405,-84901.41,-50150.79,-14686.965,-19821.69,5023.485,-61938.54,0.08419065713803002,-1.6488533269337249,-5.824623615003338,-2.946294309204675,-3.33414789603241,-3.360569472824061,-0.8891277881426229,-1.249128138146972,-0.1733394,-0.821714205,0.5468736,9.20178,-2.53316,-3.6318799999999998,72.0
1774822107.5556386,2.6464462280273438e-05,2026-03-29T22:08:27.555,2026-03-29T18:08:27.555,-32348.52,-49157.1,-84951.22499999999,-50174.909999999996,-14703.975,-19837.395,5020.425,-61931.655,1.2192275184585757,-3.0808268892902033,-5.878930142505964,-5.302066029365619,-3.188061652086016,-2.7043601804179396,-2.737831531020389,1.497268390152272,-0.17669632500000002,-0.816587265,0.54296736,7.73682,-3.41824,-2.86888,72.0
1774822107.5557096,7.104873657226562e-05,2026-03-29T22:08:27.555,2026-03-29T18:08:27.555,-32368.14,-49174.515,-84961.44,-50199.84,-14711.265,-19835.73,5033.025,-61937.729999999996,1.892658194344856,-3.1676320177853126,-3.4422606704906964,-5.409300062211346,-1.6954878294257025,-0.6736978480582864,-3.413606098732793,3.6561981415317084,-0.17669632500000002,-0.816587265,0.54296736,7.73682,-3.41824,-2.86888,72.0
1774822107.5589228,0.003213167190551758,2026-03-29T22:08:27.558,2026-03-29T18:08:27.558,-32371.649999999998,-49131.314999999995,-84910.275,-50181.705,-14692.41,-19821.329999999998,5035.995,-61963.335,1.8390636126019155,-1.7505574052378738,0.5732414727543823,-2.9525822997929394,0.5568820698260146,1.7826902653616052,-2.5759872261078436,4.251330694242093,-0.17669632500000002,-0.816587265,0.54296736,7.73682,-3.41824,-2.86888,72.0
1774822107.5589445,2.1696090698242188e-05,2026-03-29T22:08:27.558,2026-03-29T18:08:27.558,-32325.614999999998,-49091.715,-84884.08499999999,-50182.155,-14703.705,-19835.46,5020.605,-61959.06,1.0753087929444498,0.6086675041273772,4.524777100464822,1.175833739253776,2.64946165050686,3.467775360232507,-0.5618470572353352,2.9897327046022766,-0.17669632500000002,-0.816587265,0.54296736,7.73682,-3.41824,-2.86888,72.0
1774822107.562708,0.003763437271118164,2026-03-29T22:08:27.562,2026-03-29T18:08:27.562,-32363.864999999998,-49127.085,-84887.28,-50188.095,-14714.73,-19838.565,5025.195,-61960.32,-0.1107794390561231,2.8509451430284276,6.710083489221716,5.1750210468576086,3.705223048693953,3.532530362223171,1.7562763306537612,0.3974898276400634,-0.17669632500000002,-0.816587265,0.54296736,7.73682,-3.41824,-2.86888,72.0
1774822107.5627213,1.33514404296875e-05,2026-03-29T22:08:27.562,2026-03-29T18:08:27.562,-32373.675,-49136.49,-84912.3,-50186.384999999995,-14718.375,-19844.325,5029.155,-61956.27,-1.2734987752629663,3.902108002500705,6.106016097257804,7.115468610911065,3.253970538355135,1.9083086912098317,3.355088935422434,-2.409798621685136,-0.17669632500000002,-0.816587265,0.54296736,7.73682,-3.41824,-2.86888,72.0
1774822107.5668445,0.004123210906982422,2026-03-29T22:08:27.566,2026-03-29T18:08:27.566,-32353.065,-49133.88,-84934.98,-50196.645,-14733.9,-19861.785,5030.28,-61945.829999999994,-1.9764515176316875,3.191416630848563,2.8513170239258936,5.865601847897884,1.4357166436371998,-0.6476626679599903,3.515203560504693,-4.215966916147978,-0.17669632500000002,-0.816587265,0.54296736,7.73682,-3.41824,-2.86888,72.0
1774822107.5668578,1.33514404296875e-05,2026-03-29T22:08:27.566,2026-03-29T18:08:27.566,-32332.905,-49124.655,-84927.15,-50183.369999999995,-14730.48,-19878.84,5018.3099999999995,-61938.72,-1.9508073602059133,0.9540762621086754,-1.756008097344888,1.721524891171757,-1.0419071605003185,-2.919789541725831,2.1419905836761917,-4.233907453904944,-0.17669632500000002,-0.816587265,0.54296736,7.73682,-3.41824,-2.86888,72.0
1774822107.596869,0.03001117706298828,2026-03-29T22:08:27.596,2026-03-29T18:08:27.596,-32358.69,-49150.35,-84946.095,-50189.174999999996,-14725.755,-19875.42,5017.679999999999,-61947.54,-1.1904642853996201,-1.8399836553478952,-5.772605219422963,-3.6004141488929973,-3.1785252404415307,-3.8297446767085286,-0.18905281527668627,-2.4441362128078485,-0.17669632500000002,-0.816587265,0.54296736,7.73682,-3.41824,-2.86888,72.0
1774822107.5969045,3.552436828613281e-05,2026-03-29T22:08:27.596,2026-03-29T18:08:27.596,-32364.719999999998,-49145.445,-84937.31999999999,-50217.975,-14751.765,-19889.684999999998,5004.135,-61958.744999999995,0.0446235042576929,-3.9130579493765123,-7.433192158664839,-7.665309556877175,-4.081197264846862,-2.960123891128811,-2.4803794936525554,0.40061352258433136,-0.17669632500000002,-0.816587265,0.54296736,7.73682,-3.41824,-2.86888,72.0
1774822107.5969388,3.4332275390625e-05,2026-03-29T22:08:27.596,2026-03-29T18:08:27.596,-32341.05,-49131.63,-84932.81999999999,-50212.755,-14750.369999999999,-19881.225,4997.61,-61943.985,1.315023776873976,-4.27107433185959,-5.932526259111863,-8.434220196162082,-3.3316293638661354,-0.7457385285018046,-3.7431011535316294,3.100213921011207,-0.17443803,-0.819639015,0.548155335,7.6452599999999995,-2.35004,-1.64808,72.0
1774822107.5969498,1.0967254638671875e-05,2026-03-29T22:08:27.596,2026-03-29T18:08:27.596,-32319.989999999998,-49142.295,-84949.29,-50189.4,-14728.14,-19858.274999999998,4997.429999999999,-61907.895,2.150036570757086,-2.6823243764822857,-1.8165536052173796,-5.28123357959077,-1.1725922158876763,1.7556163523048138,-3.4223286791197833,4.516873328150844,-0.17443803,-0.819639015,0.548155335,7.6452599999999995,-2.35004,-1.64808,72.0
1774822107.5969553,5.4836273193359375e-06,2026-03-29T22:08:27.596,2026-03-29T18:08:27.596,-32343.48,-49145.085,-84924.495,-50149.485,-14684.85,-19815.165,5026.545,-61928.46,2.212247232513667,0.18800629800545365,3.2074678607477263,0.5924384349993136,1.5660486444003319,3.387690379621777,-1.635120854244488,4.051818148801978,-0.17443803,-0.819639015,0.548155335,7.6452599999999995,-2.35004,-1.64808,72.0
1774822107.5969589,3.5762786865234375e-06,2026-03-29T22:08:27.596,2026-03-29T18:08:27.596,-32381.324999999997,-49152.284999999996,-84912.12,-50137.92,-14667.84,-19805.219999999998,5039.91,-61973.909999999996,1.4271006796643337,3.0609859297346547,6.980359384029294,6.597321748889683,3.7808650883626687,3.4467946676194656,0.877661090436524,1.8913209010280967,-0.17443803,-0.819639015,0.548155335,7.6452599999999995,-2.35004,-1.64808,72.0
1774822107.5969636,4.76837158203125e-06,2026-03-29T22:08:27.596,2026-03-29T18:08:27.596,-32365.71,-49129.29,-84893.48999999999,-50150.655,-14692.365,-19833.03,5037.57,-61959.24,0.03202832799258364,4.621633956846686,7.824207890905219,9.898424291223565,4.532133653462803,1.9884270872419285,3.061998712796882,-1.074689251471857,-0.17443803,-0.819639015,0.548155335,7.6452599999999995,-2.35004,-1.64808,72.0
1774822107.5969672,3.5762786865234375e-06,2026-03-29T22:08:27.596,2026-03-29T18:08:27.596,-32361.21,-49123.395,-84896.01,-50151.689999999995,-14700.689999999999,-19852.965,5030.28,-61961.67,-1.4813950512110565,4.126400697617038,5.293383294039439,8.757327218627289,3.435550859246846,-0.24626838658550176,3.9915429767292347,-3.6220299466442234,-0.17443803,-0.819639015,0.548155335,7.6452599999999995,-2.35004,-1.64808,72.0
1774822107.596972,4.76837158203125e-06,2026-03-29T22:08:27.596,2026-03-29T18:08:27.596,-32385.465,-49131.765,-84904.875,-50136.975,-14676.93,-19833.21,5036.13,-61997.759999999995,-2.5272225681564833,1.7572232873418898,0.4051567296918046,3.4363474500330384,0.8489950045177336,-2.2233731877653917,3.2551434890745705,-4.695046798604803,-0.17443803,-0.819639015,0.548155335,7.6452599999999995,-2.35004,-1.64808,72.0
1774822107.5969753,3.337860107421875e-06,2026-03-29T22:08:27.596,2026-03-29T18:08:27.596,-32368.59,-49137.884999999995,-84922.515,-50157.945,-14687.595,-19830.195,5029.5599999999995,-61976.79,-2.643391201155707,-1.4462746192123,-4.767330437407235,-3.8016324632603733,-2.232516071356837,-3.113824688659208,1.1322611652655188,-3.838227643012428,-0.17443803,-0.819639015,0.548155335,7.6452599999999995,-2.35004,-1.64808,72.0
1774822107.59698,4.76837158203125e-06,2026-03-29T22:08:27.596,2026-03-29T18:08:27.596,-32341.949999999997,-49132.08,-84917.745,-50190.255,-14701.365,-19819.53,5034.96,-61942.454999999994,-1.6926390246444005,-4.050077906715515,-7.977354184765007,-9.653867439505278,-4.549339520399199,-2.6469245248161086,-1.5148347749192783,-1.3840482027445231,-0.17443803,-0.819639015,0.548155335,7.6452599999999995,-2.35004,-1.64808,72.0
1774822107.5969837,3.5762786865234375e-06,2026-03-29T22:08:27.596,2026-03-29T18:08:27.596,-32343.21,-49139.235,-84924.22499999999,-50205.555,-14705.865,-19817.235,5034.69,-61934.625,0.03935659232459394,-4.874536692086061,-7.784946373125249,-11.292368334874178,-5.083381430588615,-1.1653359142156001,-3.5889478335101477,1.6770814398566047,-0.17443803,-0.819639015,0.548155335,7.6452599999999995,-2.35004,-1.64808,72.0
1774822107.596988,4.291534423828125e-06,2026-03-29T22:08:27.596,2026-03-29T18:08:27.596,-32369.579999999998,-49149.225,-84927.465,-50188.814999999995,-14703.75,-19820.835,5027.76,-61968.96,1.9085131718242114,-3.531880840302823,-4.205525477845751,-7.734258905046708,-3.4995301256677442,0.6087078050715224,-4.206942982345142,4.093256838819578,-0.1733394,-0.821470065,0.551939505,6.07348,-1.23606,0.57988,72.0
1774822107.596992,4.0531158447265625e-06,2026-03-29T22:08:27.596,2026-03-29T18:08:27.596,-32375.43,-49144.545,-84925.44,-50179.185,-14706.135,-19832.13,5027.3099999999995,-61972.11,3.1400744337207507,-0.6063190350951857,1.2661776334397397,-0.40167328554065235,-0.334233600408247,1.9443637104052847,-3.0697771609981883,4.857530034283869,-0.1733394,-0.821470065,0.551939505,6.07348,-1.23606,0.57988,72.0
1774822107.5969965,4.5299530029296875e-06,2026-03-29T22:08:27.596,2026-03-29T18:08:27.596,-32335.605,-49115.475,-84915.54,-50175.765,-14701.455,-19827.09,5039.91,-61945.064999999995,3.146458274163268,2.605673721022357,6.28059338633535,7.437952558084648,3.168305011042548,2.411584319922348,-0.6023486063134472,3.6232689404142606,-0.1733394,-0.821470065,0.551939505,6.07348,-1.23606,0.57988,72.0
1774822107.5970001,3.5762786865234375e-06,2026-03-29T22:08:27.597,2026-03-29T18:08:27.597,-32324.985,-49114.755,-84907.62,-50183.325,-14708.34,-19825.02,5038.155,-61923.104999999996,1.8070821182018355,4.6765036202895365,8.644765161495432,12.135953440298614,5.533026544099783,1.992835709050702,2.1998243637635166,0.8599719943019313,-0.1733394,-0.821470065,0.551939505,6.07348,-1.23606,0.57988,72.0
1774822107.6026194,0.0056192874908447266,2026-03-29T22:08:27.602,2026-03-29T18:08:27.602,-32329.125,-49124.115,-84920.12999999999,-50196.15,-14725.125,-19841.219999999998,5025.195,-61921.215,-0.42285743077822424,4.686356161923763,7.2841608578641655,11.37105383193434,5.668210698955116,0.9864733978948864,4.164794755926805,-2.319812660277395,-0.1733394,-0.821470065,0.551939505,6.07348,-1.23606,0.57988,72.0
1774822107.602634,1.4543533325195312e-05,2026-03-29T22:08:27.602,2026-03-29T18:08:27.602,-32355.225,-49134.465,-84928.86,-50174.009999999995,-14708.744999999999,-19835.415,5031.135,-61951.229999999996,-2.6494377551257955,2.632032931484846,2.7321010619796655,5.29728255548555,3.3653561372099814,-0.1980023238588507,4.42778054164913,-4.602198792819387,-0.1733394,-0.821470065,0.551939505,6.07348,-1.23606,0.57988,72.0
1774822107.6127243,0.010090351104736328,2026-03-29T22:08:27.612,2026-03-29T18:08:27.612,-32356.485,-49142.34,-84934.53,-50170.005,-14706.225,-19840.364999999998,5028.12,-61948.485,-3.8932737746161563,-0.5757524244874116,-3.07601948756673,-3.437483648024265,-0.5420395953741213,-1.217640682840138,2.808877434255941,-5.011088780779475,-0.1733394,-0.821470065,0.551939505,6.07348,-1.23606,0.57988,72.0
1774822107.6127486,2.4318695068359375e-05,2026-03-29T22:08:27.612,2026-03-29T18:08:27.612,-32364.989999999998,-49125.689999999995,-84895.65,-50161.994999999995,-14691.42,-19823.76,5034.6449999999995,-61968.555,-3.522707217848084,-3.521507896157969,-7.625499781117931,-10.85200086857876,-4.460983960996572,-1.8628919761561287,-0.07806447740848364,-3.3262070006699864,-0.1733394,-0.821470065,0.551939505,6.07348,-1.23606,0.57988,72.0
1774822107.6127665,1.7881393432617188e-05,2026-03-29T22:08:27.612,2026-03-29T18:08:27.612,-32364.315,-49119.795,-84892.95,-50182.02,-14699.744999999999,-19827.405,5036.94,-61973.64,-1.5744327808212042,-4.914024648280855,-8.912236793114749,-13.459675110996088,-6.678507567781683,-2.024264731518916,-3.04705420792874,-0.20099221636146236,-0.1733394,-0.821470065,0.551939505,6.07348,-1.23606,0.57988,72.0
1774822107.6127708,4.291534423828125e-06,2026-03-29T22:08:27.612,2026-03-29T18:08:27.612,-32361.164999999997,-49130.775,-84907.98,-50174.549999999996,-14695.064999999999,-19818.945,5038.605,-61966.755,1.2012876856394363,-4.153838423472257,-6.327155337147529,-9.918270209780905,-6.107272883523139,-1.639917190371216,-4.818951818662876,3.082663671341864,-0.1733394,-0.821470065,0.551939505,6.07348,-1.23606,0.57988,72.0
1774822107.6154397,0.0026688575744628906,2026-03-29T22:08:27.615,2026-03-29T18:08:27.615,-32356.98,-49144.77,-84925.34999999999,-50156.369999999995,-14689.619999999999,-19817.37,5040.405,-61957.575,3.6211871681179013,-1.5894010339271063,-0.9446922958605688,-1.7156328159333463,-2.8147155269874906,-0.7047006415736068,-4.569630404555001,5.136052874017108,-0.17260698,-0.82336215,0.55517436,3.17408,1.23606,1.4802199999999999,72.0
1774822107.6154535,1.3828277587890625e-05,2026-03-29T22:08:27.615,2026-03-29T18:08:27.615,-32345.01,-49128.57,-84915.855,-50166.09,-14694.255,-19820.34,5037.66,-61947.674999999996,4.575617776993458,1.6460810659522465,4.920815657394034,7.4573294122746505,1.9201488019311612,0.6474413288735499,-2.314647117051234,5.052330193126614,-0.17260698,-0.82336215,0.55517436,3.17408,1.23606,1.4802199999999999,72.0
1774822107.618831,0.0033774375915527344,2026-03-29T22:08:27.618,2026-03-29T18:08:27.618,-32329.53,-49112.505,-84900.87,-50178.645,-14712.795,-19844.145,5038.5599999999995,-61934.895,3.5435972397835864,4.138946113477064,8.708884938737278,13.381254723306647,6.088380288896787,2.061060794374808,1.049475529366435,2.8124149187476046,-0.17260698,-0.82336215,0.55517436,3.17408,1.23606,1.4802199999999999,72.0
1774822107.618855,2.4080276489257812e-05,2026-03-29T22:08:27.618,2026-03-29T18:08:27.618,-32336.82,-49144.814999999995,-84932.55,-50190.165,-14726.205,-19866.239999999998,5032.53,-61933.905,0.8744078511357385,4.814467863220129,8.730877564265962,13.263970285154635,7.798740296066286,2.9858401294114096,4.090329277571133,-0.6762085632574601,-0.17260698,-0.82336215,0.55517436,3.17408,1.23606,1.4802199999999999,72.0
1774822107.6226623,0.0038073062896728516,2026-03-29T22:08:27.622,2026-03-29T18:08:27.622,-32351.535,-49156.92,-84935.655,-50192.729999999996,-14727.33,-19863.495,5030.01,-61936.515,-2.315480514490747,3.399510891734756,4.924443607873157,7.06340620019885,6.136584423308324,2.8712177523314977,5.445318693772787,-3.94160831851595,-0.17260698,-0.82336215,0.55517436,3.17408,1.23606,1.4802199999999999,72.0
1774822107.6226828,2.0503997802734375e-05,2026-03-29T22:08:27.622,2026-03-29T18:08:27.622,-32354.37,-49137.975,-84922.245,-50182.83,-14713.74,-19847.88,5034.014999999999,-61949.34,-4.609861692017012,0.530161380511257,-1.0928535105271933,-2.4526161057210083,1.6437752384517361,1.473297598245369,4.434830569531258,-5.56956766672314,-0.17260698,-0.82336215,0.55517436,3.17408,1.23606,1.4802199999999999,72.0
1774822107.626969,0.004286289215087891,2026-03-29T22:08:27.626,2026-03-29T18:08:27.626,-32328.899999999998,-49113.18,-84922.2,-50198.715,-14727.15,-19852.829999999998,5028.3,-61951.274999999994,-4.929052343379569,-2.536143490003521,-6.706878760167863,-10.954443609984303,-3.8288549214323817,-0.8900336339541883,1.4061677780740998,-4.822722528295179,-0.17260698,-0.82336215,0.55517436,3.17408,1.23606,1.4802199999999999,72.0
1774822107.626996,2.6941299438476562e-05,2026-03-29T22:08:27.626,2026-03-29T18:08:27.626,-32346.719999999998,-49123.799999999996,-84925.53,-50201.505,-14728.41,-19847.34,5027.76,-61944.93,-3.0457075782793064,-4.47274098079861,-9.440519343615183,-14.537500034653736,-7.87573883529739,-3.3230408018002318,-2.366982765361317,-1.9824883026115,-0.17260698,-0.82336215,0.55517436,3.17408,1.23606,1.4802199999999999,72.0
1774822107.6324306,0.005434513092041016,2026-03-29T22:08:27.632,2026-03-29T18:08:27.632,-32338.485,-49138.02,-84944.565,-50212.215,-14741.144999999999,-19864.62,5008.59,-61921.53,0.26968913269529987,-4.457477110537798,-8.047267200108093,-11.527775651765115,-8.594924166003699,-4.664747433268507,-5.213562726186369,1.748597753249087,-0.17260698,-0.82336215,0.55517436,3.17408,1.23606,1.4802199999999999,72.0
1774822107.6324437,1.3113021850585938e-05,2026-03-29T22:08:27.632,2026-03-29T18:08:27.632,-32329.485,-49148.28,-84953.745,-50196.689999999995,-14732.595,-19864.755,5001.615,-61907.445,3.561576406347782,-2.520594114582512,-3.082214836517065,-3.2648017420459445,-5.484738338616504,-4.038760030486953,-5.807138105915089,4.755766100914749,-0.17260698,-0.82336215,0.55517436,3.17408,1.23606,1.4802199999999999,72.0
1774822107.6345856,0.0021419525146484375,2026-03-29T22:08:27.634,2026-03-29T18:08:27.634,-32329.305,-49148.955,-84952.75499999999,-50204.34,-14747.175,-19887.165,4995.72,-61906.86,5.334957042953339,0.47936119090792473,3.3118031828938923,6.504798610414363,0.24527650637458817,-1.3820210486944051,-3.791014726687814,5.7173521011480455,-0.16564899,-0.821714205,0.556700235,3.4792799999999997,3.17408,0.65618,72.0
1774822107.6346033,1.7642974853515625e-05,2026-03-29T22:08:27.634,2026-03-29T18:08:27.634,-32366.07,-49118.04,-84896.145,-50170.59,-14709.105,-19847.79,5028.345,-61984.125,4.744573422614372,3.2358256968895396,8.32429255815729,13.34346118869037,6.130249267829843,2.3523568973981566,0.01115809743896328,4.1955519438373345,-0.16564899,-0.821714205,0.556700235,3.4792799999999997,3.17408,0.65618,72.0
1774822107.63988,0.005276679992675781,2026-03-29T22:08:27.639,2026-03-29T18:08:27.639,-32370.84,-49111.965,-84881.565,-50132.025,-14665.949999999999,-19801.485,5045.445,-61991.82,2.0052876263250927,4.562548391366543,9.71074347872285,14.153709296182551,9.509212919773308,5.498745580568339,3.9216634817782214,0.843839257436847,-0.16564899,-0.821714205,0.556700235,3.4792799999999997,3.17408,0.65618,72.0
1774822107.6398883,8.344650268554688e-06,2026-03-29T22:08:27.639,2026-03-29T18:08:27.639,-32375.07,-49132.395,-84916.305,-50125.455,-14651.775,-19785.915,5040.945,-61986.78,-1.6787835234366861,3.90356002108815,6.799471878291585,8.58661793188094,8.733303615141276,6.4180163670262615,6.14883613006438,-2.8709450175683893,-0.16564899,-0.821714205,0.556700235,3.4792799999999997,3.17408,0.65618,72.0
1774822107.6429036,0.003015279769897461,2026-03-29T22:08:27.642,2026-03-29T18:08:27.642,-32358.87,-49141.619999999995,-84939.84,-50167.259999999995,-14686.875,-19807.29,5047.29,-61951.365,-4.647724921652743,1.5663403590398586,0.8195884292304719,-0.8156295895439947,3.9720510421903343,4.346503513867295,5.61509794221855,-5.315292556356414,-0.16564899,-0.821714205,0.556700235,3.4792799999999997,3.17408,0.65618,72.0
1774822107.642922,1.8358230590820312e-05,2026-03-29T22:08:27.642,2026-03-29T18:08:27.642,-32371.155,-49142.79,-84927.87,-50182.83,-14697.539999999999,-19814.489999999998,5051.385,-61965.045,-5.5436891264378305,-1.41938596503454,-5.610675232780887,-9.796904587621208,-2.7773322981212085,-0.0829746054882507,2.4871134617129416,-5.417358976713077,-0.16564899,-0.821714205,0.556700235,3.4792799999999997,3.17408,0.65618,72.0
1774822107.651833,0.0089111328125,2026-03-29T22:08:27.651,2026-03-29T18:08:27.651,-32367.239999999998,-49152.869999999995,-84948.165,-50227.83,-14732.775,-19842.434999999998,5039.415,-61951.185,-3.942647914732074,-3.75335219291138,-9.625851479380035,-14.330694720365267,-8.522928052416383,-4.973139872990102,-1.8564754705005408,-3.1475619332983795,-0.16564899,-0.821714205,0.556700235,3.4792799999999997,3.17408,0.65618,72.0
1774822107.6518507,1.7642974853515625e-05,2026-03-29T22:08:27.651,2026-03-29T18:08:27.651,-32369.579999999998,-49142.025,-84931.605,-50226.884999999995,-14739.57,-19848.78,5034.33,-61968.329999999994,-0.5613294152734336,-4.430083667889207,-9.389599706115602,-12.433795085495117,-10.608544844780697,-7.96665611212818,-5.429447608816264,0.4690471811448993,-0.16564899,-0.821714205,0.556700235,3.4792799999999997,3.17408,0.65618,72.0
1774822107.6518776,2.6941299438476562e-05,2026-03-29T22:08:27.651,2026-03-29T18:08:27.651,-32358.96,-49129.604999999996,-84907.665,-50197.185,-14728.365,-19849.725,5031.45,-61964.369999999995,3.0642074797208245,-3.1730112459804665,-4.937560496583908,-5.0287406156118415,-7.948077249657689,-7.38683197253215,-6.551511360520022,3.816802392213458,-0.16564899,-0.821714205,0.556700235,3.4792799999999997,3.17408,0.65618,72.0
1774822107.6518865,8.821487426757812e-06,2026-03-29T22:08:27.651,2026-03-29T18:08:27.651,-32340.329999999998,-49127.445,-84900.95999999999,-50160.509999999995,-14704.38,-19836.18,5025.285,-61942.049999999996,5.283956817201629,-0.5498671864356579,1.8011654368956582,4.517173162139834,-1.5872696903242351,-3.1606169188382607,-4.6484805314517486,5.419398172396775,-0.16564899,-0.821714205,0.556700235,3.4792799999999997,3.17408,0.65618,72.0
1774822107.6549911,0.003104686737060547,2026-03-29T22:08:27.654,2026-03-29T18:08:27.654,-32326.92,-49113.27,-84868.73999999999,-50120.909999999996,-14673.465,-19813.5,5025.599999999999,-61925.354999999996,5.09595749944328,2.2799535266189612,7.832861995403137,11.940220901485898,5.695994264916184,2.9779740351514596,-0.5536341042897376,4.602365726519391,-0.16076619,-0.81725865,0.553038135,4.3491,3.6624,2.48738,72.0
1774822107.655012,2.0742416381835938e-05,2026-03-29T22:08:27.655,2026-03-29T18:08:27.655,-32344.065,-49116.24,-84870.09,-50121.494999999995,-14662.08,-19801.53,5037.974999999999,-61935.435,2.608073660968329,4.075567432341415,10.42567541498387,13.99508515124343,10.606285248743397,8.183241968432482,3.850568494047054,1.78552657477033,-0.16076619,-0.81725865,0.553038135,4.3491,3.6624,2.48738,72.0
1774822107.6586313,0.0036194324493408203,2026-03-29T22:08:27.658,2026-03-29T18:08:27.658,-32373.18,-49126.905,-84893.355,-50141.52,-14673.375,-19809.855,5041.125,-61971.57,-1.017457286701386,4.05929878385725,8.347769058487888,9.870779509136204,10.828359065083044,9.822579640336036,6.499882031486691,-1.7256559582519975,-0.16076619,-0.81725865,0.553038135,4.3491,3.6624,2.48738,72.0
1774822107.65865,1.8596649169921875e-05,2026-03-29T22:08:27.658,2026-03-29T18:08:27.658,-32380.695,-49151.34,-84919.905,-50154.84,-14688.135,-19832.805,5040.405,-61973.595,-4.110129093607188,2.2569311938164467,2.4558442329845334,1.4917036731580213,6.124298998615686,6.81132451812502,6.12417343995237,-4.348696575870868,-0.16076619,-0.81725865,0.553038135,4.3491,3.6624,2.48738,72.0
1774822107.6625953,0.003945350646972656,2026-03-29T22:08:27.662,2026-03-29T18:08:27.662,-32365.26,-49139.1,-84912.84,-50179.095,-14705.595,-19841.67,5043.825,-61957.575,-5.2698197361226295,-0.5168290694281412,-4.6482286760330425,-7.395766016768084,-1.4920980353406794,0.27923754276177903,2.866611060308441,-4.947389243768469,-0.16076619,-0.81725865,0.553038135,4.3491,3.6624,2.48738,72.0
1774822107.662624,2.86102294921875e-05,2026-03-29T22:08:27.662,2026-03-29T18:08:27.662,-32356.53,-49120.064999999995,-84899.11499999999,-50181.84,-14711.175,-19839.645,5038.785,-61956.36,-4.011084759787923,-3.0223461486467005,-9.760180397223595,-12.90970109282017,-8.614857472747032,-6.823325732754801,-1.7601160808039777,-3.3347503145372857,-0.16076619,-0.81725865,0.553038135,4.3491,3.6624,2.48738,72.0
1774822107.666957,0.004333019256591797,2026-03-29T22:08:27.666,2026-03-29T18:08:27.666,-32341.949999999997,-49116.104999999996,-84917.43,-50168.25,-14705.55,-19836.765,5024.79,-61959.645,-0.9720261557531702,-4.148126288339107,-10.516610496796028,-12.726904594499443,-11.973641673027487,-11.060965383566023,-5.574488831591324,-0.327948864267763,-0.16076619,-0.81725865,0.553038135,4.3491,3.6624,2.48738,72.0
1774822107.6669767,1.9788742065429688e-05,2026-03-29T22:08:27.666,2026-03-29T18:08:27.666,-32355.989999999998,-49145.265,-84930.39,-50134.455,-14682.689999999999,-19827.855,5023.62,-61960.814999999995,2.4048222592718607,-3.4069771874428407,-6.48973520795795,-7.046564490651171,-9.942389815292074,-10.184589324936558,-6.759809347799344,2.65972393232718,-0.16076619,-0.81725865,0.553038135,4.3491,3.6624,2.48738,72.0
1774822107.6710043,0.004027605056762695,2026-03-29T22:08:27.671,2026-03-29T18:08:27.671,-32369.085,-49173.165,-84954.95999999999,-50131.89,-14678.82,-19833.57,5022.09,-61963.92,4.561414363468558,-1.1525244273189523,0.5742490221207985,1.5673092371128685,-3.3298296063469137,-4.3208520684141565,-4.738538197687236,4.288300808849178,-0.16076619,-0.81725865,0.553038135,4.3491,3.6624,2.48738,72.0
1774822107.6710312,2.6941299438476562e-05,2026-03-29T22:08:27.671,2026-03-29T18:08:27.671,-32358.42,-49146.21,-84931.65,-50179.365,-14716.89,-19852.335,5031.585,-61955.415,4.551982791610343,1.5829042965203621,7.5040449411255,9.354590564470472,4.9335171815941585,3.9475601825786084,-0.46241955884586283,3.9027201108691263,-0.16076619,-0.81725865,0.553038135,4.3491,3.6624,2.48738,72.0
1774822107.674868,0.0038368701934814453,2026-03-29T22:08:27.674,2026-03-29T18:08:27.674,-32338.98,-49111.064999999995,-84903.84,-50213.744999999995,-14737.59,-19859.67,5034.42,-61946.415,2.4658664464087607,3.5577032083184954,11.122375893653478,13.00017277660341,11.09549229346949,10.717519399773838,4.030774562360777,1.8027239279200207,-0.155822355,-0.81396276,0.552427785,4.2728,5.14262,2.27374,72.0
1774822107.6748955,2.7418136596679688e-05,2026-03-29T22:08:27.674,2026-03-29T18:08:27.674,-32321.475,-49110.615,-84905.45999999999,-50209.335,-14726.519999999999,-19853.594999999998,5022.585,-61938.54,-0.647262481467586,3.88594031522003,9.702519489921492,11.031685692572758,12.292206224520118,12.618689107635685,6.58934786896701,-0.9435493915626904,-0.155822355,-0.81396276,0.552427785,4.2728,5.14262,2.27374,72.0
1774822107.6859171,0.011021614074707031,2026-03-29T22:08:27.685,2026-03-29T18:08:27.685,-32325.48,-49124.655,-84913.605,-50207.31,-14727.51,-19854.63,5019.84,-61933.68,-3.3018833516902846,2.440245165677116,3.7946693395002122,4.392689545948736,7.885885115659196,8.499218947854766,5.984010606496717,-3.037293415434378,-0.155822355,-0.81396276,0.552427785,4.2728,5.14262,2.27374,72.0
1774822107.6859412,2.4080276489257812e-05,2026-03-29T22:08:27.685,2026-03-29T18:08:27.685,-32360.265,-49131.045,-84901.95,-50168.52,-14702.31,-19832.219999999998,5022.36,-61947.36,-4.289931316406982,-0.09313132609598823,-3.9743396910277,-4.018395146815043,-0.19703353808358165,0.0971414704305636,2.5063992194278435,-3.5694047095459185,-0.155822355,-0.81396276,0.552427785,4.2728,5.14262,2.27374,72.0
1774822107.685962,2.0742416381835938e-05,2026-03-29T22:08:27.685,2026-03-29T18:08:27.685,-32348.52,-49134.509999999995,-84920.04,-50179.32,-14715.765,-19842.12,5024.429999999999,-61937.729999999996,-3.2384493149622267,-2.5341709719386465,-10.06266817533312,-10.613936739346212,-8.3056026933752,-8.68379201821957,-2.1650330413518475,-2.424628307949273,-0.155822355,-0.81396276,0.552427785,4.2728,5.14262,2.27374,72.0
1774822107.6859686,6.67572021484375e-06,2026-03-29T22:08:27.685,2026-03-29T18:08:27.685,-32343.164999999997,-49129.38,-84910.275,-50181.93,-14726.205,-19877.76,5016.42,-61933.59,-0.75075064166842,-3.7573763427261815,-11.625901401019988,-12.63480415514176,-12.717193329334025,-13.59705723779552,-5.772662881738437,-0.28544924339357686,-0.155822355,-0.81396276,0.552427785,4.2728,5.14262,2.27374,72.0
1774822107.6894164,0.0034477710723876953,2026-03-29T22:08:27.689,2026-03-29T18:08:27.689,-32361.074999999997,-49124.295,-84888.18,-50153.22,-14702.175,-19871.864999999998,5022.2699999999995,-61956.314999999995,1.922647515303046,-3.214289859508909,-7.847201785098689,-9.285781892833553,-11.353715398369195,-12.119148353755978,-6.5727584647173405,1.747699326356987,-0.155822355,-0.81396276,0.552427785,4.2728,5.14262,2.27374,72.0
1774822107.6894546,3.814697265625e-05,2026-03-29T22:08:27.689,2026-03-29T18:08:27.689,-32371.965,-49133.34,-84894.97499999999,-50154.75,-14696.369999999999,-19846.844999999998,5026.7699999999995,-61971.165,3.5092980568771646,-1.185929894144817,-0.3624017806169924,-2.0329275260344195,-4.767049010642893,-4.747369136008367,-4.183347162270258,2.7170709547321445,-0.155822355,-0.81396276,0.552427785,4.2728,5.14262,2.27374,72.0
1774822107.6931052,0.003650665283203125,2026-03-29T22:08:27.693,2026-03-29T18:08:27.693,-32350.364999999998,-49126.68,-84885.345,-50166.405,-14704.92,-19828.395,5044.095,-61947.405,3.3247267879865565,1.354200445804292,7.440480134184895,6.038437465576208,4.076275723242058,5.138624111156363,0.22778156941975083,2.2654389067917737,-0.155822355,-0.81396276,0.552427785,4.2728,5.14262,2.27374,72.0
1774822107.6931896,8.440017700195312e-05,2026-03-29T22:08:27.693,2026-03-29T18:08:27.693,-32362.065,-49152.24,-84906.62999999999,-50171.534999999996,-14700.96,-19808.37,5051.115,-61940.88,1.5727674978628392,3.2029819345307122,11.951450581463813,11.524066604266554,11.131713951963578,12.832664830315851,4.509717372362699,0.7694575555405556,-0.155822355,-0.81396276,0.552427785,4.2728,5.14262,2.27374,72.0
1774822107.698904,0.00571441650390625,2026-03-29T22:08:27.698,2026-03-29T18:08:27.698,-32371.245,-49149.27,-84921.20999999999,-50181.84,-14699.564999999999,-19795.635,5054.849999999999,-61942.5,-0.7977674271971605,3.4980277400958304,11.008952297069506,12.118944029506803,13.132416674995865,14.555653071780643,6.575979311118146,-0.9026485657363222,-0.15356406,-0.808164435,0.553526415,0.73248,5.7835399999999995,1.58704,72.0
1774822107.6989214,1.7404556274414062e-05,2026-03-29T22:08:27.698,2026-03-29T18:08:27.698,-32343.84,-49116.465,-84923.19,-50193.045,-14714.595,-19820.34,5042.835,-61941.284999999996,-2.5931618293407337,2.124634889266518,4.937150422178886,7.5733027657323335,9.110141923214044,9.321085014915758,5.422673235740543,-1.869169096514315,-0.15356406,-0.808164435,0.553526415,0.73248,5.7835399999999995,1.58704,72.0
1774822107.6989515,3.0040740966796875e-05,2026-03-29T22:08:27.698,2026-03-29T18:08:27.698,-32332.23,-49116.104999999996,-84921.84,-50194.935,-14725.215,-19842.614999999998,5028.03,-61934.67,-2.9727014541032806,-0.23501881959067863,-3.5487620302065173,-0.20239103917545348,0.8696934402029028,-0.5129349472762847,1.6193204184730727,-1.6939083581075327,-0.15356406,-0.808164435,0.553526415,0.73248,5.7835399999999995,1.58704,72.0
1774822107.698959,7.62939453125e-06,2026-03-29T22:08:27.698,2026-03-29T18:08:27.698,-32343.164999999997,-49131.18,-84922.73999999999,-50187.915,-14723.414999999999,-19847.07,5026.7699999999995,-61932.645,-1.8459498129592502,-2.4342894002596287,-10.55307305203003,-7.927808032989399,-7.818048056569155,-10.30901432411745,-2.9690116512865283,-0.5892664869731905,-0.15356406,-0.808164435,0.553526415,0.73248,5.7835399999999995,1.58704,72.0
1774822107.706533,0.007573843002319336,2026-03-29T22:08:27.706,2026-03-29T18:08:27.706,-32351.265,-49128.93,-84904.56,-50156.28,-14697.539999999999,-19826.235,5036.849999999999,-61949.744999999995,0.1199284895863041,-3.4165073619988733,-12.788185989960803,-12.31936210637003,-12.945340843232014,-15.350105511194196,-6.093763152178034,0.733956874117651,-0.15356406,-0.808164435,0.553526415,0.73248,5.7835399999999995,1.58704,72.0
1774822107.706556,2.3126602172851562e-05,2026-03-29T22:08:27.706,2026-03-29T18:08:27.706,-32343.795,-49140.045,-84929.84999999999,-50182.515,-14715.404999999999,-19839.239999999998,5033.5199999999995,-61937.189999999995,1.8720550159019427,-2.7240863914684614,-9.119869624355479,-11.47441843525092,-12.124654990125743,-13.12356731607673,-6.223548076465278,1.4800100919593073,-0.15356406,-0.808164435,0.553526415,0.73248,5.7835399999999995,1.58704,72.0
1774822107.7080479,0.0014917850494384766,2026-03-29T22:08:27.708,2026-03-29T18:08:27.708,-32307.93,-49141.755,-84960.98999999999,-50226.075,-14752.349999999999,-19872.585,5014.304999999999,-61893.27,2.522941471351264,-0.7159697553741546,-1.1412757747444582,-5.696666996407913,-5.7093988732194925,-4.5773208990686625,-3.2945750543168906,1.2172223272796765,-0.15356406,-0.808164435,0.553526415,0.73248,5.7835399999999995,1.58704,72.0
1774822107.7080584,1.049041748046875e-05,2026-03-29T22:08:27.708,2026-03-29T18:08:27.708,-32301.719999999998,-49130.595,-84929.94,-50207.354999999996,-14739.57,-19859.85,5014.125,-61880.85,1.7966763335614384,1.6120379055965535,7.514710806994431,2.5958929075323067,3.3519431097923715,6.281823240497538,1.2572029241010643,0.11854200244302666,-0.15356406,-0.808164435,0.553526415,0.73248,5.7835399999999995,1.58704,72.0
1774822107.71337,0.005311727523803711,2026-03-29T22:08:27.713,2026-03-29T18:08:27.713,-32354.235,-49121.505,-84891.645,-50169.869999999995,-14700.869999999999,-19823.445,5032.9349999999995,-61943.13,0.1469332858776906,3.1164367766143286,12.830638399573328,9.865039465663157,10.87174481176695,14.278319733026962,5.198649502127309,-1.1373396291076667,-0.15356406,-0.808164435,0.553526415,0.73248,5.7835399999999995,1.58704,72.0
1774822107.7133892,1.9073486328125e-05,2026-03-29T22:08:27.713,2026-03-29T18:08:27.713,-32365.89,-49109.58,-84875.535,-50146.965,-14681.564999999999,-19810.89,5042.7,-61967.97,-1.5041772062786392,3.065828735527879,12.272616490897828,12.950963415528737,13.365560020974096,15.548917891791108,6.59312373426899,-1.7518463273406781,-0.15356406,-0.808164435,0.553526415,0.73248,5.7835399999999995,1.58704,72.0
1774822107.724044,0.010654926300048828,2026-03-29T22:08:27.724,2026-03-29T18:08:27.724,-32378.85,-49129.604999999996,-84892.77,-50141.34,-14674.5,-19807.829999999998,5044.095,-61973.685,-2.2628317256342516,1.4974857520663112,6.000580402911013,10.447663070759104,9.67673705237077,9.417978774734943,4.749836836192645,-1.270033596935073,-0.156310635,-0.801572655,0.550108455,-2.7468,5.98192,-0.3815,72.0
1774822107.7240648,2.0742416381835938e-05,2026-03-29T22:08:27.724,2026-03-29T18:08:27.724,-32354.01,-49135.32,-84921.075,-50169.375,-14705.279999999999,-19838.024999999998,5034.195,-61942.545,-1.734376866358054,-0.8039777707467787,-3.1592881286901,3.3556980220461465,1.5210718876243419,-1.2477607999527103,0.5639306011291505,0.1341754430495653,-0.156310635,-0.801572655,0.550108455,-2.7468,5.98192,-0.3815,72.0
1774822107.7240849,2.002716064453125e-05,2026-03-29T22:08:27.724,2026-03-29T18:08:27.724,-32363.37,-49141.665,-84930.705,-50186.205,-14723.505,-19859.265,5030.1449999999995,-61960.229999999996,-0.22461336487836375,-2.6951733997594673,-10.989964956200586,-5.297230557129172,-7.308991919256333,-11.389525730209302,-3.9194475438379426,1.7164808513102374,-0.156310635,-0.801572655,0.550108455,-2.7468,5.98192,-0.3815,72.0
1774822107.7240925,7.62939453125e-06,2026-03-29T22:08:27.724,2026-03-29T18:08:27.724,-32374.485,-49151.34,-84931.37999999999,-50186.655,-14720.58,-19853.28,5034.33,-61971.84,1.4298732002063617,-3.238517013629498,-13.830669315651647,-11.737378411606871,-12.712788958245035,-16.17087507451776,-6.504060597436205,2.547474563959409,-0.156310635,-0.801572655,0.550108455,-2.7468,5.98192,-0.3815,72.0
1774822107.7241013,8.821487426757812e-06,2026-03-29T22:08:27.724,2026-03-29T18:08:27.724,-32350.094999999998,-49130.189999999995,-84911.895,-50197.095,-14729.265,-19844.91,5031.405,-61944.93,2.3106583572049573,-2.1648095326337584,-10.293714301375331,-13.092947295925665,-12.195598621590772,-13.296292958038341,-5.916240659648539,2.0283931024594635,-0.156310635,-0.801572655,0.550108455,-2.7468,5.98192,-0.3815,72.0
1774822107.72411,8.58306884765625e-06,2026-03-29T22:08:27.724,2026-03-29T18:08:27.724,-32358.105,-49129.064999999995,-84909.33,-50190.435,-14717.43,-19823.76,5033.474999999999,-61955.369999999995,1.9096572235098144,-0.005924426760564494,-1.9426678809730706,-8.688594087278698,-6.030264274438606,-4.116331027316283,-2.4288140067936075,0.2606475751365518,-0.156310635,-0.801572655,0.550108455,-2.7468,5.98192,-0.3815,72.0
1774822107.7269266,0.0028166770935058594,2026-03-29T22:08:27.726,2026-03-29T18:08:27.726,-32371.605,-49132.08,-84904.73999999999,-50163.975,-14694.21,-19810.44,5043.87,-61977.825,0.4065662076112469,2.1677566579463434,7.400631687748677,-0.39556703085935657,2.8795619683020433,7.0143946444767815,2.269151096129397,-1.9426613309349654,-0.156310635,-0.801572655,0.550108455,-2.7468,5.98192,-0.3815,72.0
1774822107.7269473,2.0742416381835938e-05,2026-03-29T22:08:27.726,2026-03-29T18:08:27.726,-32356.35,-49126.68,-84895.065,-50151.915,-14692.635,-19821.285,5036.445,-61959.375,-1.4150502207441533,3.2756878435820114,13.412828132107096,8.150337641587262,10.368965735992896,14.817509669272258,5.893002736915543,-3.4336806892951834,-0.156310635,-0.801572655,0.550108455,-2.7468,5.98192,-0.3815,72.0
1774822107.7314477,0.004500389099121094,2026-03-29T22:08:27.731,2026-03-29T18:08:27.731,-32346.495,-49129.515,-84905.415,-50159.34,-14696.91,-19833.39,5035.005,-61945.604999999996,-2.572393017028059,2.7608736909567475,13.278509243805697,13.144293977758785,12.96717491350354,15.608474542352557,6.673494725091501,-3.319145234774171,-0.156310635,-0.801572655,0.550108455,-2.7468,5.98192,-0.3815,72.0
1774822107.7314808,3.314018249511719e-05,2026-03-29T22:08:27.731,2026-03-29T18:08:27.731,-32343.975,-49140.854999999996,-84921.885,-50147.64,-14694.84,-19852.739999999998,5024.25,-61938.494999999995,-2.401144832580915,0.8660835103878636,7.013715861288245,12.321015123917373,9.516568297441419,9.043487027962922,4.217464482227591,-1.462381544528268,-0.156310635,-0.801572655,0.550108455,-2.7468,5.98192,-0.3815,72.0
1774822107.735142,0.0036611557006835938,2026-03-29T22:08:27.735,2026-03-29T18:08:27.735,-32338.53,-49139.64,-84906.45,-50123.25,-14686.92,-19862.145,5009.355,-61934.22,-0.9177304580263893,-1.4832907126717048,-2.521895615091779,6.001607684105177,1.6947623190442374,-1.736114747697731,-0.29957326724435834,1.3739114839348785,-0.157409265,-0.796201575,0.544981515,-3.52506,5.70724,-4.07442,72.0
1774822107.7351756,3.361701965332031e-05,2026-03-29T22:08:27.735,2026-03-29T18:08:27.735,-32341.274999999998,-49128.21,-84892.14,-50157.54,-14701.59,-19847.07,5018.625,-61947.314999999995,1.1654331469958608,-3.1320240938467783,-10.938977713271958,-3.0151627551191744,-6.799091440254672,-11.61975586053016,-4.701272137768126,3.844209595749658,-0.157409265,-0.796201575,0.544981515,-3.52506,5.70724,-4.07442,72.0
1774822107.739268,0.00409245491027832,2026-03-29T22:08:27.739,2026-03-29T18:08:27.739,-32364.495,-49133.97,-84899.79,-50187.015,-14707.529999999999,-19821.42,5040.495,-61955.729999999996,2.7869303492146393,-3.261176287646206,-14.35114082537759,-10.69200294973347,-11.999888755156967,-15.96622867453249,-6.862172894900386,4.663129423370021,-0.157409265,-0.796201575,0.544981515,-3.52506,5.70724,-4.07442,72.0
1774822107.7393875,0.00011944770812988281,2026-03-29T22:08:27.739,2026-03-29T18:08:27.739,-32368.32,-49119.795,-84897.54,-50195.295,-14715.675,-19819.934999999998,5048.415,-61959.555,3.074578357533693,-1.7903038893282097,-11.17915826859967,-13.574710590599143,-11.537712000778757,-12.793788295691817,-5.733502413434458,3.2654009816292557,-0.157409265,-0.796201575,0.544981515,-3.52506,5.70724,-4.07442,72.0
1774822107.7466185,0.007230997085571289,2026-03-29T22:08:27.746,2026-03-29T18:08:27.746,-32347.754999999997,-49120.064999999995,-84901.41,-50182.244999999995,-14709.105,-19822.77,5039.73,-61949.204999999994,1.8027270476689639,0.5803991743869474,-2.8839438534804,-10.36733708207893,-5.725791016817434,-3.683091382013042,-1.8479035125709877,0.1468298014251132,-0.157409265,-0.796201575,0.544981515,-3.52506,5.70724,-4.07442,72.0
1774822107.7466445,2.5987625122070312e-05,2026-03-29T22:08:27.746,2026-03-29T18:08:27.746,-32334.57,-49119.39,-84905.64,-50187.15,-14722.785,-19842.75,5028.03,-61933.814999999995,-0.4672750341316126,2.7078088963995692,6.7136855504391635,-2.531735139195376,2.628340525288964,7.0180339602057495,2.938254004293631,-3.3061608350037734,-0.157409265,-0.796201575,0.544981515,-3.52506,5.70724,-4.07442,72.0
1774822107.7466676,2.3126602172851562e-05,2026-03-29T22:08:27.746,2026-03-29T18:08:27.746,-32337.405,-49126.86,-84912.885,-50190.57,-14724.359999999999,-19843.92,5030.6849999999995,-61932.465,-2.6426520002933573,3.5584172684885473,13.206887576739618,6.374740739199989,9.581693464704493,14.284548425177222,6.3377091979281985,-5.4426741828709675,-0.157409265,-0.796201575,0.544981515,-3.52506,5.70724,-4.07442,72.0
1774822107.746678,1.049041748046875e-05,2026-03-29T22:08:27.746,2026-03-29T18:08:27.746,-32344.289999999997,-49127.265,-84904.73999999999,-50172.479999999996,-14703.975,-19823.895,5038.785,-61944.479999999996,-3.6309638439833862,2.7075908811884646,13.640361877624088,12.325572703639747,11.925436461583136,14.787164069362204,6.72830301901305,-5.1419288879226555,-0.157409265,-0.796201575,0.544981515,-3.52506,5.70724,-4.07442,72.0
1774822107.7511015,0.004423379898071289,2026-03-29T22:08:27.751,2026-03-29T18:08:27.751,-32346.765,-49125.6,-84893.44499999999,-50154.795,-14691.15,-19816.065,5041.215,-61940.79,-2.8868434872088815,0.5450960148069877,7.862532282201716,12.666253496710716,8.674301027322285,8.421414298786893,3.92555344256554,-2.3913160539094935,-0.157409265,-0.796201575,0.544981515,-3.52506,5.70724,-4.07442,72.0
1774822107.7511213,1.9788742065429688e-05,2026-03-29T22:08:27.751,2026-03-29T18:08:27.751,-32335.065,-49126.229999999996,-84904.155,-50166.765,-14710.545,-19841.04,5026.679999999999,-61926.615,-0.7004736891713456,-1.9101701129545856,-1.4303364905503522,7.317735751261261,1.4800020676339556,-1.7110824999471352,-0.735687214736641,1.6470588537768425,-0.157409265,-0.796201575,0.544981515,-3.52506,5.70724,-4.07442,72.0
1774822107.7550426,0.0039212703704833984,2026-03-29T22:08:27.755,2026-03-29T18:08:27.755,-32333.219999999998,-49142.205,-84950.955,-50193.09,-14738.175,-19873.17,5010.57,-61923.06,1.9208977577278747,-3.4950457887235844,-9.965428979979459,-1.2135116833472264,-6.204540889873954,-10.82533476875713,-5.044229757559144,5.13677224412777,-0.159850665,-0.79968057,0.54125838,-3.6013599999999997,4.15072,-5.76828,72.0
1774822107.7550683,2.574920654296875e-05,2026-03-29T22:08:27.755,2026-03-29T18:08:27.755,-32325.21,-49151.564999999995,-84984.795,-50217.615,-14755.095,-19885.5,5003.46,-61909.11,3.7271425169021817,-3.453409247792342,-13.874984278023922,-9.015864022988957,-10.788292418027837,-14.726846940833882,-6.96746312341953,6.414446160617301,-0.159850665,-0.79968057,0.54125838,-3.6013599999999997,4.15072,-5.76828,72.0
1774822107.7588816,0.0038132667541503906,2026-03-29T22:08:27.758,2026-03-29T18:08:27.758,-32322.69,-49140.72,-84956.805,-50232.33,-14753.925,-19876.995,5007.96,-61909.064999999995,3.827494381825602,-1.7921513537632252,-11.461173984471849,-12.584371855141843,-10.228222357517913,-11.749452340412644,-5.612317330280925,4.787515692701811,-0.159850665,-0.79968057,0.54125838,-3.6013599999999997,4.15072,-5.76828,72.0
1774822107.7589023,2.0742416381835938e-05,2026-03-29T22:08:27.758,2026-03-29T18:08:27.758,-32361.66,-49123.575,-84897.045,-50184.945,-14695.47,-19829.385,5037.03,-61979.265,2.127969663952953,0.7238846595259919,-3.932783382507698,-10.415509397338681,-4.942538450180615,-3.4584743997503544,-1.6369789570296862,0.8973431947808004,-0.159850665,-0.79968057,0.54125838,-3.6013599999999997,4.15072,-5.76828,72.0
1774822107.7629116,0.004009246826171875,2026-03-29T22:08:27.762,2026-03-29T18:08:27.762,-32386.32,-49116.915,-84852.765,-50137.11,-14652.314999999999,-19790.594999999998,5058.764999999999,-62011.619999999995,-0.6104767929298132,2.9312704633419306,5.205968378555519,-3.6488696080484586,2.458575503398311,6.17260716959235,3.075184536287941,-3.538812282080977,-0.159850665,-0.79968057,0.54125838,-3.6013599999999997,4.15072,-5.76828,72.0
1774822107.7629333,2.1696090698242188e-05,2026-03-29T22:08:27.762,2026-03-29T18:08:27.762,-32364.18,-49123.439999999995,-84871.53,-50162.265,-14689.619999999999,-19813.95,5053.815,-61977.42,-3.123893059139386,3.8093344665593096,11.80342739887302,4.522642707134458,8.46352210511776,12.678790599123529,6.315494088560931,-6.500342600249651,-0.159850665,-0.79968057,0.54125838,-3.6013599999999997,4.15072,-5.76828,72.0
1774822107.7715688,0.008635520935058594,2026-03-29T22:08:27.771,2026-03-29T18:08:27.771,-32360.76,-49135.59,-84878.19,-50151.104999999996,-14694.39,-19818.315,5057.55,-61964.235,-4.2396163552170565,2.949841914761736,12.962556924600653,10.37172152124208,10.33167744371751,13.183267942230424,6.590464203314956,-6.596130005909501,-0.159850665,-0.79968057,0.54125838,-3.6013599999999997,4.15072,-5.76828,72.0
1774822107.7715836,1.4781951904296875e-05,2026-03-29T22:08:27.771,2026-03-29T18:08:27.771,-32378.85,-49149.27,-84891.51,-50145.93,-14696.1,-19826.235,5051.205,-61960.229999999996,-3.4286226616903464,0.7398323993450544,8.317922726624214,11.355667154226417,7.347658711022529,7.66713548592445,3.8104713231925174,-3.7212976664112647,-0.159850665,-0.79968057,0.54125838,-3.6013599999999997,4.15072,-5.76828,72.0
1774822107.8007195,0.029135942459106445,2026-03-29T22:08:27.800,2026-03-29T18:08:27.800,-32373.09,-49125.24,-84899.745,-50158.89,-14702.039999999999,-19831.32,5040.585,-61970.49,-1.053243053486127,-1.8209306377790002,0.12222221830213692,7.233153222449328,1.081621279800997,-1.1295411902362449,-0.6911128301693419,0.8739217925806585,-0.159850665,-0.79968057,0.54125838,-3.6013599999999997,4.15072,-5.76828,72.0
1774822107.8007405,2.09808349609375e-05,2026-03-29T22:08:27.800,2026-03-29T18:08:27.800,-32345.684999999998,-49108.14,-84892.545,-50165.865,-14706.314999999999,-19831.635,5042.88,-61965.63,1.804707775959769,-3.5778297238373824,-7.857651694378782,0.08241623635412362,-5.430802357917595,-9.074882151483108,-4.80462046071971,5.141485785574968,-0.159850665,-0.79968057,0.54125838,-3.6013599999999997,4.15072,-5.76828,72.0
1774822107.80076,1.9550323486328125e-05,2026-03-29T22:08:27.800,2026-03-29T18:08:27.800,-32347.44,-49119.93,-84898.395,-50177.25,-14719.814999999999,-19845.63,5049.179999999999,-61952.13,3.8495726511059774,-3.742126970049889,-12.089136409855902,-6.745882728027393,-9.162502996869055,-12.59554230260882,-6.640051660881738,7.164269657155412,-0.158996175,-0.804136125,0.540831135,-3.0977799999999998,2.27374,-8.63716,72.0
1774822107.8007667,6.67572021484375e-06,2026-03-29T22:08:27.800,2026-03-29T18:08:27.800,-32343.48,-49118.939999999995,-84897.855,-50182.424999999996,-14726.475,-19863.225,5039.595,-61947.854999999996,4.1691588073928205,-2.2396693277437203,-10.847422134878217,-10.21269159660608,-8.50486723174487,-10.285261833174838,-5.398991980221348,6.027746214710314,-0.158996175,-0.804136125,0.540831135,-3.0977799999999998,2.27374,-8.63716,72.0
1774822107.8007748,8.106231689453125e-06,2026-03-29T22:08:27.800,2026-03-29T18:08:27.800,-32333.85,-49118.49,-84899.87999999999,-50173.424999999996,-14722.019999999999,-19864.215,5030.1449999999995,-61935.884999999995,2.6437187813439795,0.26379085813306485,-4.908341655607019,-8.955434883620637,-3.9553063834957136,-3.4473957216028976,-1.7186928317137498,2.233395519952554,-0.158996175,-0.804136125,0.540831135,-3.0977799999999998,2.27374,-8.63716,72.0
1774822107.8007808,5.9604644775390625e-06,2026-03-29T22:08:27.800,2026-03-29T18:08:27.800,-32332.725,-49121.909999999996,-84905.325,-50169.6,-14712.93,-19851.614999999998,5020.2,-61931.61,-0.017892666992340184,2.664304029997873,2.91190250923885,-3.814615354858025,2.208094077681014,4.626151659879257,2.65827711887536,-2.533176158918027,-0.158996175,-0.804136125,0.540831135,-3.0977799999999998,2.27374,-8.63716,72.0
1774822107.800788,7.152557373046875e-06,2026-03-29T22:08:27.800,2026-03-29T18:08:27.800,-32341.995,-49125.465,-84908.11499999999,-50174.865,-14711.265,-19841.265,5020.74,-61941.375,-2.620034320463668,3.908367622869359,9.10597231858132,2.6760972786397024,7.066540182065268,10.245923430495983,5.716637966613358,-6.1674784852061295,-0.158996175,-0.804136125,0.540831135,-3.0977799999999998,2.27374,-8.63716,72.0
1774822107.8007934,5.4836273193359375e-06,2026-03-29T22:08:27.800,2026-03-29T18:08:27.800,-32368.815,-49127.04,-84896.86499999999,-50162.805,-14696.595,-19822.905,5038.11,-61975.619999999995,-4.029994788127179,3.4513762396204846,11.060859729637183,7.542211735129516,8.444172143195173,11.013886344814559,6.102258573909046,-7.0898128442194235,-0.158996175,-0.804136125,0.540831135,-3.0977799999999998,2.27374,-8.63716,72.0
1774822107.8008003,6.9141387939453125e-06,2026-03-29T22:08:27.800,2026-03-29T18:08:27.800,-32374.62,-49136.31,-84907.17,-50169.15,-14702.67,-19832.76,5047.92,-61980.479999999996,-3.677007768224089,1.4885895316285551,8.15701343634733,8.741556099651223,5.878333540112892,6.836184918136925,3.721890943859004,-4.937423215015004,-0.158996175,-0.804136125,0.540831135,-3.0977799999999998,2.27374,-8.63716,72.0
1774822107.800806,5.7220458984375e-06,2026-03-29T22:08:27.800,2026-03-29T18:08:27.800,-32360.445,-49138.02,-84912.97499999999,-50181.075,-14719.455,-19850.67,5046.929999999999,-61957.575,-1.7777390158673039,-1.1351862229151457,1.920840934404572,6.019259352493201,0.7461054247898887,-0.16156591491091207,-0.2568304128712441,-0.6991763639575956,-0.158996175,-0.804136125,0.540831135,-3.0977799999999998,2.27374,-8.63716,72.0
1774822107.8008127,6.67572021484375e-06,2026-03-29T22:08:27.800,2026-03-29T18:08:27.800,-32360.579999999998,-49145.67,-84922.2,-50169.869999999995,-14707.71,-19836.63,5040.315,-61953.57,0.7978085659025966,-3.2918568055961575,-4.775880156373987,0.8881929840625373,-4.466941879054527,-6.713415510923955,-3.983361032839651,3.752616690848641,-0.158996175,-0.804136125,0.540831135,-3.0977799999999998,2.27374,-8.63716,72.0
1774822107.8008184,5.7220458984375e-06,2026-03-29T22:08:27.800,2026-03-29T18:08:27.800,-32358.329999999998,-49151.475,-84933.94499999999,-50179.005,-14716.17,-19848.465,5025.014999999999,-61952.445,2.9380856090559573,-4.052108659132827,-9.050382282117388,-4.191455089903859,-7.369925782950014,-9.939255232581727,-5.792047599420908,6.50560683310573,-0.158996175,-0.804136125,0.540831135,-3.0977799999999998,2.27374,-8.63716,72.0
1774822107.8046947,0.003876209259033203,2026-03-29T22:08:27.804,2026-03-29T18:08:27.804,-32354.28,-49142.025,-84927.015,-50198.445,-14729.039999999999,-19858.454999999998,5020.38,-61950.645,3.7786584515588038,-3.079069274253156,-9.251449220976383,-6.9950165761763445,-6.758933655508665,-8.60400867409819,-4.949657247905894,6.4385119199348795,-0.15527304,-0.812192745,0.54528669,-2.8994,2.25848,-9.491719999999999,72.0
1774822107.8047204,2.574920654296875e-05,2026-03-29T22:08:27.804,2026-03-29T18:08:27.804,-32359.59,-49150.755,-84942.675,-50185.89,-14712.705,-19846.53,5013.945,-61953.884999999995,3.048429593903192,-0.7707181748105744,-5.574157695813084,-6.507725506650902,-3.1014562621948714,-3.5636202474089194,-1.9457722847536825,3.6740323656633316,-0.15527304,-0.812192745,0.54528669,-2.8994,2.25848,-9.491719999999999,72.0
1774822107.804746,2.5510787963867188e-05,2026-03-29T22:08:27.804,2026-03-29T18:08:27.804,-32357.699999999997,-49139.46,-84917.295,-50138.369999999995,-14664.914999999999,-19797.03,5035.95,-61964.1,1.136253011997702,1.9053394134589716,0.1682332297389103,-3.264212394706522,1.7730241497677215,2.746200755776597,1.7851263108222841,-0.5273112776142501,-0.15527304,-0.812192745,0.54528669,-2.8994,2.25848,-9.491719999999999,72.0
1774822107.8047569,1.0967254638671875e-05,2026-03-29T22:08:27.804,2026-03-29T18:08:27.804,-32344.92,-49127.625,-84899.925,-50153.805,-14685.345,-19811.07,5048.054999999999,-61945.515,-1.1234891142020098,3.8146281737689893,5.44265940444081,1.0426227706957019,5.585440887868456,7.485138974488197,4.55497908499611,-4.357163396281423,-0.15527304,-0.812192745,0.54528669,-2.8994,2.25848,-9.491719999999999,72.0
1774822107.8047693,1.239776611328125e-05,2026-03-29T22:08:27.804,2026-03-29T18:08:27.804,-32335.739999999998,-49109.985,-84887.64,-50192.055,-14726.07,-19844.64,5036.625,-61940.475,-2.8260815173978395,4.130113665414402,8.117613329842756,4.433766478722471,6.66792178988634,8.680773153720914,5.190960908082635,-6.250209939979551,-0.15527304,-0.812192745,0.54528669,-2.8994,2.25848,-9.491719999999999,72.0
1774822107.8047788,9.5367431640625e-06,2026-03-29T22:08:27.804,2026-03-29T18:08:27.804,-32357.969999999998,-49119.479999999996,-84893.44499999999,-50188.59,-14720.535,-19839.059999999998,5032.575,-61964.235,-3.3582741611988034,2.6836632183386784,7.309324160340006,5.551450972140143,4.681244253051512,6.0317891786548286,3.529272286670641,-5.523936241026068,-0.15527304,-0.812192745,0.54528669,-2.8994,2.25848,-9.491719999999999,72.0
1774822107.8071442,0.0023653507232666016,2026-03-29T22:08:27.807,2026-03-29T18:08:27.807,-32349.69,-49121.325,-84893.44499999999,-50174.189999999995,-14711.939999999999,-19836.36,5031.495,-61954.244999999995,-2.6020295241100486,0.04921349979938313,3.625822382371838,4.186619909698373,0.6872277475198008,0.925562947495836,0.4275468082784464,-2.6058029113978067,-0.15527304,-0.812192745,0.54528669,-2.8994,2.25848,-9.491719999999999,72.0
1774822107.8071673,2.3126602172851562e-05,2026-03-29T22:08:27.807,2026-03-29T18:08:27.807,-32325.975,-49126.005,-84911.355,-50183.009999999995,-14724.09,-19860.84,5021.1449999999995,-61934.939999999995,-0.9230084182708179,-2.6809385955907237,-1.2258153297970884,1.2315794639147695,-3.4127943991181433,-4.277905665665472,-2.6789101282353474,1.2162023013211192,-0.15527304,-0.812192745,0.54528669,-2.8994,2.25848,-9.491719999999999,72.0
1774822107.8110526,0.0038852691650390625,2026-03-29T22:08:27.811,2026-03-29T18:08:27.811,-32340.6,-49145.13,-84925.08,-50176.89,-14717.789999999999,-19870.92,5012.01,-61937.055,1.0168386416154362,-4.341720685670158,-5.233220408639869,-1.8512015490561586,-5.77829417761615,-7.3296247962595285,-4.447102636490286,4.3758516471900055,-0.15527304,-0.812192745,0.54528669,-2.8994,2.25848,-9.491719999999999,72.0
1774822107.8110733,2.0742416381835938e-05,2026-03-29T22:08:27.811,2026-03-29T18:08:27.811,-32379.57,-49142.744999999995,-84916.305,-50163.435,-14702.67,-19854.315,5017.095,-61965.63,2.5223365017120054,-4.185241790029323,-6.9029870711869945,-3.743279228158899,-5.444176242509057,-7.048661602253548,-4.207096776035817,5.673988933454706,-0.15527304,-0.812192745,0.54528669,-2.8994,2.25848,-9.491719999999999,72.0
1774822107.8149707,0.003897428512573242,2026-03-29T22:08:27.814,2026-03-29T18:08:27.814,-32376.42,-49127.58,-84896.415,-50168.25,-14706.765,-19847.204999999998,5026.32,-61981.2,3.0977465244327287,-2.2133257322271938,-5.783962747267674,-3.8221547921858194,-2.695305261408993,-3.7540384311882202,-2.2023858513145598,4.719072628340028,-0.15368613,-0.818662455,0.552305715,0.0,4.39488,-12.665799999999999,72.0
1774822107.8149974,2.6702880859375e-05,2026-03-29T22:08:27.814,2026-03-29T18:08:27.814,-32352.885,-49128.119999999995,-84907.75499999999,-50190.299999999996,-14721.795,-19851.12,5033.79,-61957.079999999994,2.5808925091230552,0.7928523942185524,-2.526847503741563,-2.3268664763887705,1.1325983746504147,0.9706341949186963,0.588375089308318,2.0093628691371817,-0.15368613,-0.818662455,0.552305715,0.0,4.39488,-12.665799999999999,72.0
1774822107.8192255,0.004228115081787109,2026-03-29T22:08:27.819,2026-03-29T18:08:27.819,-32335.155,-49119.299999999996,-84900.915,-50185.35,-14718.195,-19839.915,5042.61,-61953.39,1.1623539196469055,3.572879322043744,1.476835507045018,-0.12114758225596797,4.298409232001699,5.02918541758524,2.9331274754591607,-1.3338877940679337,-0.15368613,-0.818662455,0.552305715,0.0,4.39488,-12.665799999999999,72.0
1774822107.8192444,1.8835067749023438e-05,2026-03-29T22:08:27.819,2026-03-29T18:08:27.819,-32344.649999999998,-49121.955,-84890.655,-50170.59,-14709.555,-19834.38,5035.724999999999,-61954.2,-0.6894467876229878,4.9071268721137375,4.681582776063944,1.7770371833281475,5.436723447251124,6.728179963166067,3.892740794819086,-4.037169588457638,-0.15368613,-0.818662455,0.552305715,0.0,4.39488,-12.665799999999999,72.0
1774822107.8309,0.011655569076538086,2026-03-29T22:08:27.830,2026-03-29T18:08:27.830,-32364.585,-49126.545,-84898.17,-50175.405,-14713.515,-19841.715,5023.125,-61964.28,-2.3645416026095964,4.147084413874243,5.957347127462898,2.652395463783295,4.129735433430738,5.463770689089201,3.188484165984142,-5.148048482492632,-0.15368613,-0.818662455,0.552305715,0.0,4.39488,-12.665799999999999,72.0
1774822107.8309202,2.0265579223632812e-05,2026-03-29T22:08:27.830,2026-03-29T18:08:27.830,-32368.635,-49132.71,-84908.565,-50174.46,-14706.675,-19829.969999999998,5025.69,-61970.354999999996,-3.280670637556795,1.5282007331927252,4.948342635839101,2.3369032910058207,1.040049723924165,1.9132684951418293,1.2517384036495844,-4.341584776705849,-0.15368613,-0.818662455,0.552305715,0.0,4.39488,-12.665799999999999,72.0
1774822107.8309429,2.2649765014648438e-05,2026-03-29T22:08:27.830,2026-03-29T18:08:27.830,-32363.64,-49127.22,-84897.9,-50157.09,-14688.72,-19809.0,5029.83,-61967.295,-3.059513873134302,-1.8845600469912203,2.1329982696212455,1.174865728999326,-2.423713718653435,-2.3140480430293913,-1.0287296851818644,-1.9792930482210078,-0.15368613,-0.818662455,0.552305715,0.0,4.39488,-12.665799999999999,72.0
1774822107.8309536,1.0728836059570312e-05,2026-03-29T22:08:27.830,2026-03-29T18:08:27.830,-32356.17,-49130.28,-84910.995,-50169.915,-14707.89,-19832.895,5035.095,-61957.215,-1.6738804578829884,-4.619057391523011,-1.3949121866189225,-0.22070415579570088,-4.740195548981452,-5.391528109158707,-2.718159941445846,1.0619384961617215,-0.15368613,-0.818662455,0.552305715,0.0,4.39488,-12.665799999999999,72.0
1774822107.830963,9.298324584960938e-06,2026-03-29T22:08:27.830,2026-03-29T18:08:27.830,-32342.895,-49138.424999999996,-84923.86499999999,-50175.09,-14710.814999999999,-19839.6,5041.889999999999,-61938.765,0.48597642212253744,-5.425022687378262,-4.327255717646852,-1.2712860645703217,-4.927292109024392,-6.0453273045279605,-3.213763029425047,3.7057143828524897,-0.15368613,-0.818662455,0.552305715,0.0,4.39488,-12.665799999999999,72.0
1774822107.8309684,5.4836273193359375e-06,2026-03-29T22:08:27.830,2026-03-29T18:08:27.830,-32330.789999999997,-49148.189999999995,-84947.58,-50218.74,-14746.635,-19870.38,5030.595,-61919.595,2.679806418184083,-3.8445738807540346,-5.592373323637009,-1.6532189034849667,-2.9423839500586655,-4.066191884062083,-2.439316829981419,5.028030080106,-0.15368613,-0.818662455,0.552305715,0.0,4.39488,-12.665799999999999,72.0
1774822107.8362858,0.0053174495697021484,2026-03-29T22:08:27.836,2026-03-29T18:08:27.836,-32340.555,-49143.509999999995,-84936.645,-50212.845,-14740.019999999999,-19868.715,5016.6449999999995,-61930.53,4.038937303495194,-0.46464058841683636,-4.7219480533297755,-1.363142892223372,0.3229561799488278,-0.3664291263804305,-0.8064615689080683,4.547723313860738,-0.15344199,-0.822568695,0.56249856,1.69386,5.7835399999999995,-15.1837,72.0
1774822107.8363028,1.6927719116210938e-05,2026-03-29T22:08:27.836,2026-03-29T18:08:27.836,-32358.149999999998,-49138.02,-84936.87,-50179.455,-14711.67,-19851.66,5012.054999999999,-61960.365,3.8966499138656463,3.2849805184270156,-2.023684984162313,-0.642256160634234,3.4374498949711936,3.4270303779162594,1.003394507874443,2.3848345131874855,-0.15344199,-0.822568695,0.56249856,1.69386,5.7835399999999995,-15.1837,72.0
1774822107.8422852,0.005982398986816406,2026-03-29T22:08:27.842,2026-03-29T18:08:27.842,-32357.25,-49140.63,-84946.68,-50175.9,-14713.695,-19855.079999999998,5014.9349999999995,-61961.985,2.1099378913699205,5.7284782267610925,1.5038567219676615,0.17051078120211968,5.042511249248269,5.6686185640100195,2.3214010905233815,-0.7542957446078362,-0.15344199,-0.822568695,0.56249856,1.69386,5.7835399999999995,-15.1837,72.0
1774822107.842311,2.574920654296875e-05,2026-03-29T22:08:27.842,2026-03-29T18:08:27.842,-32374.98,-49128.345,-84905.775,-50172.165,-14702.13,-19837.575,5035.005,-61994.744999999995,-0.7802777952127481,5.691333685531676,4.507737109859147,0.7785454024215503,4.428835634746795,5.391932390520211,2.7220227914424315,-3.774066944390207,-0.15344199,-0.822568695,0.56249856,1.69386,5.7835399999999995,-15.1837,72.0
1774822107.842338,2.7179718017578125e-05,2026-03-29T22:08:27.842,2026-03-29T18:08:27.842,-32354.594999999998,-49124.43,-84896.775,-50188.994999999995,-14711.355,-19839.6,5045.67,-61964.055,-3.6673411857841898,3.065980369480479,5.7763171474578545,1.0128954796752299,1.8413212009722262,2.722290014559166,2.1325957912730487,-5.535394453576472,-0.15344199,-0.822568695,0.56249856,1.69386,5.7835399999999995,-15.1837,72.0
1774822107.842355,1.6927719116210938e-05,2026-03-29T22:08:27.842,2026-03-29T18:08:27.842,-32358.51,-49126.77,-84885.39,-50181.659999999996,-14707.35,-19829.34,5033.61,-61967.744999999995,-5.28261795924864,-1.077094140570444,4.726647700242103,0.8548362024446718,-1.6143188810954052,-1.169835162342305,0.8127230595847241,-5.264055826965098,-0.15344199,-0.822568695,0.56249856,1.69386,5.7835399999999995,-15.1837,72.0
1774822107.8497434,0.00738835334777832,2026-03-29T22:08:27.849,2026-03-29T18:08:27.849,-32348.52,-49130.865,-84901.31999999999,-50170.86,-14716.17,-19838.34,5028.255,-61957.53,-4.749662429394908,-4.914650478948721,1.6883167836150839,0.4129377406076251,-4.4305323612660885,-4.563156326594367,-0.7607518276498576,-2.8882726809492683,-0.15344199,-0.822568695,0.56249856,1.69386,5.7835399999999995,-15.1837,72.0
1774822107.849768,2.4557113647460938e-05,2026-03-29T22:08:27.849,2026-03-29T18:08:27.849,-32354.504999999997,-49141.619999999995,-84911.265,-50164.29,-14731.695,-19863.18,5025.78,-61955.82,-2.0488559899879313,-6.670077856044737,-2.1614928858435474,-0.12466463016073051,-5.339896691240324,-5.929213126434172,-2.0520167248963737,0.8397860271547605,-0.15344199,-0.822568695,0.56249856,1.69386,5.7835399999999995,-15.1837,72.0
1774822107.8497913,2.3365020751953125e-05,2026-03-29T22:08:27.849,2026-03-29T18:08:27.849,-32359.05,-49120.2,-84869.55,-50152.545,-14717.564999999999,-19851.614999999998,5040.0,-61975.89,1.8496472947065596,-5.438271049854031,-5.229832148093654,-0.5507889266102927,-3.875437365696665,-4.613348410314721,-2.6240022396152938,4.534536165440304,-0.15344199,-0.822568695,0.56249856,1.69386,5.7835399999999995,-15.1837,72.0
1774822107.8498054,1.4066696166992188e-05,2026-03-29T22:08:27.849,2026-03-29T18:08:27.849,-32345.1,-49111.244999999995,-84869.64,-50151.284999999996,-14696.775,-19825.739999999998,5049.8099999999995,-61959.645,5.304490475411428,-1.6519902052004811,-6.163098641849015,-0.7057625952551179,-0.6066397542850709,-1.1532517800173665,-2.2652913141723316,6.6637841013117765,-0.15344199,-0.822568695,0.56249856,1.69386,5.7835399999999995,-15.1837,72.0
1774822107.8550704,0.005264997482299805,2026-03-29T22:08:27.855,2026-03-29T18:08:27.855,-32342.76,-49123.935,-84893.355,-50147.145,-14669.865,-19790.864999999998,5054.3099999999995,-61946.189999999995,6.687502760295026,3.0505494154755506,-4.458316960673284,-0.5374392854710481,3.067105704332583,2.922393863179977,-1.0630949776345766,6.177929644970448,-0.152648535,-0.8231180100000001,0.56994483,0.42728,6.409199999999999,-16.984379999999998,72.0
1774822107.8551,2.956390380859375e-05,2026-03-29T22:08:27.855,2026-03-29T18:08:27.855,-32339.61,-49132.17,-84914.91,-50167.619999999995,-14694.705,-19819.755,5037.03,-61941.149999999994,5.152703613034952,6.529562592192884,-0.747542700884594,-0.13143254636555207,5.500441412050436,5.751262656939376,0.5999618193256663,3.027210398774642,-0.152648535,-0.8231180100000001,0.56994483,0.42728,6.409199999999999,-16.984379999999998,72.0
1774822107.8590174,0.0039174556732177734,2026-03-29T22:08:27.859,2026-03-29T18:08:27.859,-32326.695,-49146.84,-84942.09,-50188.545,-14732.46,-19872.719999999998,5018.625,-61916.354999999996,1.1262015789082322,7.1196275432050715,3.4091421169848015,0.3126638830349414,5.5285342824281765,5.977742996375045,2.141625179269977,-1.6875612603136294,-0.152648535,-0.8231180100000001,0.56994483,0.42728,6.409199999999999,-16.984379999999998,72.0
1774822107.8590379,2.0503997802734375e-05,2026-03-29T22:08:27.859,2026-03-29T18:08:27.859,-32341.815,-49146.525,-84932.145,-50187.509999999995,-14728.994999999999,-19864.26,5021.73,-61932.104999999996,-3.757119449166502,4.4316581897524765,6.172222303959044,0.5646137152207819,3.020762056757371,3.402092400920261,2.9625273963640018,-6.060528392902641,-0.152648535,-0.8231180100000001,0.56994483,0.42728,6.409199999999999,-16.984379999999998,72.0
1774822107.8629763,0.003938436508178711,2026-03-29T22:08:27.862,2026-03-29T18:08:27.862,-32359.41,-49125.869999999995,-84891.645,-50166.9,-14701.904999999999,-19827.495,5033.474999999999,-61968.78,-7.304786667594255,-0.40753406829235667,6.247245078678687,0.47855195032780445,-1.0003490024942372,-0.8729019975394228,2.671618900721575,-8.139051185556278,-0.152648535,-0.8231180100000001,0.56994483,0.42728,6.409199999999999,-16.984379999999998,72.0
1774822107.8629973,2.09808349609375e-05,2026-03-29T22:08:27.862,2026-03-29T18:08:27.862,-32337.765,-49124.43,-84882.95999999999,-50159.564999999995,-14698.215,-19819.44,5039.775,-61954.965,-7.7540192583172285,-5.219761068312966,3.510284448976903,0.08328811413360947,-4.75991418813537,-4.896407837950854,1.2738289158116098,-6.800405544211665,-0.152648535,-0.8231180100000001,0.56994483,0.42728,6.409199999999999,-16.984379999999998,72.0
1774822107.867342,0.0043447017669677734,2026-03-29T22:08:27.867,2026-03-29T18:08:27.867,-32332.635,-49150.485,-84908.16,-50170.5,-14711.85,-19838.114999999998,5043.51,-61927.604999999996,-4.649637169258986,-7.757323152086278,-0.8765630603239886,-0.4095232788684726,-6.504240309172875,-6.748186869861522,-0.7710291195734434,-2.351601676524844,-0.152648535,-0.8231180100000001,0.56994483,0.42728,6.409199999999999,-16.984379999999998,72.0
1774822107.86738,3.790855407714844e-05,2026-03-29T22:08:27.867,2026-03-29T18:08:27.867,-32364.315,-49161.689999999995,-84929.48999999999,-50183.055,-14724.765,-19855.395,5028.12,-61939.215,0.8253863982821266,-6.759229201078146,-4.948151316994246,-0.7012041832657446,-5.315554635332036,-5.451340455852234,-2.6747185002301723,3.465238326400117,-0.152648535,-0.8231180100000001,0.56994483,0.42728,6.409199999999999,-16.984379999999998,72.0
1774822107.8714025,0.0040225982666015625,2026-03-29T22:08:27.871,2026-03-29T18:08:27.871,-32345.28,-49128.479999999996,-84928.05,-50188.229999999996,-14730.164999999999,-19861.605,5018.985,-61939.259999999995,6.278442860797162,-2.5824113558401964,-6.822545268817429,-0.5695445083165125,-1.5906424165891202,-1.486249910462787,-3.614128171075365,8.134890431337999,-0.152648535,-0.8231180100000001,0.56994483,0.42728,6.409199999999999,-16.984379999999998,72.0
1774822107.87143,2.7418136596679688e-05,2026-03-29T22:08:27.871,2026-03-29T18:08:27.871,-32328.539999999997,-49121.909999999996,-84932.955,-50195.115,-14733.9,-19869.434999999998,5021.955,-61954.784999999996,9.153302545903337,2.910288513053053,-5.587484597749075,-0.015228863944196671,3.0653616325632926,3.364899155181301,-3.0882289145778548,9.458935606925685,-0.152648535,-0.8231180100000001,0.56994483,0.42728,6.409199999999999,-16.984379999999998,72.0
1774822107.8764713,0.005041360855102539,2026-03-29T22:08:27.876,2026-03-29T18:08:27.876,-32349.87,-49124.07,-84905.055,-50170.814999999995,-14710.005,-19854.54,5041.215,-61982.46,7.936768262557475,7.180931147236472,-1.761261603770464,0.6994261027304163,6.520999569438393,6.808434400983213,-1.1827637576066876,6.600883503189704,-0.1489254,-0.82604769,0.57580419,-1.38866,6.790699999999999,-16.41976,72.0
1774822107.8765037,3.24249267578125e-05,2026-03-29T22:08:27.876,2026-03-29T18:08:27.876,-32371.649999999998,-49127.354999999996,-84895.83,-50170.86,-14713.965,-19858.995,5029.605,-61969.77,2.952814545438457,8.195977336465344,2.9119546362554907,1.161588256182627,7.09249712298638,7.119706999663863,1.3964949422155486,0.5854691813491611,-0.1489254,-0.82604769,0.57580419,-1.38866,6.790699999999999,-16.41976,72.0
1774822107.879312,0.0028083324432373047,2026-03-29T22:08:27.879,2026-03-29T18:08:27.879,-32367.465,-49119.705,-84890.97,-50172.705,-14715.135,-19848.015,5028.12,-61980.479999999996,-3.6714964043113736,5.403116527626161,6.258687418010206,1.0284472406513165,4.3655606120850985,4.006089691145511,3.571526292286266,-6.035368504087073,-0.1489254,-0.82604769,0.57580419,-1.38866,6.790699999999999,-16.41976,72.0
1774822107.879331,1.9073486328125e-05,2026-03-29T22:08:27.879,2026-03-29T18:08:27.879,-32369.715,-49119.84,-84883.95,-50169.015,-14717.925,-19842.344999999998,5035.23,-61987.814999999995,-8.90945005267613,0.03202917228433671,6.6994046961910465,0.24467037717318413,-0.537514661496459,-1.180176126748703,4.3416837939334,-10.262246411244774,-0.1489254,-0.82604769,0.57580419,-1.38866,6.790699999999999,-16.41976,72.0
1774822107.885542,0.006210803985595703,2026-03-29T22:08:27.885,2026-03-29T18:08:27.885,-32357.925,-49118.49,-84883.815,-50173.695,-14724.135,-19848.69,5034.96,-61975.215,-10.226686901669094,-5.444924870640963,4.010115780839422,-0.8721009603969825,-5.408136611552064,-6.019160425216061,3.2477688829714872,-10.019219497411758,-0.1489254,-0.82604769,0.57580419,-1.38866,6.790699999999999,-16.41976,72.0
1774822107.8855755,3.361701965332031e-05,2026-03-29T22:08:27.885,2026-03-29T18:08:27.885,-32357.114999999998,-49125.96,-84891.735,-50157.18,-14700.42,-19828.844999999998,5041.125,-61970.939999999995,-6.817703959034994,-8.457141690632413,-0.5526648975645776,-1.7491136706960382,-7.94602322099719,-8.150370240313794,0.6331804858171781,-5.183991229030115,-0.1489254,-0.82604769,0.57580419,-1.38866,6.790699999999999,-16.41976,72.0
1774822107.8856084,3.2901763916015625e-05,2026-03-29T22:08:27.885,2026-03-29T18:08:27.885,-32354.01,-49129.695,-84900.735,-50145.255,-14685.345,-19816.155,5042.429999999999,-61963.695,-0.07912442649951065,-7.552702530913272,-4.836919714307543,-1.8432333861414343,-6.850828815609835,-6.425747737165502,-2.4421963002373754,2.238123620690224,-0.1489254,-0.82604769,0.57580419,-1.38866,6.790699999999999,-16.41976,72.0
1774822107.885625,1.6450881958007812e-05,2026-03-29T22:08:27.885,2026-03-29T18:08:27.885,-32354.684999999998,-49127.354999999996,-84895.65,-50153.939999999995,-14691.195,-19819.89,5039.19,-61962.479999999996,6.951029611532122,-3.1066576287255647,-6.817940463122013,-0.9541615507577549,-2.489889572263118,-1.5237002543893434,-4.62831159261542,8.93607621506618,-0.1489254,-0.82604769,0.57580419,-1.38866,6.790699999999999,-16.41976,72.0
1774822107.8954587,0.009833812713623047,2026-03-29T22:08:27.895,2026-03-29T18:08:27.895,-32366.34,-49138.244999999995,-84900.645,-50165.955,-14693.67,-19804.454999999998,5041.98,-61972.11,10.969819055275702,2.8290431380966643,-5.568142253282292,0.608054138336583,3.2023570531563,4.303596882887105,-4.8814106240984945,11.779853874451431,-0.1489254,-0.82604769,0.57580419,-1.38866,6.790699999999999,-16.41976,72.0
1774822107.8954935,3.4809112548828125e-05,2026-03-29T22:08:27.895,2026-03-29T18:08:27.895,-32353.379999999997,-49133.52,-84901.23,-50165.369999999995,-14694.57,-19809.495,5042.115,-61960.005,9.975122297526305,7.477540209018314,-1.7025742675290425,2.11615089775504,7.582560034798927,8.265183276596279,-2.964831890862452,9.300357408687377,-0.1489254,-0.82604769,0.57580419,-1.38866,6.790699999999999,-16.41976,72.0
1774822107.8955245,3.0994415283203125e-05,2026-03-29T22:08:27.895,2026-03-29T18:08:27.895,-32345.82,-49132.979999999996,-84905.955,-50174.369999999995,-14711.76,-19838.07,5037.705,-61948.395,4.272154993456538,8.64719054047261,2.9191762792794465,2.762459538785383,8.534316613469628,8.373346672511346,0.38760527771218334,2.4550635815757134,-0.143737425,-0.8336160300000001,0.582823215,1.2971,7.49266,-17.50322,72.0
1774822107.895537,1.239776611328125e-05,2026-03-29T22:08:27.895,2026-03-29T18:08:27.895,-32348.879999999997,-49140.45,-84912.03,-50173.515,-14714.144999999999,-19840.454999999998,5037.345,-61948.17,-3.5890810381535636,5.776449305074587,6.091571237678491,2.0843465411100164,5.499956860393803,4.444457149410077,3.7457905848954747,-5.721947267265867,-0.143737425,-0.8336160300000001,0.582823215,1.2971,7.49266,-17.50322,72.0
1774822107.8990698,0.003532886505126953,2026-03-29T22:08:27.899,2026-03-29T18:08:27.899,-32348.655,-49141.979999999996,-84905.595,-50142.195,-14692.23,-19830.059999999998,5033.5199999999995,-61950.869999999995,-9.956751881349634,0.20964198946775603,6.325028598833017,0.25601893176960233,-0.19961640108463888,-1.7479699108650935,5.595994127825301,-11.469835241650776,-0.143737425,-0.8336160300000001,0.582823215,1.2971,7.49266,-17.50322,72.0
1774822107.899082,1.2159347534179688e-05,2026-03-29T22:08:27.899,2026-03-29T18:08:27.899,-32367.42,-49139.1,-84901.41,-50131.619999999995,-14678.865,-19820.34,5035.995,-61979.085,-11.787311985556354,-5.434953221179098,3.554458903173114,-1.926999497271877,-5.938536276808167,-7.274852592438699,5.027812216863071,-12.04813576299562,-0.143737425,-0.8336160300000001,0.582823215,1.2971,7.49266,-17.50322,72.0
1774822107.90317,0.004088163375854492,2026-03-29T22:08:27.903,2026-03-29T18:08:27.903,-32361.975,-49133.115,-84888.54,-50135.58,-14686.154999999999,-19827.09,5033.474999999999,-61977.015,-8.115698124468596,-8.506816889933567,-0.8474155218465454,-3.3954644999457657,-9.005683392548017,-9.445905440991123,2.181114693408177,-7.061556390727329,-0.143737425,-0.8336160300000001,0.582823215,1.2971,7.49266,-17.50322,72.0
1774822107.9031873,1.71661376953125e-05,2026-03-29T22:08:27.903,2026-03-29T18:08:27.903,-32351.715,-49145.04,-84915.315,-50174.1,-14721.975,-19847.34,5028.48,-61956.045,-0.5684047993275249,-7.581022587615383,-4.751551163417066,-3.3340487486620916,-7.899555996924981,-7.128914236443166,-1.7661864460849088,1.2860929568631279,-0.143737425,-0.8336160300000001,0.582823215,1.2971,7.49266,-17.50322,72.0
1774822107.9077635,0.004576206207275391,2026-03-29T22:08:27.907,2026-03-29T18:08:27.907,-32329.754999999997,-49134.645,-84921.345,-50196.15,-14742.9,-19863.18,5027.58,-61930.89,7.354807137512633,-3.1288303561303334,-6.308995782249135,-1.6265128597303757,-3.0729540191079954,-1.3418478006673151,-5.086160086412398,9.165198602313827,-0.143737425,-0.8336160300000001,0.582823215,1.2971,7.49266,-17.50322,72.0
1774822107.907782,1.8596649169921875e-05,2026-03-29T22:08:27.907,2026-03-29T18:08:27.907,-32322.195,-49134.15,-84924.495,-50195.25,-14733.0,-19861.469999999998,5012.55,-61924.095,11.914779662925044,2.7194604198517682,-4.833496083291349,1.0228240302564215,3.2469005027853175,5.193520926412694,-6.261670452996368,12.891626345311588,-0.143737425,-0.8336160300000001,0.582823215,1.2971,7.49266,-17.50322,72.0
1774822107.9110756,0.0032935142517089844,2026-03-29T22:08:27.911,2026-03-29T18:08:27.911,-32333.805,-49125.42,-84910.995,-50169.645,-14698.845,-19836.315,5011.875,-61941.645,10.914506099314147,7.2013760331281675,-1.104880095731723,3.380805872032652,8.095430207150535,9.342260759433543,-4.682511661099229,10.669963299727868,-0.143737425,-0.8336160300000001,0.582823215,1.2971,7.49266,-17.50322,72.0
1774822107.9110887,1.3113021850585938e-05,2026-03-29T22:08:27.911,2026-03-29T18:08:27.911,-32322.105,-49116.689999999995,-84923.86499999999,-50202.27,-14735.564999999999,-19870.695,5012.955,-61922.924999999996,4.771632115579779,8.240386646711151,3.041564269498876,4.269584908951738,9.178133022082587,9.074638686313655,-0.9560185297560031,3.4742878402214203,-0.143737425,-0.8336160300000001,0.582823215,1.2971,7.49266,-17.50322,72.0
1774822107.9159427,0.004853963851928711,2026-03-29T22:08:27.915,2026-03-29T18:08:27.915,-32366.114999999998,-49120.695,-84898.575,-50177.88,-14717.475,-19858.094999999998,5050.665,-61984.845,-3.64797164817992,5.419953450876137,5.623595934311442,3.1617882344837245,5.972286632691806,4.469817622681061,3.323459260517478,-5.3725147210461905,-0.138244275,-0.83910918,0.588560505,6.958559999999999,9.918999999999999,-18.510379999999998,72.0
1774822107.915958,1.52587890625e-05,2026-03-29T22:08:27.915,2026-03-29T18:08:27.915,-32374.664999999997,-49126.32,-84882.105,-50159.52,-14704.064999999999,-19857.059999999998,5063.76,-61996.005,-10.373935333116727,0.15062690990383099,5.465367656659287,0.4824165925651007,-0.013898523314603605,-2.296944560017145,6.2597038382611805,-11.742613869008778,-0.138244275,-0.83910918,0.588560505,6.958559999999999,9.918999999999999,-18.510379999999998,72.0
1774822107.9190507,0.0030927658081054688,2026-03-29T22:08:27.919,2026-03-29T18:08:27.919,-32385.195,-49154.174999999996,-84911.44499999999,-50209.92,-14755.769999999999,-19904.579999999998,5027.58,-61990.965,-12.219124475471846,-5.037282578953118,2.733516661244043,-2.552287261888783,-5.9567901019894025,-7.991166218799006,6.498088540287907,-12.648366197990944,-0.138244275,-0.83910918,0.588560505,6.958559999999999,9.918999999999999,-18.510379999999998,72.0
1774822107.9190786,2.7894973754882812e-05,2026-03-29T22:08:27.919,2026-03-29T18:08:27.919,-32404.5,-49184.909999999996,-84948.20999999999,-50253.119999999995,-14811.795,-19955.34,4987.98,-62003.115,-8.306462173753744,-7.719822715579428,-1.1890820199250567,-4.499536304813371,-9.065705994057335,-9.881977395312404,3.850567906255063,-7.66297602474855,-0.138244275,-0.83910918,0.588560505,6.958559999999999,9.918999999999999,-18.510379999999998,72.0
1774822107.9242065,0.005127906799316406,2026-03-29T22:08:27.924,2026-03-29T18:08:27.924,-32396.355,-49183.65,-84952.935,-50232.06,-14794.65,-19930.5,4985.099999999999,-61998.255,-0.4956076369581094,-6.724834948907782,-4.407458885691525,-4.390293084702662,-7.912630594341794,-7.068043145261047,-0.5859220484479161,0.867942236185525,-0.138244275,-0.83910918,0.588560505,6.958559999999999,9.918999999999999,-18.510379999999998,72.0
1774822107.9242177,1.1205673217773438e-05,2026-03-29T22:08:27.924,2026-03-29T18:08:27.924,-32368.14,-49142.295,-84896.86499999999,-50143.994999999995,-14699.564999999999,-19829.745,5007.599999999999,-62002.215,7.50246683290965,-2.649077420848645,-5.435611960356103,-2.218495996515478,-3.1004161468733034,-0.9149541061302385,-4.884523394621129,8.933243691282739,-0.138244275,-0.83910918,0.588560505,6.958559999999999,9.918999999999999,-18.510379999999998,72.0
1774822107.9313312,0.007113456726074219,2026-03-29T22:08:27.931,2026-03-29T18:08:27.931,-32321.745,-49096.215,-84845.87999999999,-50098.905,-14651.1,-19778.579999999998,5041.08,-61960.14,11.900441918052866,2.48378231616471,-3.8834173612484295,1.0313385568375772,3.0494490468042157,5.612213373772447,-7.127396382527043,12.757337676339898,-0.138244275,-0.83910918,0.588560505,6.958559999999999,9.918999999999999,-18.510379999999998,72.0
1774822107.931352,2.0742416381835938e-05,2026-03-29T22:08:27.931,2026-03-29T18:08:27.931,-32316.254999999997,-49088.34,-84834.765,-50092.47,-14643.81,-19773.225,5060.5199999999995,-61926.165,10.644306269091597,6.233813856045762,-0.5910615423166654,3.8424548883959373,7.629101687129012,9.393086488847908,-6.2622140006133336,10.586982348301103,-0.138244275,-0.83910918,0.588560505,6.958559999999999,9.918999999999999,-18.510379999999998,72.0
1774822107.93747,0.006118059158325195,2026-03-29T22:08:27.937,2026-03-29T18:08:27.937,-32345.504999999997,-49099.68,-84861.315,-50116.049999999996,-14659.019999999999,-19783.665,5055.12,-61956.945,4.385165744849322,6.916410284471164,2.8265174716024233,4.891251093979319,8.53868606586079,8.662483186489991,-2.593678494762868,3.5088657072448615,-0.138244275,-0.83910918,0.588560505,6.958559999999999,9.918999999999999,-18.510379999999998,72.0
1774822107.9374912,2.1219253540039062e-05,2026-03-29T22:08:27.937,2026-03-29T18:08:27.937,-32351.355,-49118.04,-84889.215,-50151.33,-14689.755,-19808.145,5056.47,-61962.659999999996,-3.852520156888325,4.36645738377389,4.77778185352984,3.6846689297466364,5.464998017733897,3.8471527335016047,2.317993478405578,-5.089841456082421,-0.138244275,-0.83910918,0.588560505,6.958559999999999,9.918999999999999,-18.510379999999998,72.0
1774822107.937512,2.0742416381835938e-05,2026-03-29T22:08:27.937,2026-03-29T18:08:27.937,-32342.805,-49118.715,-84884.44499999999,-50156.595,-14697.09,-19813.364999999998,5057.505,-61948.395,-10.139182000465048,-0.055335626608342986,4.437634817073537,0.7959095165275714,-0.019476795901644833,-2.67405065763701,6.320353111027722,-11.151607380355504,-0.136169085,-0.83410431,0.588438435,4.41014,7.73682,-22.14226,72.0
1774822107.9375196,7.62939453125e-06,2026-03-29T22:08:27.937,2026-03-29T18:08:27.937,-32346.225,-49119.795,-84889.575,-50162.31,-14703.75,-19825.875,5047.605,-61956.945,-11.528436697025413,-4.183784553627015,2.0872403194053524,-2.41626219114877,-5.2633098201854605,-7.755173619024615,7.611785644722074,-11.879920299641345,-0.136169085,-0.83410431,0.588438435,4.41014,7.73682,-22.14226,72.0
1774822107.9396236,0.002104043960571289,2026-03-29T22:08:27.939,2026-03-29T18:08:27.939,-32336.73,-49119.165,-84895.56,-50166.314999999995,-14708.519999999999,-19835.01,5038.335,-61954.02,-7.4511738373288905,-6.117327396656392,-1.084094662972773,-4.463518526103033,-7.833467745692749,-9.018448785199475,5.551650431173109,-7.044281674050979,-0.136169085,-0.83410431,0.588438435,4.41014,7.73682,-22.14226,72.0
1774822107.9396455,2.193450927734375e-05,2026-03-29T22:08:27.939,2026-03-29T18:08:27.939,-32315.625,-49114.71,-84896.64,-50167.799999999996,-14709.24,-19837.35,5038.83,-61941.42,0.05060098328133009,-5.1019385760522775,-3.5860686993468534,-4.434817462582148,-6.661090203053442,-5.982285378861946,0.9742609464698335,0.957411416794342,-0.136169085,-0.83410431,0.588438435,4.41014,7.73682,-22.14226,72.0
1774822107.94312,0.0034744739532470703,2026-03-29T22:08:27.943,2026-03-29T18:08:27.943,-32332.86,-49126.229999999996,-84894.93,-50165.46,-14709.33,-19837.62,5031.315,-61934.715,7.346655581407588,-1.8158996964655474,-4.331076080822442,-2.4102756576712756,-2.487972970924687,-0.2395140195269849,-4.145035009232064,8.289393526585963,-0.136169085,-0.83410431,0.588438435,4.41014,7.73682,-22.14226,72.0
1774822107.9431415,2.1457672119140625e-05,2026-03-29T22:08:27.943,2026-03-29T18:08:27.943,-32330.114999999998,-49114.08,-84892.77,-50167.439999999995,-14714.64,-19845.63,5009.085,-61931.25,10.985053716738488,2.046672047534633,-3.1004404416905156,0.6100939596945523,2.5737605340411718,5.377007612686115,-7.539776206374348,11.52894276056283,-0.136169085,-0.83410431,0.588438435,4.41014,7.73682,-22.14226,72.0
1774822107.9495652,0.0064237117767333984,2026-03-29T22:08:27.949,2026-03-29T18:08:27.949,-32313.914999999997,-49114.89,-84899.655,-50174.685,-14723.1,-19853.864999999998,4981.005,-61927.515,9.337593230631207,4.649450011634069,-0.5771152855971378,3.212029592656417,6.116781221620567,8.204342303691504,-7.654139954252142,9.278223947204683,-0.136169085,-0.83410431,0.588438435,4.41014,7.73682,-22.14226,72.0
1774822107.9496033,3.814697265625e-05,2026-03-29T22:08:27.949,2026-03-29T18:08:27.949,-32355.855,-49118.715,-84881.25,-50149.08,-14697.09,-19827.63,4983.705,-61983.854999999996,3.3337208045740456,4.893448082261682,2.033087365623852,4.2462342151801895,6.597954685541081,7.027081688544795,-4.355241838717067,2.7710005454261517,-0.136169085,-0.83410431,0.588438435,4.41014,7.73682,-22.14226,72.0
1774822107.9496405,3.719329833984375e-05,2026-03-29T22:08:27.949,2026-03-29T18:08:27.949,-32371.92,-49119.75,-84874.23,-50139.674999999996,-14687.369999999999,-19815.93,5014.125,-62003.43,-4.050508380988563,2.8777710595503043,3.5819901425135043,3.3470243551459755,4.016597203224128,2.602340197357737,0.9690671265064055,-4.790903649313939,-0.136169085,-0.83410431,0.588438435,4.41014,7.73682,-22.14226,72.0
1774822107.9496596,1.9073486328125e-05,2026-03-29T22:08:27.949,2026-03-29T18:08:27.949,-32348.385,-49111.29,-84867.525,-50137.875,-14688.81,-19815.524999999998,5062.05,-61964.685,-9.27208500451821,-0.24976145175076792,3.479799062045179,1.050986512660798,-0.1895646524606906,-2.795800881833431,5.988226645806208,-9.818836601355486,-0.136169085,-0.83410431,0.588438435,4.41014,7.73682,-22.14226,72.0
1774822107.9556036,0.005944013595581055,2026-03-29T22:08:27.955,2026-03-29T18:08:27.955,-32341.14,-49113.0,-84872.43,-50140.125,-14689.845,-19818.765,5083.74,-61952.265,-9.931006792854465,-2.9316242846920684,1.9003787568723145,-1.5159386149407459,-3.932356932021312,-6.548430009473144,8.44512812481637,-10.051927787761992,-0.134948385,-0.830259105,0.583311495,2.92992,7.76734,-23.02734,72.0
1774822107.955624,2.0503997802734375e-05,2026-03-29T22:08:27.955,2026-03-29T18:08:27.955,-32349.69,-49123.17,-84882.23999999999,-50136.479999999996,-14690.295,-19831.184999999998,5065.514999999999,-61963.695,-5.88014575986872,-3.978531159599463,-0.3676130332057526,-3.2031296344726163,-5.517352414954223,-6.974068922820102,7.169836309850727,-5.5799440541720955,-0.134948385,-0.830259105,0.583311495,2.92992,7.76734,-23.02734,72.0
1774822107.959795,0.004170894622802734,2026-03-29T22:08:27.959,2026-03-29T18:08:27.959,-32349.69,-49134.42,-84903.165,-50153.22,-14703.705,-19839.329999999998,5056.38,-61955.774999999994,0.781631377241508,-3.0961209855037906,-2.3178212211691007,-3.362813558826018,-4.418116808818691,-4.087241199763202,2.6369350884743423,1.2914875187286485,-0.134948385,-0.830259105,0.583311495,2.92992,7.76734,-23.02734,72.0
1774822107.9598184,2.3365020751953125e-05,2026-03-29T22:08:27.959,2026-03-29T18:08:27.959,-32346.675,-49146.479999999996,-84924.81,-50175.405,-14716.619999999999,-19841.13,5050.3949999999995,-61945.92,6.793811962226968,-0.9273992378239945,-3.1701310050088933,-2.0928201600861525,-1.423094623675962,0.5114957465457055,-3.1985251760489772,7.226191246368961,-0.134948385,-0.830259105,0.583311495,2.92992,7.76734,-23.02734,72.0
1774822107.9636543,0.003835916519165039,2026-03-29T22:08:27.963,2026-03-29T18:08:27.963,-32332.905,-49140.09,-84925.215,-50178.689999999995,-14721.345,-19844.505,5046.885,-61932.6,9.336656657845024,1.3618708268904174,-2.6673862442964698,-0.10724580725448765,1.8666543850661228,4.5117625220919315,-7.737046375755747,9.48461498120088,-0.134948385,-0.830259105,0.583311495,2.92992,7.76734,-23.02734,72.0
1774822107.9636705,1.621246337890625e-05,2026-03-29T22:08:27.963,2026-03-29T18:08:27.963,-32338.71,-49128.165,-84904.245,-50169.42,-14711.265,-19836.0,5048.6849999999995,-61944.57,7.360651084450647,2.70368782610065,-1.1218623858013466,1.6628131736919187,3.8874337262833993,6.0597102060427215,-8.889110403169136,7.19524046507759,-0.134948385,-0.830259105,0.583311495,2.92992,7.76734,-23.02734,72.0
1774822107.9672809,0.003610372543334961,2026-03-29T22:08:27.967,2026-03-29T18:08:27.967,-32369.85,-49131.945,-84889.34999999999,-50151.015,-14697.63,-19828.215,5053.635,-61986.104999999996,2.012621271461152,2.6257739087965395,0.7713032383578129,2.515864805531127,3.860732128055988,4.622178223332477,-6.037670026249153,1.6767397026388178,-0.134948385,-0.830259105,0.583311495,2.92992,7.76734,-23.02734,72.0
1774822107.9673092,2.8371810913085938e-05,2026-03-29T22:08:27.967,2026-03-29T18:08:27.967,-32362.605,-49144.68,-84913.2,-50162.939999999995,-14716.17,-19854.27,5041.215,-61973.954999999994,-4.01052982406713,1.394572832697402,2.245078775260986,2.2548460078533843,2.078554264174809,1.1429057343595852,-0.3657391603540995,-4.299746822884641,-0.134948385,-0.830259105,0.583311495,2.92992,7.76734,-23.02734,72.0
1774822107.9800026,0.012693405151367188,2026-03-29T22:08:27.980,2026-03-29T18:08:27.980,-32344.425,-49146.345,-84925.08,-50172.03,-14729.445,-19872.719999999998,5016.69,-61948.799999999996,-7.823430598943963,-0.2243330981553881,2.757984347149192,1.1843856277582256,-0.36938915444549353,-2.5361956312079674,5.6230945816063755,-7.90330039461133,-0.134948385,-0.830259105,0.583311495,2.92992,7.76734,-23.02734,72.0
1774822107.9800217,1.9073486328125e-05,2026-03-29T22:08:27.980,2026-03-29T18:08:27.980,-32323.949999999997,-49127.49,-84903.61499999999,-50179.005,-14736.644999999999,-19864.079999999998,5023.8,-61926.704999999994,-7.740645395619352,-1.4182102099436822,2.171231839233758,-0.12231442409838691,-2.231240631953437,-4.647345306545041,9.20303966900718,-7.589870587612222,-0.134948385,-0.830259105,0.583311495,2.92992,7.76734,-23.02734,72.0
1774822107.980065,4.3392181396484375e-05,2026-03-29T22:08:27.980,2026-03-29T18:08:27.980,-32339.024999999998,-49130.28,-84903.84,-50154.84,-14704.965,-19831.14,5057.955,-61943.534999999996,-4.020669161195878,-1.7328722524207716,0.7625601742063148,-1.1316655118937442,-2.730592832423791,-4.3495628107278606,8.66518409889618,-3.759372032525963,-0.128844885,-0.819150735,0.57958836,-2.0448399999999998,6.31764,-24.82802,72.0
1774822107.9800727,7.62939453125e-06,2026-03-29T22:08:27.980,2026-03-29T18:08:27.980,-32352.93,-49116.645,-84879.62999999999,-50140.89,-14682.285,-19824.57,5056.0199999999995,-61968.555,1.3623309879435923,-1.2300351837831225,-0.9034741349104805,-1.5662855526508266,-1.881445666022238,-2.047953036743558,4.135239271689576,1.5538154585715607,-0.128844885,-0.819150735,0.57958836,-2.0448399999999998,6.31764,-24.82802,72.0
1774822107.9800818,9.059906005859375e-06,2026-03-29T22:08:27.980,2026-03-29T18:08:27.980,-32332.364999999998,-49100.759999999995,-84873.105,-50163.435,-14702.715,-19842.21,5046.705,-61951.229999999996,5.75941555441328,-0.35155643413639404,-2.18913576440834,-1.4426746843912428,-0.35762523935548357,0.9323514421646323,-2.421854474906406,5.752267456742793,-0.128844885,-0.819150735,0.57958836,-2.0448399999999998,6.31764,-24.82802,72.0
1774822107.9800887,6.9141387939453125e-06,2026-03-29T22:08:27.980,2026-03-29T18:08:27.980,-32323.815,-49114.439999999995,-84892.31999999999,-50177.97,-14718.6,-19849.364999999998,5034.825,-61935.615,7.154258974380856,0.391016142580374,-2.608469799569726,-0.9569350882099267,0.9592994578132589,3.094259363442459,-8.044215481695938,6.947893035479012,-0.128844885,-0.819150735,0.57958836,-2.0448399999999998,6.31764,-24.82802,72.0
1774822107.9832213,0.0031325817108154297,2026-03-29T22:08:27.983,2026-03-29T18:08:27.983,-32334.434999999998,-49129.515,-84901.275,-50151.06,-14696.01,-19822.454999999998,5030.73,-61943.265,5.08986306157869,0.703718329255311,-1.9970055277753285,-0.3251124323221912,1.4729688881202574,3.521639009761911,-10.106451465412766,4.810559333934386,-0.128844885,-0.819150735,0.57958836,-2.0448399999999998,6.31764,-24.82802,72.0
1774822107.983234,1.2636184692382812e-05,2026-03-29T22:08:27.983,2026-03-29T18:08:27.983,-32354.145,-49142.07,-84904.47,-50124.509999999995,-14673.869999999999,-19802.295,5035.59,-61962.57,0.787694494273235,0.6164767041725748,-0.5761711588824427,0.3126025887241151,1.1356433250399032,2.2568998777875953,-7.546328834520065,0.6119700223931461,-0.128844885,-0.819150735,0.57958836,-2.0448399999999998,6.31764,-24.82802,72.0
1774822107.987913,0.004678964614868164,2026-03-29T22:08:27.987,2026-03-29T18:08:27.987,-32360.309999999998,-49120.65,-84874.095,-50142.24,-14689.8,-19816.29,5043.87,-61978.68,-3.5503303764541827,0.37618700755989765,1.1128719273108092,0.8810703941524596,0.3686264124034284,0.15313894018906513,-1.4113943788215684,-3.5017873890119886,-0.128844885,-0.819150735,0.57958836,-2.0448399999999998,6.31764,-24.82802,72.0
1774822107.987963,5.0067901611328125e-05,2026-03-29T22:08:27.987,2026-03-29T18:08:27.987,-32354.37,-49109.22,-84868.065,-50155.784999999996,-14703.705,-19835.28,5047.245,-61980.255,-5.86750564704182,0.22536116171916265,2.3964845460549773,1.2959358009217943,-0.2692878756016148,-1.6625261768017936,5.555207635659982,-5.6034894339479004,-0.128844885,-0.819150735,0.57958836,-2.0448399999999998,6.31764,-24.82802,72.0
1774822107.9927824,0.004819393157958984,2026-03-29T22:08:27.992,2026-03-29T18:08:27.992,-32339.204999999998,-49112.325,-84878.055,-50157.045,-14705.82,-19839.015,5051.07,-61956.72,-5.230761191917924,0.22439884292399365,2.724832522277931,1.4154994177663662,-0.4408330112687485,-2.3905424466409233,10.134057660791115,-4.888293828786309,-0.128844885,-0.819150735,0.57958836,-2.0448399999999998,6.31764,-24.82802,72.0
1774822107.9928043,2.193450927734375e-05,2026-03-29T22:08:27.992,2026-03-29T18:08:27.992,-32350.004999999997,-49122.54,-84886.37999999999,-50160.555,-14705.865,-19829.79,5052.15,-61966.619999999995,-2.1949554095011523,0.2326907381754313,1.9076061172712926,1.084837578726701,-0.19994947435975802,-1.9045255341289988,10.115559901618928,-1.9637997215731404,-0.128844885,-0.819150735,0.57958836,-2.0448399999999998,6.31764,-24.82802,72.0
1774822107.99699,0.004185676574707031,2026-03-29T22:08:27.996,2026-03-29T18:08:27.996,-32353.469999999998,-49126.185,-84885.93,-50150.88,-14698.215,-19821.105,5044.41,-61972.155,1.5824863144369756,0.050884397985915694,0.22812770576509914,0.26158678382222805,0.11057902868610846,-0.6943621223011215,5.367560781727093,1.566599383438393,-0.12524382,-0.81335241,0.575376945,0.8698199999999999,6.91278,-26.613439999999997,72.0
1774822107.9970076,1.7642974853515625e-05,2026-03-29T22:08:27.997,2026-03-29T18:08:27.997,-32342.67,-49118.4,-84874.5,-50139.72,-14691.375,-19812.51,5045.67,-61960.905,4.2344133691258135,-0.38324229482320604,-1.6333743150146927,-0.8638254650558274,0.1426776858675775,0.5045630817361544,-2.0320371676122164,3.96735151591413,-0.12524382,-0.81335241,0.575376945,0.8698199999999999,6.91278,-26.613439999999997,72.0
1774822108.0013075,0.00429987907409668,2026-03-29T22:08:28.001,2026-03-29T18:08:28.001,-32342.219999999998,-49121.369999999995,-84883.72499999999,-50151.689999999995,-14703.39,-19831.86,5041.889999999999,-61959.42,4.6083477771724635,-0.8905668411919554,-2.8627422824424182,-1.8615305523426888,-0.1906699605086086,1.146622034739634,-8.695197575860277,4.2222209373026995,-0.12524382,-0.81335241,0.575376945,0.8698199999999999,6.91278,-26.613439999999997,72.0
1774822108.0013275,2.002716064453125e-05,2026-03-29T22:08:28.001,2026-03-29T18:08:28.001,-32342.94,-49127.445,-84900.23999999999,-50171.22,-14726.564999999999,-19865.204999999998,5027.58,-61961.49,2.7643447442697777,-1.1250833797035624,-2.8673624607837724,-2.220452217431486,-0.6443280671720232,1.12282160595587,-11.471305396537979,2.4567583967027478,-0.12524382,-0.81335241,0.575376945,0.8698199999999999,6.91278,-26.613439999999997,72.0
1774822108.0045528,0.0032253265380859375,2026-03-29T22:08:28.004,2026-03-29T18:08:28.004,-32342.625,-49129.47,-84907.665,-50181.57,-14731.785,-19871.64,5023.9349999999995,-61959.465,-0.1668406896787943,-0.795583635167393,-1.5694184932821207,-1.6172446088051118,-0.8117059109233921,0.7078826765925365,-8.937046643865925,-0.2391732841307756,-0.12524382,-0.81335241,0.575376945,0.8698199999999999,6.91278,-26.613439999999997,72.0
1774822108.0045764,2.3603439331054688e-05,2026-03-29T22:08:28.004,2026-03-29T18:08:28.004,-32351.489999999998,-49133.07,-84908.7,-50186.61,-14733.314999999999,-19864.844999999998,5016.42,-61967.204999999994,-2.6434521484113542,0.10170359619728539,0.5117354281955863,-0.15204007479052634,-0.4244709996150159,0.28784183092919563,-2.123634325073641,-2.4475887864333514,-0.12524382,-0.81335241,0.575376945,0.8698199999999999,6.91278,-26.613439999999997,72.0
1774822108.0077147,0.003138303756713867,2026-03-29T22:08:28.007,2026-03-29T18:08:28.007,-32341.59,-49126.455,-84905.145,-50181.975,-14731.74,-19863.989999999998,5018.13,-61962.479999999996,-3.517766295480215,1.1992189923389867,2.453694647278252,1.6048849029397019,0.4193746714272809,0.0731688703707919,5.889330470077895,-3.1587997545090603,-0.12524382,-0.81335241,0.575376945,0.8698199999999999,6.91278,-26.613439999999997,72.0
1774822108.0077431,2.8371810913085938e-05,2026-03-29T22:08:28.007,2026-03-29T18:08:28.007,-32308.289999999997,-49100.445,-84872.97,-50143.185,-14704.875,-19842.165,5038.514999999999,-61928.505,-2.56887409713363,1.904587304318859,3.3378280260965703,2.8259198145839446,1.2607261047031553,-0.010391683309808249,11.361079430014033,-2.2295618514976727,-0.12524382,-0.81335241,0.575376945,0.8698199999999999,6.91278,-26.613439999999997,72.0
1774822108.0130863,0.005343198776245117,2026-03-29T22:08:28.013,2026-03-29T18:08:28.013,-32313.329999999998,-49094.729999999996,-84854.745,-50119.424999999996,-14676.48,-19811.024999999998,5045.849999999999,-61932.42,-0.5158972177052469,1.7211147397213096,2.6905370056374824,2.8248835101324627,1.5355725005420113,-0.19514714265406669,11.635225806176164,-0.35728571218912886,-0.12524382,-0.81335241,0.575376945,0.8698199999999999,6.91278,-26.613439999999997,72.0
1774822108.0131178,3.147125244140625e-05,2026-03-29T22:08:28.013,2026-03-29T18:08:28.013,-32330.879999999997,-49102.155,-84861.855,-50129.775,-14677.965,-19805.625,5043.96,-61953.884999999995,1.4508164779827373,0.5684878423535092,0.7436527326993818,1.445794429522494,0.9374629129540724,-0.6164308484253818,6.428962747836438,1.371572231974896,-0.12524382,-0.81335241,0.575376945,0.8698199999999999,6.91278,-26.613439999999997,72.0
1774822108.0155864,0.002468585968017578,2026-03-29T22:08:28.015,2026-03-29T18:08:28.015,-32344.785,-49108.005,-84867.705,-50136.975,-14677.605,-19796.895,5041.53,-61973.415,2.3371636103485036,-1.093051245430999,-1.631643006524338,-0.7788184786172051,-0.33876604255048887,-1.1266991230963423,-1.9601899267856064,2.0873740170423853,-0.12274138500000001,-0.81335241,0.57140967,2.79258,6.7143999999999995,-32.68692,72.0
1774822108.0156028,1.6450881958007812e-05,2026-03-29T22:08:28.015,2026-03-29T18:08:28.015,-32339.114999999998,-49107.104999999996,-84869.28,-50145.479999999996,-14696.01,-19819.215,5025.6449999999995,-61966.485,1.8459755053425504,-2.4380094909013255,-3.3110510456256024,-2.8203396756716774,-1.6413834931580813,-1.3322442402911123,-9.663085729817851,1.5686906736719402,-0.12274138500000001,-0.81335241,0.57140967,2.79258,6.7143999999999995,-32.68692,72.0
1774822108.0194244,0.0038216114044189453,2026-03-29T22:08:28.019,2026-03-29T18:08:28.019,-32329.89,-49109.174999999996,-84879.94499999999,-50147.415,-14701.814999999999,-19829.61,5039.46,-61950.78,0.4599388505181329,-2.688263702930961,-3.454204713584658,-3.6360741582480665,-2.1986320754764326,-0.8544771544818713,-13.022883232829649,0.2881533411127556,-0.12274138500000001,-0.81335241,0.57140967,2.79258,6.7143999999999995,-32.68692,72.0
1774822108.0194585,3.409385681152344e-05,2026-03-29T22:08:28.019,2026-03-29T18:08:28.019,-32340.824999999997,-49125.869999999995,-84898.70999999999,-50159.564999999995,-14708.34,-19831.41,5049.135,-61957.17,-0.9046646432139599,-1.5550849434452565,-1.9333945250337026,-2.7119982783713086,-1.5720319236614781,0.3454960504733579,-10.331503069715165,-0.9188338316994402,-0.12274138500000001,-0.81335241,0.57140967,2.79258,6.7143999999999995,-32.68692,72.0
1774822108.0353813,0.01592278480529785,2026-03-29T22:08:28.035,2026-03-29T18:08:28.035,-32350.68,-49137.795,-84907.44,-50175.18,-14717.025,-19834.245,5053.275,-61962.659999999996,-1.4535235185700501,0.5373585402036647,0.5685534582661513,-0.3797590693800052,0.03741582341415683,1.8079595301136653,-2.693089497775163,-1.354212334738749,-0.12274138500000001,-0.81335241,0.57140967,2.79258,6.7143999999999995,-32.68692,72.0
1774822108.0354133,3.1948089599609375e-05,2026-03-29T22:08:28.035,2026-03-29T18:08:28.035,-32347.079999999998,-49131.18,-84897.98999999999,-50168.744999999995,-14711.984999999999,-19832.535,5046.66,-61969.229999999996,-0.9589220773136942,2.5971604033013898,2.85991349826935,2.2834629097956185,1.8294519622498489,2.7303849405155907,6.420635736985649,-0.8415116161545831,-0.12274138500000001,-0.81335241,0.57140967,2.79258,6.7143999999999995,-32.68692,72.0
1774822108.0354366,2.3365020751953125e-05,2026-03-29T22:08:28.035,2026-03-29T18:08:28.035,-32346.629999999997,-49133.97,-84895.83,-50166.18,-14712.119999999999,-19833.795,5046.21,-61961.534999999996,0.14858863461393124,3.537074904352559,3.8105326412680878,3.9550567052003696,2.802379239647068,2.3978615857786707,12.748862306250833,0.21006746632616513,-0.12274138500000001,-0.81335241,0.57140967,2.79258,6.7143999999999995,-32.68692,72.0
1774822108.0354466,1.0013580322265625e-05,2026-03-29T22:08:28.035,2026-03-29T18:08:28.035,-32357.475,-49135.59,-84896.145,-50164.47,-14711.805,-19835.954999999998,5047.65,-61965.27,1.0762968706392675,2.747470674518408,2.916330878588921,3.7334399509141023,2.3099816480893485,0.6600557798149396,13.235868418762239,1.0798366729433544,-0.12274138500000001,-0.81335241,0.57140967,2.79258,6.7143999999999995,-32.68692,72.0
1774822108.038731,0.003284454345703125,2026-03-29T22:08:28.038,2026-03-29T18:08:28.038,-32353.605,-49141.215,-84907.665,-50162.174999999996,-14713.064999999999,-19843.29,5044.365,-61961.939999999995,1.1690822399541247,0.4677559622594529,0.5722728115834225,1.6307141980984168,0.4690795139613871,-1.8411752453972947,7.505865409583915,1.1788772242005512,-0.12274138500000001,-0.81335241,0.57140967,2.79258,6.7143999999999995,-32.68692,72.0
1774822108.0387409,9.775161743164062e-06,2026-03-29T22:08:28.038,2026-03-29T18:08:28.038,-32337.045,-49144.77,-84925.305,-50171.265,-14719.859999999999,-19852.605,5033.97,-61943.354999999996,0.3180836023618512,-2.261660279543522,-2.0962459983615545,-1.37962555871052,-1.830309296631321,-3.8811064686496715,-1.8938964869372654,0.4054707823675974,-0.12274138500000001,-0.81335241,0.57140967,2.79258,6.7143999999999995,-32.68692,72.0
1774822108.0387504,9.5367431640625e-06,2026-03-29T22:08:28.038,2026-03-29T18:08:28.038,-32301.945,-49126.545,-84917.295,-50191.47,-14738.939999999999,-19868.265,5023.17,-61912.755,-0.9601883592563378,-4.075896351989326,-3.7748330886962957,-3.812304802941223,-3.352665155541953,-4.247931556215906,-10.626804888565912,-0.788465813565239,-0.12011688,-0.809873415,0.568174815,4.89846,5.00528,-38.48572,72.0
1774822108.0387547,4.291534423828125e-06,2026-03-29T22:08:28.038,2026-03-29T18:08:28.038,-32301.809999999998,-49120.784999999996,-84905.50499999999,-50196.375,-14744.925,-19871.28,5019.21,-61921.665,-1.8230490740890948,-3.970967804098133,-3.6129272557110803,-4.409702910371802,-3.1772012038230484,-2.4355752847636047,-14.572286338962163,-1.656177919941562,-0.12011688,-0.809873415,0.568174815,4.89846,5.00528,-38.48572,72.0
1774822108.0387607,5.9604644775390625e-06,2026-03-29T22:08:28.038,2026-03-29T18:08:28.038,-32352.344999999998,-49129.74,-84886.29,-50168.88,-14715.359999999999,-19845.18,5031.99,-61961.13,-1.6106979195151017,-1.85184877015243,-1.660796007226065,-2.799557397122156,-1.2384166783317743,0.9538612270491358,-11.772965522047958,-1.5939498217259824,-0.12011688,-0.809873415,0.568174815,4.89846,5.00528,-38.48572,72.0
1774822108.0387647,4.0531158447265625e-06,2026-03-29T22:08:28.038,2026-03-29T18:08:28.038,-32357.565,-49116.555,-84873.23999999999,-50152.005,-14701.5,-19838.745,5026.635,-61968.06,-0.2725585707068605,1.3534207454300518,1.1367150667797319,0.2762218173864709,1.5641258797975444,4.3695875839426686,-3.401360992905,-0.5112149059986563,-0.12011688,-0.809873415,0.568174815,4.89846,5.00528,-38.48572,72.0
1774822108.0432081,0.00444340705871582,2026-03-29T22:08:28.043,2026-03-29T18:08:28.043,-32342.625,-49109.13,-84868.785,-50144.445,-14690.97,-19821.42,5043.42,-61960.725,1.5429178659903429,4.101014804099798,3.397581945359798,3.2998071892812946,3.7801816362841887,6.019799390101098,6.730273401298129,1.0790975934189295,-0.12011688,-0.809873415,0.568174815,4.89846,5.00528,-38.48572,72.0
1774822108.0432377,2.956390380859375e-05,2026-03-29T22:08:28.043,2026-03-29T18:08:28.043,-32345.64,-49118.534999999996,-84889.665,-50160.78,-14704.83,-19832.13,5051.5199999999995,-61964.055,2.8060689083860875,4.980498774040487,3.989358053313853,4.72994435719675,4.157140395971747,4.80448190201255,13.91285463962946,2.3107829719027912,-0.12011688,-0.809873415,0.568174815,4.89846,5.00528,-38.48572,72.0
1774822108.0512807,0.008043050765991211,2026-03-29T22:08:28.051,2026-03-29T18:08:28.051,-32372.954999999998,-49125.284999999996,-84882.69,-50149.755,-14696.595,-19833.885,5054.849999999999,-62003.024999999994,2.6738384804476487,3.439136808202141,2.60167811949592,3.793336621963995,2.335788870880927,0.9889610285460324,14.735972232022295,2.429584165484735,-0.12011688,-0.809873415,0.568174815,4.89846,5.00528,-38.48572,72.0
1774822108.0513046,2.384185791015625e-05,2026-03-29T22:08:28.051,2026-03-29T18:08:28.051,-32368.995,-49133.564999999995,-84896.055,-50165.415,-14713.965,-19849.545,5032.3949999999995,-61996.994999999995,1.0003530736587973,0.10858576936822564,-0.08769029919478417,0.9056254777008053,-0.8889358023458968,-3.775763791731517,8.708751179921384,1.2261021978929096,-0.12011688,-0.809873415,0.568174815,4.89846,5.00528,-38.48572,72.0
1774822108.0513256,2.09808349609375e-05,2026-03-29T22:08:28.051,2026-03-29T18:08:28.051,-32365.215,-49137.705,-84904.37999999999,-50169.24,-14717.88,-19852.515,5010.795,-61994.924999999996,-1.5025952077418263,-3.452325138052049,-2.7435025285800645,-2.5081368001890496,-3.911682866133525,-7.165209240556379,-1.4657012472377944,-0.8022143540615084,-0.12011688,-0.809873415,0.568174815,4.89846,5.00528,-38.48572,72.0
1774822108.0513337,8.106231689453125e-06,2026-03-29T22:08:28.051,2026-03-29T18:08:28.051,-32366.655,-49140.494999999995,-84905.145,-50160.33,-14710.32,-19847.655,4998.33,-61998.704999999994,-3.571342033632596,-5.494739328027265,-4.039099368415288,-4.71840109709795,-5.117595793471606,-7.319492188748073,-11.110139953513817,-2.6620031849636243,-0.12011688,-0.809873415,0.568174815,4.89846,5.00528,-38.48572,72.0
1774822108.0560863,0.004752635955810547,2026-03-29T22:08:28.056,2026-03-29T18:08:28.056,-32357.114999999998,-49125.96,-84882.42,-50146.064999999995,-14695.38,-19826.37,5001.48,-61990.155,-4.029217863963611,-4.944290043325809,-3.3237968005668472,-4.571238943762953,-3.7388900969185173,-3.846730002485887,-15.733408213463054,-3.355062404737747,-0.11315889,-0.802915425,0.5684189550000001,4.56274,4.7458599999999995,-41.5835,72.0
1774822108.056113,2.6702880859375e-05,2026-03-29T22:08:28.056,2026-03-29T18:08:28.056,-32332.32,-49102.47,-84858.345,-50135.58,-14677.83,-19793.43,5043.15,-61963.875,-2.4349755805954536,-1.9625407891521565,-0.9533323188109744,-2.0933694672819336,-0.31405322892737303,1.8444680818358021,-13.128457256994688,-2.4047532490986634,-0.11315889,-0.802915425,0.5684189550000001,4.56274,4.7458599999999995,-41.5835,72.0
1774822108.060008,0.0038950443267822266,2026-03-29T22:08:28.060,2026-03-29T18:08:28.060,-32326.199999999997,-49108.634999999995,-84876.39,-50156.235,-14697.494999999999,-19812.645,5068.9349999999995,-61945.38,0.6089560023823967,2.0870542877979275,1.8863261872860835,1.4965624260623267,3.5153707538805805,7.110111836919589,-4.4245805899009865,-0.14383374800846124,-0.11315889,-0.802915425,0.5684189550000001,4.56274,4.7458599999999995,-41.5835,72.0
1774822108.0600438,3.5762786865234375e-05,2026-03-29T22:08:28.060,2026-03-29T18:08:28.060,-32338.574999999997,-49127.759999999995,-84900.105,-50177.384999999995,-14723.73,-19847.43,5051.79,-61952.715,3.6785979189333067,5.2709592537722765,3.7748790067312026,4.38892535812384,5.797799395578695,9.310028640869556,6.407770004707376,2.3982592266489005,-0.11315889,-0.802915425,0.5684189550000001,4.56274,4.7458599999999995,-41.5835,72.0
1774822108.063507,0.003463268280029297,2026-03-29T22:08:28.063,2026-03-29T18:08:28.063,-32338.305,-49126.994999999995,-84901.59,-50166.494999999995,-14723.82,-19859.805,5046.255,-61956.045,5.20171605943033,6.018179435882679,3.772513793505347,5.0986748391876135,5.267725770428444,7.134212574780766,14.379914655811872,3.971636056291231,-0.11315889,-0.802915425,0.5684189550000001,4.56274,4.7458599999999995,-41.5835,72.0
1774822108.0635345,2.7418136596679688e-05,2026-03-29T22:08:28.063,2026-03-29T18:08:28.063,-32343.48,-49129.244999999995,-84898.70999999999,-50157.18,-14717.34,-19859.94,5043.33,-61961.31,4.260593695708998,3.8991625726876524,1.8915689384343628,3.230085075027775,2.034698092899313,1.3473224402856738,15.793260959488032,3.72173052411123,-0.11315889,-0.802915425,0.5684189550000001,4.56274,4.7458599999999995,-41.5835,72.0
1774822108.067848,0.004313468933105469,2026-03-29T22:08:28.067,2026-03-29T18:08:28.067,-32343.93,-49118.895,-84877.245,-50159.295,-14712.57,-19851.344999999998,5036.67,-61967.655,1.1153476632044261,-0.13730393407269423,-0.9137435308751323,-0.30477768608510225,-2.4059865739976622,-5.460471387346699,9.959729819204673,1.6408215021220158,-0.11315889,-0.802915425,0.5684189550000001,4.56274,4.7458599999999995,-41.5835,72.0
1774822108.0678768,2.8848648071289062e-05,2026-03-29T22:08:28.067,2026-03-29T18:08:28.067,-32331.105,-49110.659999999996,-84872.61,-50160.915,-14714.144999999999,-19853.684999999998,5021.82,-61964.009999999995,-2.840454053317364,-4.196564740223655,-3.2331361262818095,-3.7338004470473862,-5.874207941916794,-10.04684012166673,-0.46836928576391085,-1.3783296002576515,-0.11315889,-0.802915425,0.5684189550000001,4.56274,4.7458599999999995,-41.5835,72.0
1774822108.071438,0.003561258316040039,2026-03-29T22:08:28.071,2026-03-29T18:08:28.071,-32344.829999999998,-49133.52,-84885.84,-50161.86,-14719.05,-19865.969999999998,5001.705,-61974.09,-5.704368701796302,-6.339042099208892,-3.9134256385264425,-5.317636487737386,-6.584279344461805,-10.075967626274432,-10.715340116608928,-3.9313156656712773,-0.11315889,-0.802915425,0.5684189550000001,4.56274,4.7458599999999995,-41.5835,72.0
1774822108.0714593,2.1219253540039062e-05,2026-03-29T22:08:28.071,2026-03-29T18:08:28.071,-32379.524999999998,-49154.13,-84889.125,-50153.04,-14707.125,-19859.94,4994.235,-61986.555,-5.986422939841665,-5.51567398899568,-2.6363940544563143,-4.235265361638643,-4.063491120478078,-5.30554553603722,-16.082559817236753,-4.760847690455199,-0.11315889,-0.802915425,0.5684189550000001,4.56274,4.7458599999999995,-41.5835,72.0
1774822108.075637,0.00417780876159668,2026-03-29T22:08:28.075,2026-03-29T18:08:28.075,-32367.824999999997,-49129.965,-84879.45,-50141.295,-14688.945,-19840.5,4975.605,-61992.72,-3.378197641431938,-2.0824764879762165,-0.06952442406185003,-1.0093180479330695,0.563169018575473,2.2013765974383572,-14.112345709147224,-3.374035224395056,-0.11114473500000001,-0.80798133,0.565245135,0.4578,2.8230999999999997,-44.864399999999996,72.0
1774822108.0756557,1.8596649169921875e-05,2026-03-29T22:08:28.075,2026-03-29T18:08:28.075,-32320.35,-49086.045,-84855.23999999999,-50123.295,-14665.68,-19806.795,4997.429999999999,-61973.415,1.0248988936844707,2.358824179893827,2.4828580630474626,2.749571256730496,5.084953566539435,8.982147021359868,-5.714268427738279,-0.31616525987968047,-0.11114473500000001,-0.80798133,0.565245135,0.4578,2.8230999999999997,-44.864399999999996,72.0
1774822108.0794792,0.003823518753051758,2026-03-29T22:08:28.079,2026-03-29T18:08:28.079,-32309.55,-49083.84,-84846.51,-50111.64,-14647.32,-19770.57,5057.6849999999995,-61948.665,5.186816389815814,5.71998811765389,3.745771254635616,5.1529624677408625,7.276153352152103,11.793187917910442,5.262826019735696,3.044438592554407,-0.11114473500000001,-0.80798133,0.565245135,0.4578,2.8230999999999997,-44.864399999999996,72.0
1774822108.0795276,4.839897155761719e-05,2026-03-29T22:08:28.079,2026-03-29T18:08:28.079,-32323.14,-49098.375,-84859.02,-50129.82,-14669.055,-19789.245,5056.38,-61956.494999999995,7.081901174573194,6.4198467081781025,3.115289765610346,4.98888394329777,6.000152916886892,9.17420319527201,13.80820674726775,5.134584720538237,-0.11114473500000001,-0.80798133,0.565245135,0.4578,2.8230999999999997,-44.864399999999996,72.0
1774822108.0836732,0.004145622253417969,2026-03-29T22:08:28.083,2026-03-29T18:08:28.083,-32331.285,-49112.145,-84873.465,-50148.765,-14696.46,-19822.545,5050.62,-61955.505,5.685205357797238,4.134017032157189,0.950543112876506,2.335035006112491,1.7946566510038562,2.196923907809418,16.049144675886396,4.915349238448689,-0.11114473500000001,-0.80798133,0.565245135,0.4578,2.8230999999999997,-44.864399999999996,72.0
1774822108.0836957,2.2411346435546875e-05,2026-03-29T22:08:28.083,2026-03-29T18:08:28.083,-32343.84,-49129.515,-84887.64,-50161.14,-14714.01,-19843.649999999998,5055.615,-61955.729999999996,1.5160738871799728,-0.057536688120225686,-1.6267873755585374,-1.4807604629342912,-3.3621761800606227,-5.982571352049604,11.011858106838972,2.39396782552504,-0.11114473500000001,-0.80798133,0.565245135,0.4578,2.8230999999999997,-44.864399999999996,72.0
1774822108.0875664,0.003870725631713867,2026-03-29T22:08:28.087,2026-03-29T18:08:28.087,-32352.074999999997,-49135.455,-84887.81999999999,-50151.555,-14703.525,-19834.2,5062.41,-61964.865,-3.549112123101771,-4.190855330327865,-3.3151940414695695,-4.551804599065113,-6.999233112784384,-11.575876438002519,1.0401247927852117,-1.341532801072828,-0.11114473500000001,-0.80798133,0.565245135,0.4578,2.8230999999999997,-44.864399999999996,72.0
1774822108.0875888,2.2411346435546875e-05,2026-03-29T22:08:28.087,2026-03-29T18:08:28.087,-32348.204999999998,-49127.49,-84886.965,-50162.174999999996,-14709.779999999999,-19836.0,5070.87,-61964.505,-7.130436002072546,-6.350912991790583,-3.2949284867415267,-5.353174229221075,-7.351850983640061,-11.938691819777338,-9.30600898498765,-4.595756673845027,-0.11114473500000001,-0.80798133,0.565245135,0.4578,2.8230999999999997,-44.864399999999996,72.0
