unix_time_s,dt_s,UTC,LOCAL,EMG1_Raw,EMG2_Raw,EMG3_Raw,EMG4_Raw,EMG5_Raw,EMG6_Raw,EMG7_Raw,EMG8_Raw,EMG1_Filtered,EMG2_Filtered,EMG3_Filtered,EMG4_Filtered,EMG5_Filtered,EMG6_Filtered,EMG7_Filtered,EMG8_Filtered,Accel1_Raw,Accel2_Raw,Accel3_Raw,Gyro1_Raw,Gyro2_Raw,Gyro3_Raw,Battery
1774823193.93141,,2026-03-29T22:26:33.931,2026-03-29T18:26:33.931,-30029.985,-42867.945,-81368.19,-50124.645,-10773.539999999999,-17530.695,6014.655,-61093.799999999996,-2.041572599185959,-0.33513101923545596,0.4010625298885749,1.3342020704079873,0.9131518742442463,0.820445286974417,-1.3235900873843776,-0.3482256759530546,-0.110534385,-0.9956029200000001,-0.17285112,3.11304,1.49548,0.28994,69.0
1774823193.9314237,1.3589859008789062e-05,2026-03-29T22:26:33.931,2026-03-29T18:26:33.931,-30066.524999999998,-42903.9,-81414.0,-50143.095,-10771.695,-17516.385,6065.775,-61115.265,-8.939099552050456,-17.47944631105703,-19.226360635092917,-12.39785346276998,-10.982321805921027,-9.16604964909124,-5.159033128581342,-1.5901996939974572,-0.110534385,-0.9956029200000001,-0.17285112,3.11304,1.49548,0.28994,69.0
1774823193.9403183,0.008894681930541992,2026-03-29T22:26:33.940,2026-03-29T18:26:33.940,-30088.71,-42923.475,-81430.29,-50152.095,-10778.895,-17520.345,6136.469999999999,-61111.755,-11.533482411950514,-26.651655634531128,-30.301858219210626,-20.773133167858248,-18.164807611106216,-15.371302970490449,-7.461700535972681,-1.8157585949266217,-0.12072723,-0.981503835,-0.17529252,-2.09062,-0.8698199999999999,-1.7549,69.0
1774823193.9403331,1.4781951904296875e-05,2026-03-29T22:26:33.940,2026-03-29T18:26:33.940,-30084.164999999997,-42907.77,-81413.595,-50158.259999999995,-10792.215,-17532.675,6150.599999999999,-61095.329999999994,-8.477432971703738,-23.60563242796696,-27.75947373210994,-20.076938095139933,-17.466596598911508,-15.069138798203644,-7.377730743207054,-0.8771372106553431,-0.12072723,-0.981503835,-0.17529252,-2.09062,-0.8698199999999999,-1.7549,69.0
1774823193.9403467,1.3589859008789062e-05,2026-03-29T22:26:33.940,2026-03-29T18:26:33.940,-30073.815,-42894.945,-81405.045,-50153.354999999996,-10785.869999999999,-17527.005,6149.79,-61082.505,-1.2149972200601955,-9.742218926655504,-12.697312556872207,-10.57450526902826,-9.150737731261303,-8.284268375039886,-4.65036844672528,0.6618731004708368,-0.12072723,-0.981503835,-0.17529252,-2.09062,-0.8698199999999999,-1.7549,69.0
1774823193.9403512,4.5299530029296875e-06,2026-03-29T22:26:33.940,2026-03-29T18:26:33.940,-30069.225,-42896.52,-81419.67,-50171.354999999996,-10806.164999999999,-17546.67,6102.135,-61089.165,6.715329529957628,8.542789211040585,8.100772582763316,3.5878103659027105,3.1861270933443424,2.1690118754363894,0.14172792644960683,1.8625287332651763,-0.12072723,-0.981503835,-0.17529252,-2.09062,-0.8698199999999999,-1.7549,69.0
1774823193.9496517,0.009300470352172852,2026-03-29T22:26:33.949,2026-03-29T18:26:33.949,-30079.17,-42918.299999999996,-81447.435,-50198.805,-10827.404999999999,-17560.575,6075.179999999999,-61104.6,11.425083870839089,22.834201049595254,25.243008608462596,16.199203305321454,14.173782077408628,11.847237860839481,5.536644799703432,1.9714370162691888,-0.12072723,-0.981503835,-0.17529252,-2.09062,-0.8698199999999999,-1.7549,69.0
1774823193.949677,2.5272369384765625e-05,2026-03-29T22:26:33.949,2026-03-29T18:26:33.949,-30032.46,-42849.945,-81367.605,-50131.125,-10761.84,-17505.18,6127.335,-61068.195,10.598663059737115,26.60080983442529,31.000622333920088,21.720317549104717,19.01344620488714,16.563651481775487,9.502681739465626,0.8760511294893994,-0.12072723,-0.981503835,-0.17529252,-2.09062,-0.8698199999999999,-1.7549,69.0
1774823193.949702,2.5033950805664062e-05,2026-03-29T22:26:33.949,2026-03-29T18:26:33.949,-30035.204999999998,-42808.365,-81309.78,-50083.02,-10715.355,-17466.57,6164.82,-61059.645,4.635815249700605,18.20215998668071,22.81637442338958,17.72853452234818,15.581400141514267,14.202074351139634,10.14509746871988,-0.8134223766515173,-0.12072723,-0.981503835,-0.17529252,-2.09062,-0.8698199999999999,-1.7549,69.0
1774823193.9497116,9.5367431640625e-06,2026-03-29T22:26:33.949,2026-03-29T18:26:33.949,-30075.93,-42835.14,-81329.08499999999,-50097.645,-10727.279999999999,-17472.915,6159.15,-61095.645,-3.5525711219634157,1.604586930545662,4.44737743453888,5.98824085199837,5.366128232967587,5.672490031613905,6.596768186041846,-2.1088003637226707,-0.12072723,-0.981503835,-0.17529252,-2.09062,-0.8698199999999999,-1.7549,69.0
1774823193.9547448,0.005033254623413086,2026-03-29T22:26:33.954,2026-03-29T18:26:33.954,-30070.89,-42902.46,-81409.86,-50167.89,-10797.885,-17533.125,6139.889999999999,-61085.61,-9.987082833735071,-15.506421948130425,-15.771596180595495,-8.330034926675829,-7.17700515446231,-5.426168080280997,-0.32073908342787927,-2.2201340422363014,-0.12072723,-0.981503835,-0.17529252,-2.09062,-0.8698199999999999,-1.7549,69.0
1774823193.9547656,2.0742416381835938e-05,2026-03-29T22:26:33.954,2026-03-29T18:26:33.954,-30045.555,-42911.235,-81432.45,-50186.295,-10818.0,-17555.94,6115.275,-61077.42,-11.576554385380579,-25.31252735014073,-28.73622080318412,-18.936121111444095,-16.574584726117372,-14.31967208198171,-8.093176174582169,-1.0299403085024916,-0.12072723,-0.981503835,-0.17529252,-2.09062,-0.8698199999999999,-1.7549,69.0
1774823193.9547868,2.1219253540039062e-05,2026-03-29T22:26:33.954,2026-03-29T18:26:33.954,-30055.094999999998,-42895.755,-81399.69,-50148.09,-10782.945,-17528.489999999998,6102.764999999999,-61081.064999999995,-7.616377175755532,-23.461482428955343,-28.700524244408395,-21.197753742203084,-18.73338101958282,-17.115847039401977,-13.35194038962104,0.8149088364390438,-0.120299985,-0.967465785,-0.172179735,-9.72062,-4.0439,-3.2045999999999997,69.0
1774823193.9547944,7.62939453125e-06,2026-03-29T22:26:33.954,2026-03-29T18:26:33.954,-30059.954999999998,-42887.159999999996,-81382.545,-50127.119999999995,-10764.72,-17516.7,6096.33,-61088.759999999995,-0.09554470039894128,-11.010062003101831,-15.840364848897664,-14.17686445658111,-12.733342055415214,-12.518255503711538,-13.322714360345774,2.257434493059613,-0.120299985,-0.967465785,-0.172179735,-9.72062,-4.0439,-3.2045999999999997,69.0
1774823193.9600685,0.005274057388305664,2026-03-29T22:26:33.960,2026-03-29T18:26:33.960,-30067.289999999997,-42878.88,-81367.73999999999,-50116.905,-10756.215,-17507.295,6091.469999999999,-61084.845,7.318944772668722,6.1612305185481855,3.8986459448315722,-1.023649403998827,-1.2253619764359722,-2.4368762553150813,-7.266736746179237,2.436633036863214,-0.120299985,-0.967465785,-0.172179735,-9.72062,-4.0439,-3.2045999999999997,69.0
1774823193.960101,3.24249267578125e-05,2026-03-29T22:26:33.960,2026-03-29T18:26:33.960,-30074.94,-42878.115,-81374.58,-50136.255,-10773.494999999999,-17525.79,6090.4349999999995,-61076.07,11.09525460652354,20.143814800540266,21.566550543382675,12.43993847299298,10.741319705789524,8.796796422983407,2.827821478046101,1.1994161881241814,-0.120299985,-0.967465785,-0.172179735,-9.72062,-4.0439,-3.2045999999999997,69.0
1774823193.962097,0.0019960403442382812,2026-03-29T22:26:33.962,2026-03-29T18:26:33.962,-30059.55,-42865.92,-81372.42,-50135.04,-10766.97,-17520.57,6114.375,-61080.39,9.539896290610322,24.669488962162067,29.294062040092324,20.309523388438016,17.943508451988357,16.293368248903217,12.790547429732337,-0.7829952844784566,-0.120299985,-0.967465785,-0.172179735,-9.72062,-4.0439,-3.2045999999999997,69.0
1774823193.962119,2.2172927856445312e-05,2026-03-29T22:26:33.962,2026-03-29T18:26:33.962,-30037.05,-42853.365,-81368.50499999999,-50133.24,-10768.77,-17520.21,6101.6849999999995,-61086.869999999995,3.559972854429254,17.93830119843828,23.82058391056715,19.20380356327058,17.2768108251682,16.74581711409815,17.973498844436225,-2.3755846196161734,-0.120299985,-0.967465785,-0.172179735,-9.72062,-4.0439,-3.2045999999999997,69.0
1774823193.966231,0.0041120052337646484,2026-03-29T22:26:33.966,2026-03-29T18:26:33.966,-30055.454999999998,-42876.494999999995,-81380.745,-50128.875,-10763.145,-17515.89,6104.79,-61087.229999999996,-3.8600526495803344,3.322198347966795,7.873264792875034,9.72933913202509,9.104562448510384,9.903970405747332,15.428889575734164,-2.624659663578045,-0.120299985,-0.967465785,-0.172179735,-9.72062,-4.0439,-3.2045999999999997,69.0
1774823193.966248,1.6927719116210938e-05,2026-03-29T22:26:33.966,2026-03-29T18:26:33.966,-30065.985,-42890.939999999995,-81396.36,-50142.465,-10779.029999999999,-17533.8,6079.995,-61093.215,-9.168711943695948,-12.323323607072002,-11.187293298796,-3.8356341574055617,-2.92857727602224,-1.2820842128958063,5.533303813015786,-1.3237407719110466,-0.120299985,-0.967465785,-0.172179735,-9.72062,-4.0439,-3.2045999999999997,69.0
1774823193.9698744,0.0036263465881347656,2026-03-29T22:26:33.969,2026-03-29T18:26:33.969,-30072.555,-42905.205,-81416.565,-50171.67,-10811.34,-17571.015,6019.335,-61083.674999999996,-9.972118912370057,-21.893958250098084,-24.783481001165704,-15.479385485771306,-13.527102615338146,-11.933615225584026,-7.819879348500699,0.8314029923285168,-0.120299985,-0.967465785,-0.172179735,-9.72062,-4.0439,-3.2045999999999997,69.0
1774823193.9699025,2.8133392333984375e-05,2026-03-29T22:26:33.969,2026-03-29T18:26:33.969,-30041.324999999997,-42892.29,-81415.89,-50179.5,-10818.225,-17580.195,5991.12,-61047.63,-6.124366178391448,-21.282634904545063,-27.004821612045973,-20.136313486420136,-18.087986376542275,-17.382891209299626,-18.720302402100423,2.6060031242021684,-0.120299985,-0.967465785,-0.172179735,-9.72062,-4.0439,-3.2045999999999997,69.0
1774823193.974234,0.0043315887451171875,2026-03-29T22:26:33.974,2026-03-29T18:26:33.974,-30009.87,-42881.805,-81409.95,-50177.115,-10811.475,-17572.41,6019.514999999999,-61008.479999999996,0.3179861850742621,-11.144844155812656,-17.190202822008374,-15.906892377136302,-14.714184841346043,-15.237169620727862,-21.872989926483832,2.920841618833684,-0.11877411,-0.95776122,-0.17028765,-15.45838,-4.13546,-4.36436,69.0
1774823193.9742558,2.1696090698242188e-05,2026-03-29T22:26:33.974,2026-03-29T18:26:33.974,-29992.59,-42861.195,-81390.645,-50171.265,-10806.84,-17569.53,6063.03,-60987.24,6.199155840007786,3.5760163173225874,-0.07454093130739703,-4.837615080498427,-5.010710991764477,-6.445276651850154,-15.181929719141783,1.49222128735597,-0.11877411,-0.95776122,-0.17028765,-15.45838,-4.13546,-4.36436,69.0
1774823193.9820125,0.007756710052490234,2026-03-29T22:26:33.982,2026-03-29T18:26:33.982,-30072.42,-42855.525,-81340.965,-50108.174999999996,-10742.715,-17499.42,6171.795,-61089.659999999996,8.832378527749713,16.06342617923015,16.497761135469883,8.06218946737998,6.674682863430141,5.1168943035390235,-1.0169098049086251,-0.9547884504288452,-0.11877411,-0.95776122,-0.17028765,-15.45838,-4.13546,-4.36436,69.0
1774823193.9820268,1.430511474609375e-05,2026-03-29T22:26:33.982,2026-03-29T18:26:33.982,-30078.539999999997,-42842.564999999995,-81313.92,-50067.81,-10710.63,-17472.465,6200.37,-61106.67,7.244422127759828,20.8006748989203,25.186741046122005,17.097085368136955,15.208875894132587,14.36399719871248,14.564448822738955,-3.0450463700096466,-0.11877411,-0.95776122,-0.17028765,-15.45838,-4.13546,-4.36436,69.0
1774823193.9820392,1.239776611328125e-05,2026-03-29T22:26:33.982,2026-03-29T18:26:33.982,-30094.289999999997,-42889.229999999996,-81355.14,-50097.104999999996,-10744.154999999999,-17505.315,6152.219999999999,-61088.985,2.51229768570962,16.017692693391364,22.42471491849427,18.416680980418892,16.943449344390913,17.256859695778594,24.421443358759305,-3.509272395784291,-0.11877411,-0.95776122,-0.17028765,-15.45838,-4.13546,-4.36436,69.0
1774823193.9820435,4.291534423828125e-06,2026-03-29T22:26:33.982,2026-03-29T18:26:33.982,-30121.155,-42932.744999999995,-81397.845,-50139.225,-10775.789999999999,-17519.265,6132.014999999999,-61098.795,-2.9097666874369397,4.322831182379225,9.87575360643493,11.668770760039768,11.286414442479042,12.586443004428753,23.63434363640725,-1.9269557862590978,-0.11877411,-0.95776122,-0.17028765,-15.45838,-4.13546,-4.36436,69.0
1774823193.9862287,0.004185199737548828,2026-03-29T22:26:33.986,2026-03-29T18:26:33.986,-30098.475,-42912.18,-81397.485,-50157.45,-10789.74,-17527.095,6097.545,-61096.77,-6.4718485281804785,-8.688087662296224,-6.5066893368825705,0.058874711847062756,0.8925557545967755,2.4883270719278534,11.962804692285188,0.9684799500230091,-0.11877411,-0.95776122,-0.17028765,-15.45838,-4.13546,-4.36436,69.0
1774823193.9863033,7.462501525878906e-05,2026-03-29T22:26:33.986,2026-03-29T18:26:33.986,-30104.55,-42903.36,-81414.54,-50157.765,-10780.65,-17523.675,6089.804999999999,-61085.655,-6.746136797637345,-17.114805689237663,-19.309554682630953,-11.169993764729105,-9.582828944783456,-8.536436155294,-5.773228190212186,3.6223593601642543,-0.11877411,-0.95776122,-0.17028765,-15.45838,-4.13546,-4.36436,69.0
1774823193.9902413,0.003937959671020508,2026-03-29T22:26:33.990,2026-03-29T18:26:33.990,-30113.684999999998,-42898.005,-81410.265,-50152.994999999995,-10776.24,-17526.78,6118.335,-61066.395,-3.9915290016554876,-17.438636979579293,-23.02933804129032,-17.116992717881317,-15.581356344933653,-15.644061774068954,-21.689321984581117,4.480925328835051,-0.11877411,-0.95776122,-0.17028765,-15.45838,-4.13546,-4.36436,69.0
1774823193.9902525,1.1205673217773438e-05,2026-03-29T22:26:33.990,2026-03-29T18:26:33.990,-30082.094999999998,-42885.405,-81392.94,-50148.54,-10774.935,-17523.855,6141.105,-61061.939999999995,0.15307653629729434,-9.984555793315124,-16.442811412535463,-15.376956370216654,-14.63935476730517,-15.797444976672413,-28.379945150233578,2.8714413758697868,-0.11877411,-0.95776122,-0.17028765,-15.45838,-4.13546,-4.36436,69.0
1774823194.0057895,0.015537023544311523,2026-03-29T22:26:34.005,2026-03-29T18:26:34.005,-30022.02,-42864.795,-81385.605,-50157.18,-10786.725,-17533.305,6113.969999999999,-61060.545,3.6126045000294638,1.443314286457151,-2.956565902211073,-7.014745396761124,-7.403651990769233,-9.077925233281935,-22.397917897043165,-0.5485557163274178,-0.123962085,-0.970273395,-0.17852737500000002,-18.83084,-5.58516,-0.42728,69.0
1774823194.0058093,1.9788742065429688e-05,2026-03-29T22:26:34.005,2026-03-29T18:26:34.005,-30037.094999999998,-42865.02,-81373.545,-50143.59,-10773.99,-17524.53,6099.48,-61063.604999999996,4.924981439274718,11.485953877778975,11.130733100231115,4.0350747753645315,2.7555794129975864,1.4144641559926783,-6.018320713821122,-4.050619744250279,-0.123962085,-0.970273395,-0.17852737500000002,-18.83084,-5.58516,-0.42728,69.0
1774823194.0058243,1.5020370483398438e-05,2026-03-29T22:26:34.005,2026-03-29T18:26:34.005,-30051.18,-42868.89,-81365.84999999999,-50120.865,-10753.92,-17507.655,6094.844999999999,-61065.494999999995,3.8614139064464443,15.746329823728503,19.575250928258587,12.820288069477083,11.31881160393847,11.000826398305689,13.612626239347701,-5.705801610069709,-0.123962085,-0.970273395,-0.17852737500000002,-18.83084,-5.58516,-0.42728,69.0
1774823194.0058312,6.9141387939453125e-06,2026-03-29T22:26:34.005,2026-03-29T18:26:34.005,-30054.015,-42879.284999999996,-81381.465,-50127.39,-10758.195,-17511.93,6093.224999999999,-61060.5,1.3544651495306352,12.71534715019836,18.962615292292867,15.602095869633425,14.640567794318889,15.529874172067418,27.632953835710936,-4.427337925002297,-0.123962085,-0.970273395,-0.17852737500000002,-18.83084,-5.58516,-0.42728,69.0
1774823194.0058393,8.106231689453125e-06,2026-03-29T22:26:34.005,2026-03-29T18:26:34.005,-30061.305,-42881.534999999996,-81389.16,-50131.439999999995,-10758.465,-17512.2,6118.29,-61045.604999999996,-1.1470835102796444,4.263979305095612,10.07450305746545,11.454637272280463,11.51023581666129,13.192888736103347,29.512910363448572,-0.6278134640100489,-0.123962085,-0.970273395,-0.17852737500000002,-18.83084,-5.58516,-0.42728,69.0
1774823194.005846,6.67572021484375e-06,2026-03-29T22:26:34.005,2026-03-29T18:26:34.005,-30084.3,-42876.72,-81370.215,-50110.784999999996,-10737.449999999999,-17487.45,6151.995,-61045.965,-2.492697730621652,-5.432644636322024,-2.691502563738881,2.5448617519551133,3.577718933261218,5.2449400652924005,18.12346001997395,3.8891634229215772,-0.123962085,-0.970273395,-0.17852737500000002,-18.83084,-5.58516,-0.42728,69.0
1774823194.007964,0.0021178722381591797,2026-03-29T22:26:34.007,2026-03-29T18:26:34.007,-30081.69,-42898.725,-81390.735,-50121.0,-10745.64,-17494.965,6129.99,-61056.18,-2.3647657896278615,-11.945797842766108,-13.48291620203961,-6.975111485599211,-5.497267426133504,-4.6549296942637985,-1.6302580256444539,6.7909969386063125,-0.123962085,-0.970273395,-0.17852737500000002,-18.83084,-5.58516,-0.42728,69.0
1774823194.0079772,1.33514404296875e-05,2026-03-29T22:26:34.007,2026-03-29T18:26:34.007,-30017.655,-42887.924999999996,-81406.98,-50150.025,-10778.895,-17532.809999999998,6074.37,-61035.93,-1.2833853677628584,-12.615928187638783,-17.677313372570293,-12.90522810579689,-11.739997517506032,-12.142462453867122,-20.952494144697692,6.415867653416448,-0.123962085,-0.970273395,-0.17852737500000002,-18.83084,-5.58516,-0.42728,69.0
1774823194.010835,0.002857685089111328,2026-03-29T22:26:34.010,2026-03-29T18:26:34.010,-30035.295,-42891.03,-81410.48999999999,-50168.43,-10797.705,-17552.835,6046.605,-61032.555,-0.14749397312175253,-7.624363325578433,-13.858583715496597,-12.858885158913937,-12.611431416336954,-14.090166436502425,-31.12553169745072,2.6931726858216125,-0.123962085,-0.970273395,-0.17852737500000002,-18.83084,-5.58516,-0.42728,69.0
1774823194.010853,1.811981201171875e-05,2026-03-29T22:26:34.010,2026-03-29T18:26:34.010,-30057.12,-42887.07,-81396.98999999999,-50154.165,-10777.095,-17527.815,6059.385,-61062.795,0.369692399219794,0.30937852079412836,-4.242344603447741,-7.219694196595901,-8.038974533754262,-9.919406432293316,-27.487671337792175,-2.715291857942754,-0.123962085,-0.970273395,-0.17852737500000002,-18.83084,-5.58516,-0.42728,69.0
1774823194.01409,0.003237009048461914,2026-03-29T22:26:34.014,2026-03-29T18:26:34.014,-30068.594999999998,-42897.06,-81404.235,-50167.439999999995,-10781.955,-17523.45,6091.92,-61073.46,0.20056841623827804,7.365920360960834,6.544061200043581,1.1876819640802299,-0.3099653097298865,-1.7291256421484815,-11.58373973604922,-7.167793044682666,-0.121398615,-0.9945653250000001,-0.181701195,-11.17032,-1.6022999999999998,2.24322,69.0
1774823194.014109,1.8835067749023438e-05,2026-03-29T22:26:34.014,2026-03-29T18:26:34.014,-30050.145,-42872.715,-81376.02,-50146.515,-10767.465,-17513.415,6120.135,-61037.954999999994,-0.16885967348399017,10.454744217441378,13.676495435040497,8.495787447140172,7.0625840315608635,6.757556180056707,9.511257853023539,-8.34212900686185,-0.121398615,-0.9945653250000001,-0.181701195,-11.17032,-1.6022999999999998,2.24322,69.0
1774823194.0185325,0.004423618316650391,2026-03-29T22:26:34.018,2026-03-29T18:26:34.018,-30025.44,-42860.025,-81368.595,-50145.435,-10780.605,-17537.355,6084.8099999999995,-61010.009999999995,-0.11672791570107807,8.56194972966076,14.287906210793807,11.575040881609613,10.942611494076363,11.90050793688729,26.389173422766074,-5.437361040811509,-0.121398615,-0.9945653250000001,-0.181701195,-11.17032,-1.6022999999999998,2.24322,69.0
1774823194.0185473,1.4781951904296875e-05,2026-03-29T22:26:34.018,2026-03-29T18:26:34.018,-30028.59,-42873.479999999996,-81378.54,-50147.729999999996,-10782.72,-17541.09,6079.32,-61014.104999999996,0.6180782742758051,3.0328912078816295,8.601628506965941,9.375790447235484,9.907789942783726,11.71333590892412,31.558111273397564,0.3420173122357118,-0.121398615,-0.9945653250000001,-0.181701195,-11.17032,-1.6022999999999998,2.24322,69.0
1774823194.025826,0.0072786808013916016,2026-03-29T22:26:34.025,2026-03-29T18:26:34.025,-30026.879999999997,-42872.265,-81376.155,-50136.795,-10762.515,-17514.09,6119.01,-61020.854999999996,1.688885681545659,-3.256261157145407,-0.3927475350821402,3.2556935361245527,4.749435153818441,6.615181777941549,22.7992375505391,6.294796415466135,-0.121398615,-0.9945653250000001,-0.181701195,-11.17032,-1.6022999999999998,2.24322,69.0
1774823194.0258486,2.2649765014648438e-05,2026-03-29T22:26:34.025,2026-03-29T18:26:34.025,-30030.93,-42871.095,-81369.98999999999,-50126.67,-10752.39,-17504.91,6145.965,-61020.63,2.3143051993831416,-7.363575165489535,-8.473203755724443,-3.791283484420365,-2.027843208552671,-0.9123096484705757,4.111856235713808,9.504372641032901,-0.121398615,-0.9945653250000001,-0.181701195,-11.17032,-1.6022999999999998,2.24322,69.0
1774823194.0258725,2.384185791015625e-05,2026-03-29T22:26:34.025,2026-03-29T18:26:34.025,-30052.8,-42900.885,-81400.00499999999,-50157.765,-10789.785,-17546.985,6085.125,-61027.74,1.7799835410435314,-7.6483355490098734,-12.15507821671541,-8.58635071441156,-7.416432711583723,-7.535776488005128,-16.151806356780323,8.27528885277746,-0.121398615,-0.9945653250000001,-0.181701195,-11.17032,-1.6022999999999998,2.24322,69.0
1774823194.0258875,1.5020370483398438e-05,2026-03-29T22:26:34.025,2026-03-29T18:26:34.025,-30082.725,-42911.369999999995,-81399.51,-50166.54,-10807.289999999999,-17570.655,5986.17,-61055.235,-0.03368239370396506,-4.4089757885104,-10.182695972837559,-9.198509652874172,-9.242609174407042,-10.55577793443402,-29.074187853066803,3.012810956126244,-0.121398615,-0.9945653250000001,-0.181701195,-11.17032,-1.6022999999999998,2.24322,69.0
1774823194.0334134,0.007525920867919922,2026-03-29T22:26:34.033,2026-03-29T18:26:34.033,-30075.434999999998,-42876.27,-81355.77,-50124.33,-10761.93,-17520.84,6031.125,-61054.649999999994,-2.435519812457668,0.44605838797975356,-3.9105210070338514,-5.713123051405159,-7.034618012912326,-9.00029308890991,-29.138789549399227,-3.905741406149565,-0.121398615,-0.9945653250000001,-0.181701195,-11.17032,-1.6022999999999998,2.24322,69.0
1774823194.0334415,2.8133392333984375e-05,2026-03-29T22:26:34.033,2026-03-29T18:26:34.033,-30070.079999999998,-42877.305,-81354.915,-50117.625,-10751.895,-17501.355,6118.0199999999995,-61048.395,-4.190397943592961,4.456636009645916,3.5120952666698138,-0.03584368847642546,-2.0802818403521814,-3.8869604962359454,-16.591088158542014,-9.228278843098991,-0.121398615,-0.9945653250000001,-0.181701195,-11.17032,-1.6022999999999998,2.24322,69.0
1774823194.0334816,4.00543212890625e-05,2026-03-29T22:26:34.033,2026-03-29T18:26:34.033,-30049.065,-42890.625,-81385.73999999999,-50146.695,-10777.32,-17520.345,6162.03,-61018.064999999995,-4.162485816390764,5.833366072339364,8.69383263096204,5.1096378509994995,3.2821445063095425,2.3830142317810705,2.818765615957642,-10.375773646273014,-0.122253105,-0.99682362,-0.18395949,-11.32292,-0.73248,5.66146,69.0
1774823194.0334916,1.0013580322265625e-05,2026-03-29T22:26:34.033,2026-03-29T18:26:34.033,-30049.515,-42899.4,-81405.18,-50162.58,-10792.664999999999,-17536.454999999998,6135.795,-61016.265,-1.9960633564868955,4.245816511137496,9.536583393890691,7.475745496720552,6.762410750063391,7.155799338161617,20.51731249107468,-6.694433637569087,-0.122253105,-0.99682362,-0.18395949,-11.32292,-0.73248,5.66146,69.0
1774823194.0423932,0.008901596069335938,2026-03-29T22:26:34.042,2026-03-29T18:26:34.042,-30036.78,-42881.895,-81388.935,-50140.979999999996,-10773.585,-17523.585,6120.495,-61004.88,1.5571338190461979,0.8342610631980022,6.06443783882227,6.266640117380741,7.091526352491681,8.645809109192674,28.941354043667157,0.1976930979614662,-0.122253105,-0.99682362,-0.18395949,-11.32292,-0.73248,5.66146,69.0
1774823194.0426457,0.0002524852752685547,2026-03-29T22:26:34.042,2026-03-29T18:26:34.042,-30046.094999999998,-42890.715,-81383.175,-50136.119999999995,-10766.34,-17518.005,6130.755,-60997.454999999994,4.888378083058556,-2.4951358760053766,0.2306375643726234,2.3750902660937414,4.458961905612882,6.574567573116165,24.787362137595412,7.145008237797983,-0.122253105,-0.99682362,-0.18395949,-11.32292,-0.73248,5.66146,69.0
1774823194.0426772,3.147125244140625e-05,2026-03-29T22:26:34.042,2026-03-29T18:26:34.042,-30049.515,-42894.585,-81375.25499999999,-50143.814999999995,-10766.654999999999,-17514.945,6143.175,-60984.63,6.281029577129969,-4.087696310817945,-5.127194590569571,-2.170184982298061,0.27849072770910865,2.116469733968603,10.272917616328415,10.924705538057545,-0.122253105,-0.99682362,-0.18395949,-11.32292,-0.73248,5.66146,69.0
1774823194.04269,1.2874603271484375e-05,2026-03-29T22:26:34.042,2026-03-29T18:26:34.042,-30040.92,-42911.595,-81409.31999999999,-50160.915,-10782.315,-17531.235,6115.86,-60986.88,4.799080937617767,-3.343376466515009,-7.64243231327998,-5.2314101120769845,-3.544916614370099,-2.7399854009043416,-8.051108476837339,9.755770497362494,-0.122253105,-0.99682362,-0.18395949,-11.32292,-0.73248,5.66146,69.0
1774823194.0476925,0.005002498626708984,2026-03-29T22:26:34.047,2026-03-29T18:26:34.047,-30050.91,-42921.36,-81433.575,-50157.134999999995,-10782.18,-17533.934999999998,6045.57,-61026.795,0.8532888792448969,-0.9230348578242354,-6.447646404267402,-5.553429108106748,-5.475454732436551,-6.076483268421203,-22.300148989362615,4.133354989361794,-0.122253105,-0.99682362,-0.18395949,-11.32292,-0.73248,5.66146,69.0
1774823194.0477152,2.2649765014648438e-05,2026-03-29T22:26:34.047,2026-03-29T18:26:34.047,-30064.094999999998,-42932.43,-81446.265,-50169.195,-10799.324999999999,-17551.35,6025.905,-61024.005,-3.878659730225414,1.7011772955924636,-2.4374204546324134,-3.2657719587791405,-4.94884955369493,-6.78260149563506,-26.67357871229614,-3.400248138813219,-0.122253105,-0.99682362,-0.18395949,-11.32292,-0.73248,5.66146,69.0
1774823194.058189,0.01047372817993164,2026-03-29T22:26:34.058,2026-03-29T18:26:34.058,-30100.59,-42920.189999999995,-81411.12,-50151.645,-10784.789999999999,-17541.855,6042.554999999999,-61041.104999999996,-7.184571681757313,3.0776356983272777,2.290468232027229,0.2984022908344763,-2.4889548008526745,-4.875137522367928,-19.797532904237816,-9.432168578979464,-0.122253105,-0.99682362,-0.18395949,-11.32292,-0.73248,5.66146,69.0
1774823194.0582087,1.9788742065429688e-05,2026-03-29T22:26:34.058,2026-03-29T18:26:34.058,-30100.23,-42896.205,-81376.73999999999,-50139.674999999996,-10770.93,-17522.28,6110.28,-61029.854999999996,-7.372643472323061,2.539562436574686,5.49484733980648,3.328891487789378,0.6506236838600183,-1.3405072307726333,-5.0583220533947415,-11.245618492908147,-0.122253105,-0.99682362,-0.18395949,-11.32292,-0.73248,5.66146,69.0
1774823194.058226,1.7404556274414062e-05,2026-03-29T22:26:34.058,2026-03-29T18:26:34.058,-30009.6,-42865.695,-81382.095,-50138.1,-10754.055,-17498.204999999998,6173.37,-60985.079999999994,-4.136223214682505,0.5121915793897057,5.829635598829883,4.430016038023459,3.105151418628845,2.3598576026143507,11.08415779024701,-8.047848990353913,-0.125304855,-0.9960912000000001,-0.18762159,-12.49794,-1.09872,5.508859999999999,69.0
1774823194.0582325,6.4373016357421875e-06,2026-03-29T22:26:34.058,2026-03-29T18:26:34.058,-29961.045,-42848.955,-81361.125,-50118.255,-10734.57,-17484.345,6156.585,-60957.494999999995,1.2131892716648907,-1.77261527373279,3.3896925527729054,3.2479869023754344,3.9794526736152953,4.878273276831428,21.954448029841117,-1.302792738113313,-0.125304855,-0.9960912000000001,-0.18762159,-12.49794,-1.09872,5.508859999999999,69.0
1774823194.058242,9.5367431640625e-06,2026-03-29T22:26:34.058,2026-03-29T18:26:34.058,-29992.32,-42878.34,-81377.09999999999,-50144.445,-10769.76,-17522.864999999998,6119.505,-60949.125,6.289982290468052,-2.9783269990332992,-0.44673294202315905,0.5591632103460333,3.1501847962759206,5.435512283116039,23.414092897901632,5.963212763188977,-0.125304855,-0.9960912000000001,-0.18762159,-12.49794,-1.09872,5.508859999999999,69.0
1774823194.0582483,6.198883056640625e-06,2026-03-29T22:26:34.058,2026-03-29T18:26:34.058,-30002.129999999997,-42888.195,-81415.935,-50190.84,-10814.265,-17563.635,6090.66,-60948.134999999995,8.722100592320766,-2.397831929580967,-3.753792006736502,-2.1844805118870996,1.2029014628275476,4.010995192815772,15.379854633091618,10.542083651696123,-0.125304855,-0.9960912000000001,-0.18762159,-12.49794,-1.09872,5.508859999999999,69.0
1774823194.0719492,0.01370096206665039,2026-03-29T22:26:34.071,2026-03-29T18:26:34.071,-30000.914999999997,-42888.24,-81420.84,-50194.619999999995,-10822.41,-17575.245,6076.485,-60941.61,7.274913584785687,-0.33170316579455483,-4.9931555968176875,-3.60201381530101,-0.9146814862567867,1.2574899245532252,1.5855729423176261,10.470475680696813,-0.125304855,-0.9960912000000001,-0.18762159,-12.49794,-1.09872,5.508859999999999,69.0
1774823194.0720863,0.00013709068298339844,2026-03-29T22:26:34.072,2026-03-29T18:26:34.072,-30023.235,-42888.645,-81394.83,-50163.57,-10800.27,-17557.335,6071.445,-60956.64,2.472068565706202,2.080969073646941,-3.706152582061879,-3.0508224389669687,-2.334626888125478,-1.7818634606611063,-12.1699415894323,5.863689137507441,-0.125304855,-0.9960912000000001,-0.18762159,-12.49794,-1.09872,5.508859999999999,69.0
1774823194.0721693,8.296966552734375e-05,2026-03-29T22:26:34.072,2026-03-29T18:26:34.072,-30025.89,-42845.895,-81341.955,-50114.43,-10754.369999999999,-17512.785,6094.035,-60976.079999999994,-3.5960961903567865,3.480826152383559,-0.6617943712976834,-0.9026232210464878,-2.607774061531998,-4.039417176092911,-20.458914977098456,-1.1919168422174973,-0.125304855,-0.9960912000000001,-0.18762159,-12.49794,-1.09872,5.508859999999999,69.0
1774823194.0722163,4.696846008300781e-05,2026-03-29T22:26:34.072,2026-03-29T18:26:34.072,-30028.23,-42841.17,-81334.89,-50107.994999999995,-10744.605,-17504.954999999998,6080.219999999999,-60999.345,-8.203385379424907,3.024486659277835,2.573136006451465,1.6826230328126284,-1.817323861479171,-4.762270648023163,-20.323772605246933,-7.604830548495569,-0.125304855,-0.9960912000000001,-0.18762159,-12.49794,-1.09872,5.508859999999999,69.0
1774823194.0734491,0.0012328624725341797,2026-03-29T22:26:34.073,2026-03-29T18:26:34.073,-30051.855,-42895.755,-81389.83499999999,-50156.729999999996,-10792.215,-17552.655,6059.61,-61000.11,-9.23269027538074,0.8502182001041905,4.411103581685921,3.354570817264767,-0.4582036913995854,-3.7404423377175653,-12.253622126260174,-10.645643632175227,-0.125304855,-0.9960912000000001,-0.18762159,-12.49794,-1.09872,5.508859999999999,69.0
1774823194.0734568,7.62939453125e-06,2026-03-29T22:26:34.073,2026-03-29T18:26:34.073,-30084.434999999998,-42934.905,-81424.44,-50185.259999999995,-10821.375,-17571.6,6084.8099999999995,-61020.54,-6.157393167647807,-1.9715687968421285,3.9931615341042286,3.2434854569643328,0.8296895422640695,-1.3687442279605682,0.23465351722707423,-9.105577855905878,-0.125304855,-0.9960912000000001,-0.18762159,-12.49794,-1.09872,5.508859999999999,69.0
1774823194.0734656,8.821487426757812e-06,2026-03-29T22:26:34.073,2026-03-29T18:26:34.073,-30089.114999999998,-42927.57,-81401.4,-50155.47,-10792.17,-17544.645,6072.344999999999,-61039.17,-0.30116982820444654,-3.9791164385963684,1.5686121451963826,1.3832906806212497,1.5429216132895003,1.4796392740954707,12.127894605366802,-3.7575820203154144,-0.124694505,-0.99255117,-0.191466795,-15.26,-1.7549,6.22608,69.0
1774823194.073472,6.4373016357421875e-06,2026-03-29T22:26:34.073,2026-03-29T18:26:34.073,-30084.344999999998,-42930.945,-81399.87,-50150.07,-10791.27,-17552.16,6054.974999999999,-61009.29,5.74747449198385,-4.073552369444366,-1.6531540643957363,-1.3080799271328185,1.4962426254935113,3.745259101796619,18.895361031160803,3.0434703678968815,-0.124694505,-0.99255117,-0.191466795,-15.26,-1.7549,6.22608,69.0
1774823194.0782993,0.004827260971069336,2026-03-29T22:26:34.078,2026-03-29T18:26:34.078,-30054.105,-42891.659999999996,-81358.56,-50116.409999999996,-10761.119999999999,-17522.37,6067.9349999999995,-60990.75,9.298657821241632,-2.098841184836636,-4.091930400964068,-3.474581158925644,0.8486029061699172,4.561907863961305,18.154500844274235,8.409961110813631,-0.124694505,-0.99255117,-0.191466795,-15.26,-1.7549,6.22608,69.0
1774823194.0783153,1.5974044799804688e-05,2026-03-29T22:26:34.078,2026-03-29T18:26:34.078,-30034.17,-42870.915,-81349.69499999999,-50107.409999999996,-10744.38,-17501.085,6083.505,-60976.619999999995,8.770618311012615,1.0514895706078053,-4.545355470991075,-3.980215032925748,-0.013574894940657245,3.596411255136254,10.448066299670566,10.147268339417236,-0.124694505,-0.99255117,-0.191466795,-15.26,-1.7549,6.22608,69.0
1774823194.0831192,0.004803895950317383,2026-03-29T22:26:34.083,2026-03-29T18:26:34.083,-30023.46,-42869.475,-81357.165,-50104.53,-10734.885,-17485.11,6136.335,-60956.369999999995,4.395988747770718,3.859306924177933,-2.7527397618454454,-2.4696555538186122,-0.6706509187187534,1.2097656824677951,-1.0827763110388313,7.637354659642116,-0.124694505,-0.99255117,-0.191466795,-15.26,-1.7549,6.22608,69.0
1774823194.0831542,3.504753112792969e-05,2026-03-29T22:26:34.083,2026-03-29T18:26:34.083,-30033.809999999998,-42881.939999999995,-81381.06,-50121.9,-10746.585,-17492.94,6152.49,-60945.119999999995,-1.8901967064407064,4.927926775008436,0.4789041685130947,0.4324685153746886,-0.8555953917637236,-1.650990755272551,-11.950019245712452,2.0335777947739238,-0.124694505,-0.99255117,-0.191466795,-15.26,-1.7549,6.22608,69.0
1774823194.0905144,0.007360219955444336,2026-03-29T22:26:34.090,2026-03-29T18:26:34.090,-30053.16,-42866.64,-81361.215,-50115.195,-10743.3,-17496.405,6153.48,-60929.505,-7.3218005062276115,3.677116269865107,3.639893033778338,3.382675453567965,-0.5575414787380791,-3.8169928480043978,-18.014028353311886,-4.277695397304532,-0.124694505,-0.99255117,-0.191466795,-15.26,-1.7549,6.22608,69.0
1774823194.0905464,3.1948089599609375e-05,2026-03-29T22:26:34.090,2026-03-29T18:26:34.090,-30074.445,-42881.445,-81371.11499999999,-50125.95,-10745.414999999999,-17495.235,6140.835,-60935.354999999996,-9.532530104192546,0.6409804715163099,5.208420659550887,4.9295881215385435,-0.005934545046003284,-4.385015537587617,-17.013583495193576,-8.693695435413472,-0.124694505,-0.99255117,-0.191466795,-15.26,-1.7549,6.22608,69.0
1774823194.0905774,3.0994415283203125e-05,2026-03-29T22:26:34.090,2026-03-29T18:26:34.090,-30013.785,-42902.729999999996,-81428.04,-50179.5,-10787.4,-17530.065,6096.599999999999,-60924.78,-7.592935580666591,-2.778751726211284,4.357376063949827,4.2021286750903295,0.45378317643660426,-3.119525120791792,-9.39318363831895,-9.458020464533565,-0.124694505,-0.99255117,-0.191466795,-15.26,-1.7549,6.22608,69.0
1774823194.090588,1.0728836059570312e-05,2026-03-29T22:26:34.090,2026-03-29T18:26:34.090,-29984.085,-42860.07,-81377.50499999999,-50141.564999999995,-10760.445,-17512.515,6096.735,-60936.03,-2.3972497526298406,-4.98171307642236,1.359802566698506,1.3592634816062859,0.5379367034880421,-0.5769570028064249,1.8668474506026693,-6.3429273109121835,-0.124694505,-0.99255117,-0.191466795,-15.26,-1.7549,6.22608,69.0
1774823194.096779,0.0061910152435302734,2026-03-29T22:26:34.096,2026-03-29T18:26:34.096,-30002.715,-42863.67,-81366.84,-50135.985,-10769.67,-17530.515,6103.08,-60920.729999999996,3.757826060599161,-4.931862039688945,-2.49508267033668,-2.4174630144694724,0.1759896953739456,2.125467525599683,12.368258748219226,-0.6963980309671131,-0.12145965,-0.98412834,-0.193541985,-16.4808,-4.1964999999999995,4.6543,69.0
1774823194.0968027,2.3603439331054688e-05,2026-03-29T22:26:34.096,2026-03-29T18:26:34.096,-30052.305,-42893.729999999996,-81389.25,-50138.82,-10764.225,-17517.105,6129.045,-60927.57,8.199740955474104,-2.644769401138482,-5.450833768388724,-5.4091592336153145,-0.43826461993169386,3.8077846218903817,17.970776199915182,5.140269660008974,-0.12145965,-0.98412834,-0.193541985,-16.4808,-4.1964999999999995,4.6543,69.0
1774823194.098095,0.0012922286987304688,2026-03-29T22:26:34.098,2026-03-29T18:26:34.098,-30046.725,-42884.235,-81383.355,-50138.189999999995,-10760.58,-17506.17,6129.719999999999,-60937.29,9.048373760649472,0.8302400065686536,-6.067308100078267,-6.127017619387765,-0.9300431918695535,3.766710351075082,16.412581414618938,8.793972344257954,-0.12145965,-0.98412834,-0.193541985,-16.4808,-4.1964999999999995,4.6543,69.0
1774823194.0981257,3.075599670410156e-05,2026-03-29T22:26:34.098,2026-03-29T18:26:34.098,-30015.765,-42883.515,-81381.33,-50149.215,-10779.525,-17525.745,6104.969999999999,-60909.165,6.012586606313343,3.91403404597096,-3.8971668494762346,-4.026767718211045,-0.9344134238763382,2.0978481866674445,8.247835034440223,8.811974845507141,-0.12145965,-0.98412834,-0.193541985,-16.4808,-4.1964999999999995,4.6543,69.0
1774823194.1116035,0.013477802276611328,2026-03-29T22:26:34.111,2026-03-29T18:26:34.111,-30012.12,-42889.005,-81395.28,-50157.314999999995,-10784.43,-17543.655,6066.675,-60912.945,0.47831143640891627,5.2363628998561005,0.25251622794636935,0.16219771043479597,-0.3092794760811076,-0.3614746749725088,-3.3010306908187066,5.230941049184308,-0.12145965,-0.98412834,-0.193541985,-16.4808,-4.1964999999999995,4.6543,69.0
1774823194.1116168,1.33514404296875e-05,2026-03-29T22:26:34.111,2026-03-29T18:26:34.111,-30052.89,-42916.95,-81404.81999999999,-50148.494999999995,-10785.555,-17563.005,6016.41,-60940.619999999995,-5.130542130376313,4.2545235704884306,4.611766544735097,4.672492653766588,0.7401217418597763,-2.4464690201759307,-13.573266183307611,-0.4548238292681974,-0.12145965,-0.98412834,-0.193541985,-16.4808,-4.1964999999999995,4.6543,69.0
1774823194.1116283,1.1444091796875e-05,2026-03-29T22:26:34.111,2026-03-29T18:26:34.111,-30060.719999999998,-42923.34,-81378.315,-50107.994999999995,-10776.33,-17575.38,5954.264999999999,-60931.755,-8.421092029459576,1.4680538834755092,7.1922150863531265,7.43373104857828,1.707987222142197,-3.2332075620552017,-18.33749566538445,-5.907311840450585,-0.12145965,-0.98412834,-0.193541985,-16.4808,-4.1964999999999995,4.6543,69.0
1774823194.1116333,5.0067901611328125e-06,2026-03-29T22:26:34.111,2026-03-29T18:26:34.111,-30038.175,-42906.869999999995,-81368.28,-50122.665,-10798.695,-17592.12,5959.304999999999,-60886.259999999995,-8.05636663733003,-1.8511715596548417,6.677317094640698,7.007642131200527,2.0115068246389383,-2.476157858498819,-15.55652275678008,-8.89498365709521,-0.12145965,-0.98412834,-0.193541985,-16.4808,-4.1964999999999995,4.6543,69.0
1774823194.1116383,5.0067901611328125e-06,2026-03-29T22:26:34.111,2026-03-29T18:26:34.111,-30050.594999999998,-42884.865,-81343.44,-50108.445,-10756.98,-17520.84,6071.76,-60921.54,-4.296142994931848,-4.262851826562827,3.06732503748812,3.308271056724473,1.301779848314648,-0.6943794070481872,-6.301813783654883,-8.200346545913588,-0.12145965,-0.98412834,-0.193541985,-16.4808,-4.1964999999999995,4.6543,69.0
1774823194.111642,3.5762786865234375e-06,2026-03-29T22:26:34.111,2026-03-29T18:26:34.111,-30049.695,-42904.034999999996,-81375.84,-50121.945,-10726.695,-17453.7,6271.74,-60898.229999999996,1.1633341456215929,-4.799336432726986,-2.2275344060653985,-2.2430890138330297,-0.291753684338456,1.1329701578638902,5.614027652422089,-4.119615227492995,-0.12145965,-0.98412834,-0.193541985,-16.4808,-4.1964999999999995,4.6543,69.0
1774823194.118533,0.006891012191772461,2026-03-29T22:26:34.118,2026-03-29T18:26:34.118,-30065.445,-42936.659999999996,-81452.79,-50203.979999999996,-10785.33,-17500.815,6252.255,-60869.43,5.958993108422739,-3.3507419292680956,-6.925608184695796,-7.247326369123476,-2.1297926168645103,2.0964944800822938,15.189305441899867,1.6526821287809057,-0.11694306,-0.98058831,-0.19018506,-12.955739999999999,-3.69292,4.1202,69.0
1774823194.118542,9.059906005859375e-06,2026-03-29T22:26:34.118,2026-03-29T18:26:34.118,-30063.059999999998,-42913.305,-81447.93,-50200.604999999996,-10791.315,-17519.445,6147.63,-60883.424999999996,8.08942689894938,-0.6423795978852874,-8.845694442322323,-9.354178804988548,-3.302238113760283,1.827572397110068,18.348454623503084,6.715977405381205,-0.11694306,-0.98058831,-0.19018506,-12.955739999999999,-3.69292,4.1202,69.0
1774823194.1185553,1.33514404296875e-05,2026-03-29T22:26:34.118,2026-03-29T18:26:34.118,-30020.579999999998,-42868.215,-81418.00499999999,-50177.25,-10780.109999999999,-17520.48,6122.969999999999,-60861.915,6.752735594603008,2.146761427456876,-6.9042850615223,-7.352661468349718,-3.0592209418574847,0.6592300269629991,13.718220671125145,8.957166616152282,-0.11694306,-0.98058831,-0.19018506,-12.955739999999999,-3.69292,4.1202,69.0
1774823194.1185594,4.0531158447265625e-06,2026-03-29T22:26:34.118,2026-03-29T18:26:34.118,-30003.254999999997,-42850.845,-81390.015,-50164.65,-10785.555,-17533.44,6109.5599999999995,-60842.25,2.642062733640124,3.917504301209373,-1.6886840373568626,-1.825048667643487,-1.2377943631106425,-0.6047070641551797,3.270439042990469,7.437471482242311,-0.11694306,-0.98058831,-0.19018506,-12.955739999999999,-3.69292,4.1202,69.0
1774823194.1224763,0.00391697883605957,2026-03-29T22:26:34.122,2026-03-29T18:26:34.122,-30007.485,-42866.145,-81377.055,-50159.744999999995,-10794.42,-17545.905,6097.23,-60817.59,-2.4071515721827157,4.0847760757519165,4.685170681181842,4.9755870139970835,1.5437529084376675,-1.177667518626012,-8.490125685156684,2.797909689387246,-0.11694306,-0.98058831,-0.19018506,-12.955739999999999,-3.69292,4.1202,69.0
1774823194.1224895,1.3113021850585938e-05,2026-03-29T22:26:34.122,2026-03-29T18:26:34.122,-30017.34,-42879.689999999995,-81387.045,-50162.354999999996,-10795.994999999999,-17550.135,6088.139999999999,-60827.31,-6.241804350623504,2.740018984793372,9.419053202114297,10.031631886594456,4.066439709791792,-0.7569914789545323,-16.472646298626422,-2.998541247198795,-0.11694306,-0.98058831,-0.19018506,-12.955739999999999,-3.69292,4.1202,69.0
1774823194.13917,0.016680479049682617,2026-03-29T22:26:34.139,2026-03-29T18:26:34.139,-30045.51,-42853.409999999996,-81344.79,-50116.5,-10749.69,-17511.975,6097.41,-60889.454999999994,-7.315497863460483,0.5170607201129217,10.251287762155158,10.89378220926653,5.0330870908898655,0.2997886914669295,-17.238312065023322,-7.491914482396353,-0.11694306,-0.98058831,-0.19018506,-12.955739999999999,-3.69292,4.1202,69.0
1774823194.139258,8.797645568847656e-05,2026-03-29T22:26:34.139,2026-03-29T18:26:34.139,-30073.59,-42860.744999999995,-81346.275,-50103.494999999995,-10732.455,-17493.975,6117.48,-60894.54,-5.313003811821622,-1.7274448376410103,6.5219700806979235,6.855117574746987,3.7149245321541837,1.1961765027558273,-10.529415638303671,-8.774120761857588,-0.11694306,-0.98058831,-0.19018506,-12.955739999999999,-3.69292,4.1202,69.0
1774823194.1393645,0.00010657310485839844,2026-03-29T22:26:34.139,2026-03-29T18:26:34.139,-30077.37,-42905.205,-81395.145,-50131.755,-10757.52,-17517.78,6094.755,-60875.954999999994,-1.221662248491663,-3.249373098659797,-0.41125577301224736,-0.5918650115767615,0.40701300333179774,1.1951273169913348,0.6128208169592461,-6.312102308730942,-0.11694306,-0.98058831,-0.19018506,-12.955739999999999,-3.69292,4.1202,69.0
1774823194.139434,6.961822509765625e-05,2026-03-29T22:26:34.139,2026-03-29T18:26:34.139,-30043.035,-42915.015,-81397.17,-50127.479999999996,-10764.99,-17531.505,6058.08,-60857.549999999996,3.153505941086229,-3.6331739426846004,-7.64389925627259,-8.282583273285175,-3.5689719647888793,0.10772198764322868,11.21348785060064,-1.1832653245470666,-0.11694306,-0.98058831,-0.19018506,-12.955739999999999,-3.69292,4.1202,69.0
1774823194.1395223,8.821487426757812e-05,2026-03-29T22:26:34.139,2026-03-29T18:26:34.139,-30043.079999999998,-42919.155,-81406.44,-50135.805,-10776.195,-17540.82,6049.575,-60846.255,5.994183411393611,-2.8449586394000286,-11.932162449123547,-12.720208829417922,-6.378865856362951,-1.523460991103501,16.604926511099034,4.388322561891462,-0.11547822,-0.9746068800000001,-0.19018506,-13.642439999999999,-2.50264,2.22796,69.0
1774823194.1395893,6.699562072753906e-05,2026-03-29T22:26:34.139,2026-03-29T18:26:34.139,-30040.785,-42889.77,-81385.56,-50130.945,-10768.904999999999,-17528.265,6085.17,-60827.13,6.230557880361867,-1.1657690774349503,-11.140419748972937,-11.663965776839984,-6.515245595130389,-2.6801662673640867,14.524737252269212,7.999430188994389,-0.11547822,-0.9746068800000001,-0.19018506,-13.642439999999999,-2.50264,2.22796,69.0
1774823194.1396608,7.152557373046875e-05,2026-03-29T22:26:34.139,2026-03-29T18:26:34.139,-30051.945,-42878.34,-81373.59,-50151.825,-10775.07,-17517.195,6118.0199999999995,-60839.235,3.9377068594582716,0.9181449806241258,-5.286147568903245,-5.245126377333163,-3.58053612195351,-2.448492777644866,6.108308613366724,8.116399232890322,-0.11547822,-0.9746068800000001,-0.19018506,-13.642439999999999,-2.50264,2.22796,69.0
1774823194.1397052,4.4345855712890625e-05,2026-03-29T22:26:34.139,2026-03-29T18:26:34.139,-30038.985,-42873.84,-81369.62999999999,-50148.494999999995,-10774.035,-17521.38,6094.3949999999995,-60838.335,0.22193138443210583,2.8182036490291074,3.322204280038463,3.9399507303450156,1.384586938506749,-0.6085949832845046,-4.680299034293472,4.741070848139342,-0.11547822,-0.9746068800000001,-0.19018506,-13.642439999999999,-2.50264,2.22796,69.0
1774823194.1424196,0.002714395523071289,2026-03-29T22:26:34.142,2026-03-29T18:26:34.142,-30010.995,-42828.75,-81316.53,-50085.854999999996,-10723.815,-17487.045,6094.889999999999,-60815.295,-3.3170567795901786,3.943301368992955,10.979838600039027,11.870219160419708,6.243172791440067,2.1142756457766763,-12.910014230748752,-0.6030092302361849,-0.11547822,-0.9746068800000001,-0.19018506,-13.642439999999999,-2.50264,2.22796,69.0
1774823194.142436,1.6450881958007812e-05,2026-03-29T22:26:34.142,2026-03-29T18:26:34.142,-30020.579999999998,-42867.36,-81366.56999999999,-50119.155,-10741.859999999999,-17500.545,6089.13,-60810.21,-5.285104017352687,3.8305906883422973,14.174771060762371,14.86276152775648,8.678531379323788,4.323221633407213,-14.963937886257945,-5.5574424348412075,-0.11547822,-0.9746068800000001,-0.19018506,-13.642439999999999,-2.50264,2.22796,69.0
1774823194.149331,0.0068950653076171875,2026-03-29T22:26:34.149,2026-03-29T18:26:34.149,-30038.67,-42910.875,-81424.485,-50182.29,-10792.44,-17540.01,6053.355,-60824.024999999994,-5.042787971618072,2.3181059382765943,11.192915361220726,11.284393718868175,7.293950653422097,4.65179825566606,-10.172365178622572,-7.979260494927748,-0.11547822,-0.9746068800000001,-0.19018506,-13.642439999999999,-2.50264,2.22796,69.0
1774823194.1493528,2.1696090698242188e-05,2026-03-29T22:26:34.149,2026-03-29T18:26:34.149,-30024.629999999997,-42880.32,-81396.765,-50179.455,-10800.99,-17551.62,6068.565,-60810.93,-2.8871419800905516,-0.2940917647981604,3.007898665742106,2.415554493536332,2.374882115041391,2.546423999175828,-1.0405268223020336,-6.881803108431329,-0.11547822,-0.9746068800000001,-0.19018506,-13.642439999999999,-2.50264,2.22796,69.0
1774823194.1493742,2.1457672119140625e-05,2026-03-29T22:26:34.149,2026-03-29T18:26:34.149,-30046.905,-42872.985,-81375.75,-50159.159999999996,-10794.105,-17558.415,6072.3,-60809.13,0.17070615409130793,-3.2030540588271275,-6.99613171103847,-7.981532716216591,-4.090077966987851,-1.3001985440718964,8.01577821592994,-2.845768708716951,-0.11547822,-0.9746068800000001,-0.19018506,-13.642439999999999,-2.50264,2.22796,69.0
1774823194.1493816,7.3909759521484375e-06,2026-03-29T22:26:34.149,2026-03-29T18:26:34.149,-30072.914999999997,-42886.215,-81373.59,-50134.5,-10768.14,-17533.89,6113.61,-60814.845,2.889956460406708,-5.283029442330523,-14.415260328910882,-15.260538787197534,-9.206209782940755,-5.14524561028011,12.803547959682334,2.2758815421640812,-0.11547822,-0.9746068800000001,-0.19018506,-13.642439999999999,-2.50264,2.22796,69.0
1774823194.1603732,0.010991573333740234,2026-03-29T22:26:34.160,2026-03-29T18:26:34.160,-30045.42,-42886.755,-81382.95,-50133.06,-10757.565,-17516.655,6142.365,-60807.015,4.309700910446525,-5.494815477724025,-15.763525379115476,-15.975835927699903,-10.472131447050048,-6.986598137942958,11.323814863991652,6.213014528670023,-0.11828583000000001,-0.970639605,-0.1916499,-14.08498,-4.1202,1.55652,69.0
1774823194.160401,2.7894973754882812e-05,2026-03-29T22:26:34.160,2026-03-29T18:26:34.160,-30071.34,-42945.795,-81450.22499999999,-50199.255,-10819.215,-17572.86,6106.275,-60785.64,4.069929095475484,-3.3920526797551176,-10.10584120796301,-9.51504396621805,-6.996563291986285,-5.588586582140715,4.64066103938566,7.295985111300666,-0.11828583000000001,-0.970639605,-0.1916499,-14.08498,-4.1202,1.55652,69.0
1774823194.2028224,0.04242134094238281,2026-03-29T22:26:34.202,2026-03-29T18:26:34.202,-30080.699999999997,-42930.225,-81432.765,-50176.755,-10793.16,-17544.059999999998,6113.385,-60783.345,2.4460574860212057,0.5167668732435434,0.3770238172266666,1.4956336338313805,-0.042148296012025625,-1.2223547484807835,-3.746858503952911,5.173591716143827,-0.11828583000000001,-0.970639605,-0.1916499,-14.08498,-4.1202,1.55652,69.0
1774823194.2028513,2.8848648071289062e-05,2026-03-29T22:26:34.202,2026-03-29T18:26:34.202,-30052.17,-42878.205,-81374.265,-50123.97,-10748.115,-17501.67,6129.99,-60773.715,0.13995255793133649,4.788234725494564,11.209913355350617,12.254952382435551,7.41295496878732,4.29758863545436,-9.692133486075598,0.9174114651058091,-0.11828583000000001,-0.970639605,-0.1916499,-14.08498,-4.1202,1.55652,69.0
1774823194.2028744,2.3126602172851562e-05,2026-03-29T22:26:34.202,2026-03-29T18:26:34.202,-30101.489999999998,-42896.385,-81364.545,-50114.564999999995,-10746.315,-17501.579999999998,6095.295,-60803.145,-2.034947325544349,7.538034707618831,17.532649503153678,17.89100339881618,11.9550891270553,8.368635111308267,-10.44920069173188,-3.5130846129525612,-0.11828583000000001,-0.970639605,-0.1916499,-14.08498,-4.1202,1.55652,69.0
1774823194.202884,9.5367431640625e-06,2026-03-29T22:26:34.202,2026-03-29T18:26:34.202,-30102.795,-42912.99,-81378.045,-50127.479999999996,-10759.365,-17517.015,6055.425,-60808.32,-3.4265884070461774,7.264594359381936,16.28386672772286,15.67924723376607,11.304392169627603,8.832267791713916,-5.969290291914314,-6.178999575790578,-0.11828583000000001,-0.970639605,-0.1916499,-14.08498,-4.1202,1.55652,69.0
1774823194.2028956,1.1682510375976562e-05,2026-03-29T22:26:34.202,2026-03-29T18:26:34.202,-30044.969999999998,-42892.47,-81384.345,-50143.14,-10775.789999999999,-17537.265,6018.255,-60777.63,-3.690195563570049,3.646842785501693,7.676572007643834,6.358558914179603,5.4487127276619844,5.096962422432353,1.179266941783696,-6.019086353726493,-0.11828583000000001,-0.970639605,-0.1916499,-14.08498,-4.1202,1.55652,69.0
1774823194.2029054,9.775161743164062e-06,2026-03-29T22:26:34.202,2026-03-29T18:26:34.202,-30046.32,-42881.31,-81370.305,-50133.78,-10761.074999999999,-17521.875,6053.535,-60752.79,-2.8083323965345213,-2.099760537056211,-4.743758079027223,-6.090928939106729,-3.2185284728070336,-1.4252952792531002,7.19837268888663,-3.272091113768456,-0.11828583000000001,-0.970639605,-0.1916499,-14.08498,-4.1202,1.55652,69.0
1774823194.2029169,1.1444091796875e-05,2026-03-29T22:26:34.202,2026-03-29T18:26:34.202,-30040.065,-42870.915,-81361.89,-50125.814999999995,-10755.315,-17518.32,6079.679999999999,-60733.619999999995,-1.0417866973246694,-7.571270953799145,-15.553847444811238,-16.156754419242255,-10.87695002480604,-7.84252713068941,9.031616577486535,0.7035506811477628,-0.11828583000000001,-0.970639605,-0.1916499,-14.08498,-4.1202,1.55652,69.0
1774823194.2029257,8.821487426757812e-06,2026-03-29T22:26:34.202,2026-03-29T18:26:34.202,-30077.864999999998,-42892.784999999996,-81397.62,-50154.255,-10770.21,-17519.085,6137.19,-60770.655,1.1344678762068996,-10.168243535247763,-19.82691369669628,-19.25201289151447,-13.974121091180796,-11.077746911283466,5.911301834531877,4.098553235975953,-0.11828583000000001,-0.970639605,-0.1916499,-14.08498,-4.1202,1.55652,69.0
1774823194.202937,1.1205673217773438e-05,2026-03-29T22:26:34.202,2026-03-29T18:26:34.202,-30080.43,-42903.585,-81412.245,-50156.369999999995,-10771.47,-17521.11,6132.15,-60766.92,3.10099170363895,-8.33114603366372,-15.384551811889475,-13.818292457872264,-10.879644297202574,-9.349545716246872,-0.3016478305987269,5.480889102668373,-0.12756315000000001,-0.965878875,-0.197448225,-15.107399999999998,-7.691039999999999,-1.4039199999999998,69.0
1774823194.2029455,8.58306884765625e-06,2026-03-29T22:26:34.202,2026-03-29T18:26:34.202,-30075.03,-42925.635,-81434.87999999999,-50170.365,-10787.31,-17541.18,6104.429999999999,-60740.729999999996,4.202928929626761,-2.430831172034921,-3.8936224600886655,-2.1031914509257166,-2.7250129920593658,-3.123024762730009,-6.145191927566349,4.401391501224509,-0.12756315000000001,-0.965878875,-0.197448225,-15.107399999999998,-7.691039999999999,-1.4039199999999998,69.0
1774823194.2029567,1.1205673217773438e-05,2026-03-29T22:26:34.202,2026-03-29T18:26:34.202,-30085.245,-42932.115,-81435.465,-50171.49,-10785.869999999999,-17535.645,6111.09,-60743.655,3.930390691065558,5.178801618849924,9.739838362636632,10.773613771564952,6.997176847707211,4.966553765135621,-8.408619803628355,1.5201251302169019,-0.12756315000000001,-0.965878875,-0.197448225,-15.107399999999998,-7.691039999999999,-1.4039199999999998,69.0
1774823194.2029653,8.58306884765625e-06,2026-03-29T22:26:34.202,2026-03-29T18:26:34.202,-30101.489999999998,-42908.22,-81404.055,-50148.765,-10761.66,-17510.445,6132.78,-60764.13,2.146890027389338,11.077025229875435,19.470569172398424,19.076028799338108,13.939716546320286,11.240403357369791,-5.842929573985044,-1.7691099079661448,-0.12756315000000001,-0.965878875,-0.197448225,-15.107399999999998,-7.691039999999999,-1.4039199999999998,69.0
1774823194.202976,1.0728836059570312e-05,2026-03-29T22:26:34.202,2026-03-29T18:26:34.202,-30082.68,-42878.025,-81376.29,-50135.939999999995,-10753.425,-17506.35,6136.514999999999,-60736.994999999995,-0.732118385528654,12.318395252026939,20.807042354304947,19.0266749340884,14.858202899461961,12.666073958109507,0.16544614084775033,-4.010527125706314,-0.12756315000000001,-0.965878875,-0.197448225,-15.107399999999998,-7.691039999999999,-1.4039199999999998,69.0
1774823194.2029843,8.344650268554688e-06,2026-03-29T22:26:34.202,2026-03-29T18:26:34.202,-30039.39,-42869.7,-81385.92,-50165.055,-10795.32,-17553.375,6096.42,-60696.18,-3.7439503728847745,7.903794683839751,12.891972405125413,10.535930585391649,9.131714628764758,8.326575221387015,6.316861786540519,-4.330789741863409,-0.12756315000000001,-0.965878875,-0.197448225,-15.107399999999998,-7.691039999999999,-1.4039199999999998,69.0
1774823194.2029953,1.0967254638671875e-05,2026-03-29T22:26:34.202,2026-03-29T18:26:34.202,-30017.295,-42864.165,-81386.775,-50166.27,-10798.47,-17559.315,6085.3949999999995,-60703.829999999994,-5.651446123173133,-0.5548632844912968,-0.9973504775925636,-2.711914317137702,-0.8683454285772298,-0.044878354219897144,9.149918052020256,-2.7707962441194587,-0.12756315000000001,-0.965878875,-0.197448225,-15.107399999999998,-7.691039999999999,-1.4039199999999998,69.0
1774823194.203004,8.58306884765625e-06,2026-03-29T22:26:34.203,2026-03-29T18:26:34.203,-30019.274999999998,-42874.38,-81385.155,-50154.795,-10784.565,-17549.19,6090.12,-60713.369999999995,-5.43986255739224,-9.381842746112493,-14.80660764378169,-14.873515683967645,-10.766316710595046,-8.760171045013298,6.912055842507715,-0.18404894766658936,-0.12756315000000001,-0.965878875,-0.197448225,-15.107399999999998,-7.691039999999999,-1.4039199999999998,69.0
1774823194.203015,1.1205673217773438e-05,2026-03-29T22:26:34.203,2026-03-29T18:26:34.203,-30034.44,-42904.979999999996,-81414.135,-50177.835,-10803.869999999999,-17568.315,6068.474999999999,-60699.645,-2.8456011076318593,-14.436715019277381,-22.35787734260409,-20.547169184952885,-16.11270728728295,-13.821111505463659,0.562239633317081,2.2140003331477898,-0.12756315000000001,-0.965878875,-0.197448225,-15.107399999999998,-7.691039999999999,-1.4039199999999998,69.0
1774823194.203024,8.821487426757812e-06,2026-03-29T22:26:34.203,2026-03-29T18:26:34.203,-30045.645,-42892.335,-81379.62,-50138.145,-10769.715,-17541.809999999998,6031.53,-60711.615,1.3542461068322604,-13.069367193464327,-20.129408168960538,-17.19094701704378,-14.398122121675643,-12.771109916680894,-6.644888367879184,3.4126355943126114,-0.12756315000000001,-0.965878875,-0.197448225,-15.107399999999998,-7.691039999999999,-1.4039199999999998,69.0
1774823194.2030365,1.2636184692382812e-05,2026-03-29T22:26:34.203,2026-03-29T18:26:34.203,-30059.055,-42875.64,-81328.815,-50078.97,-10721.52,-17502.885,6032.25,-60737.265,5.504254401511524,-5.5016423661978555,-8.903218074088937,-6.266681970733975,-6.232926517608339,-5.888362093009169,-10.81201741692199,3.026017059501714,-0.132873195,-0.96496335,-0.202208955,-16.57236,-10.42258,-3.7386999999999997,69.0
1774823194.2030456,9.059906005859375e-06,2026-03-29T22:26:34.203,2026-03-29T18:26:34.203,-30082.184999999998,-42902.415,-81376.69499999999,-50111.865,-10753.56,-17529.48,6050.61,-60740.729999999996,7.703424104885912,5.082211960234988,6.49342364404935,7.407867715022193,4.862991997589383,3.8596383178084617,-9.454917039493106,1.395649771094923,-0.132873195,-0.96496335,-0.202208955,-16.57236,-10.42258,-3.7386999999999997,69.0
1774823194.2030568,1.1205673217773438e-05,2026-03-29T22:26:34.203,2026-03-29T18:26:34.203,-30085.605,-42892.02,-81365.715,-50104.755,-10754.055,-17528.04,6088.41,-60737.85,6.678742054847445,13.870450665320835,19.2766467415504,17.806661560387205,13.991605217967809,12.112786002305466,-2.8929366989974166,-0.6369692724260896,-0.132873195,-0.96496335,-0.202208955,-16.57236,-10.42258,-3.7386999999999997,69.0
1774823194.2030654,8.58306884765625e-06,2026-03-29T22:26:34.203,2026-03-29T18:26:34.203,-30088.754999999997,-42898.455,-81356.48999999999,-50103.63,-10751.22,-17516.114999999998,6129.63,-60735.015,2.4973391591626037,16.62764911098457,23.7151866119856,20.374913593813396,17.05667382082296,15.091718195039496,5.777563120084976,-2.151942637703078,-0.132873195,-0.96496335,-0.202208955,-16.57236,-10.42258,-3.7386999999999997,69.0
1774823194.2073872,0.0043218135833740234,2026-03-29T22:26:34.207,2026-03-29T18:26:34.207,-30092.219999999998,-42921.225,-81403.37999999999,-50151.15,-10778.67,-17524.845,6166.8,-60711.075,-3.272313091315677,11.750365010249043,17.715759782107316,14.03778190544737,12.614075955640738,11.344431464252752,12.163989651196367,-2.5599694421249817,-0.132873195,-0.96496335,-0.202208955,-16.57236,-10.42258,-3.7386999999999997,69.0
1774823194.2073984,1.1205673217773438e-05,2026-03-29T22:26:34.207,2026-03-29T18:26:34.207,-30100.68,-42911.055,-81402.25499999999,-50138.909999999996,-10755.765,-17506.53,6151.1849999999995,-60703.604999999996,-8.117234857034791,1.1699975521469443,3.810572357341261,1.645790596008018,2.5512544653725278,2.4519820541771713,12.796567507477263,-1.8205548738191506,-0.132873195,-0.96496335,-0.202208955,-16.57236,-10.42258,-3.7386999999999997,69.0
1774823194.2074091,1.0728836059570312e-05,2026-03-29T22:26:34.207,2026-03-29T18:26:34.207,-30101.309999999998,-42908.805,-81408.06,-50159.744999999995,-10765.035,-17518.05,6113.835,-60704.549999999996,-9.67678434791322,-10.395047659876592,-11.919764315118696,-11.325470026335065,-8.723725491883178,-7.649127907146566,6.965783755728825,-0.39553840902888365,-0.132873195,-0.96496335,-0.202208955,-16.57236,-10.42258,-3.7386999999999997,69.0
1774823194.2074156,6.4373016357421875e-06,2026-03-29T22:26:34.207,2026-03-29T18:26:34.207,-30072.42,-42924.51,-81435.19499999999,-50187.915,-10797.615,-17549.01,6075.764999999999,-60695.865,-6.900367756325396,-17.558257226053254,-22.526037839254975,-19.22019467516498,-16.230998376370888,-14.432527843692382,-2.7802818777359004,1.011203569085506,-0.132873195,-0.96496335,-0.202208955,-16.57236,-10.42258,-3.7386999999999997,69.0
1774823194.215346,0.007930517196655273,2026-03-29T22:26:34.215,2026-03-29T18:26:34.215,-30054.78,-42913.979999999996,-81417.42,-50172.975,-10789.02,-17533.305,6093.945,-60687.045,-0.6948514989854162,-16.79648523662157,-23.282238432240874,-18.688468334457063,-16.63614598588066,-14.83344351038482,-11.780105417716664,1.7893702185622107,-0.132873195,-0.96496335,-0.202208955,-16.57236,-10.42258,-3.7386999999999997,69.0
1774823194.215372,2.5987625122070312e-05,2026-03-29T22:26:34.215,2026-03-29T18:26:34.215,-30039.885,-42893.415,-81395.19,-50170.185,-10790.55,-17534.565,6121.485,-60652.079999999994,6.318159367129336,-8.193554436005002,-13.803420323770826,-10.111463546785153,-9.74082207337265,-8.646088556228124,-15.517656401985665,1.6780288782886235,-0.132873195,-0.96496335,-0.202208955,-16.57236,-10.42258,-3.7386999999999997,69.0
1774823194.215397,2.47955322265625e-05,2026-03-29T22:26:34.215,2026-03-29T18:26:34.215,-30035.385,-42874.784999999996,-81377.055,-50147.955,-10766.925,-17516.565,6131.745,-60639.795,10.90741543645944,4.472055280510678,1.7653433273044168,2.6423059395599586,1.4239120553625628,1.3757512827314955,-11.889043411317088,0.839315548195266,-0.134704245,-0.97192134,-0.211242135,-18.81558,-12.75736,-2.5484199999999997,69.0
1774823194.2154071,1.0251998901367188e-05,2026-03-29T22:26:34.215,2026-03-29T18:26:34.215,-30018.239999999998,-42848.685,-81356.175,-50132.25,-10759.725,-17522.82,6076.844999999999,-60658.829999999994,10.735720384522281,15.396460108282179,16.579421542487157,13.983421988192863,11.94418204468437,10.762386653567681,-2.3371785817690807,-0.2614126877932514,-0.134704245,-0.97192134,-0.211242135,-18.81558,-12.75736,-2.5484199999999997,69.0
1774823194.218438,0.0030307769775390625,2026-03-29T22:26:34.218,2026-03-29T18:26:34.218,-29998.215,-42835.095,-81339.885,-50112.18,-10745.324999999999,-17516.52,6039.36,-60643.665,5.555594874826478,19.434536490465607,24.127968172230226,19.074461120157963,17.205432575967613,15.346561328658742,8.743144496056072,-1.0953905683879328,-0.134704245,-0.97192134,-0.211242135,-18.81558,-12.75736,-2.5484199999999997,69.0
1774823194.2184596,2.1696090698242188e-05,2026-03-29T22:26:34.218,2026-03-29T18:26:34.218,-30012.344999999998,-42867.63,-81367.29,-50117.13,-10747.395,-17515.845,6027.48,-60634.35,-2.517339171392422,14.545976387077781,21.114625488074612,15.904624634751087,14.932581094633585,13.134128889742366,16.074508310765292,-1.3129258238449681,-0.134704245,-0.97192134,-0.211242135,-18.81558,-12.75736,-2.5484199999999997,69.0
1774823194.222507,0.004047393798828125,2026-03-29T22:26:34.222,2026-03-29T18:26:34.222,-30056.94,-42903.99,-81401.44499999999,-50144.85,-10770.255,-17532.315,6041.88,-60665.085,-9.858279879721547,2.8297151122043642,8.902085452318056,6.071274248470727,6.1791250653225935,5.178224636729891,16.046176685225944,-0.8824155423008809,-0.134704245,-0.97192134,-0.211242135,-18.81558,-12.75736,-2.5484199999999997,69.0
1774823194.222522,1.5020370483398438e-05,2026-03-29T22:26:34.222,2026-03-29T18:26:34.222,-30073.004999999997,-42904.305,-81408.95999999999,-50166.854999999996,-10787.94,-17542.934999999998,6125.13,-60650.954999999994,-12.975954080565558,-10.37931513383013,-7.11492278857795,-6.028309447999201,-5.167237056550829,-4.92926565303278,8.496106487682962,-0.0748307602019354,-0.134704245,-0.97192134,-0.211242135,-18.81558,-12.75736,-2.5484199999999997,69.0
1774823194.231279,0.008756875991821289,2026-03-29T22:26:34.231,2026-03-29T18:26:34.231,-30081.42,-42909.165,-81394.605,-50134.68,-10763.1,-17525.024999999998,6141.554999999999,-60644.97,-10.19252452161805,-18.96145141545358,-19.914983912892865,-15.18489093976555,-14.128124962423092,-12.700543062163392,-3.1574017846032496,0.6861121786622718,-0.134704245,-0.97192134,-0.211242135,-18.81558,-12.75736,-2.5484199999999997,69.0
1774823194.2313008,2.193450927734375e-05,2026-03-29T22:26:34.231,2026-03-29T18:26:34.231,-30073.995,-42955.38,-81445.36499999999,-50179.32,-10823.175,-17591.489999999998,6006.735,-60647.759999999995,-2.5433022205174534,-18.874831839007616,-23.951031281625944,-17.63661630428385,-16.837979984966427,-14.768462874224934,-13.513145394223763,1.0315001094462368,-0.134704245,-0.97192134,-0.211242135,-18.81558,-12.75736,-2.5484199999999997,69.0
1774823194.2313356,3.4809112548828125e-05,2026-03-29T22:26:34.231,2026-03-29T18:26:34.231,-30033.945,-42920.505,-81413.235,-50165.549999999996,-10808.234999999999,-17573.399999999998,6011.594999999999,-60625.755,6.584951669687323,-10.077520294653333,-17.56699574804376,-12.612424346469584,-12.223861929172694,-10.360129863461353,-17.74592874594042,0.8163584080875318,-0.134704245,-0.97192134,-0.211242135,-18.81558,-12.75736,-2.5484199999999997,69.0
1774823194.231344,8.344650268554688e-06,2026-03-29T22:26:34.231,2026-03-29T18:26:34.231,-30005.145,-42873.93,-81361.665,-50119.83,-10755.539999999999,-17516.295,6064.695,-60585.795,12.965192850538891,3.4131905676098935,-3.67155992797633,-2.52800720412586,-2.4261038960624566,-1.576038825180909,-13.890346338603493,0.1767772832480017,-0.134704245,-0.97192134,-0.211242135,-18.81558,-12.75736,-2.5484199999999997,69.0
1774823194.2364345,0.005090475082397461,2026-03-29T22:26:34.236,2026-03-29T18:26:34.236,-30006.629999999997,-42833.475,-81316.485,-50076.45,-10706.58,-17464.095,6121.53,-60589.485,13.51080801209146,15.371064702145635,11.601807182020355,8.184215435219388,8.202941158775454,7.620537941104939,-3.7518696077756557,-0.545858309621581,-0.135314595,-0.984189375,-0.21472113,-12.65054,-11.76546,0.42728,69.0
1774823194.2364528,1.8358230590820312e-05,2026-03-29T22:26:34.236,2026-03-29T18:26:34.236,-30037.274999999998,-42843.555,-81337.275,-50110.29,-10736.234999999999,-17488.035,6158.295,-60618.6,7.786667704244633,20.26100157624422,21.6247495387785,15.040936855349134,15.050304710362802,13.213710036062512,7.978025977092558,-0.9748241016639114,-0.135314595,-0.984189375,-0.21472113,-12.65054,-11.76546,0.42728,69.0
1774823194.2385373,0.002084493637084961,2026-03-29T22:26:34.238,2026-03-29T18:26:34.238,-30038.039999999997,-42858.27,-81352.98,-50134.59,-10755.765,-17508.87,6176.295,-60598.079999999994,-1.6973016389940274,15.82580766506388,22.16877703835232,15.390061949293505,15.261292925173331,12.908340050579573,15.953788078466573,-0.8821963910248072,-0.135314595,-0.984189375,-0.21472113,-12.65054,-11.76546,0.42728,69.0
1774823194.238562,2.47955322265625e-05,2026-03-29T22:26:34.238,2026-03-29T18:26:34.238,-30081.329999999998,-42881.04,-81355.14,-50133.104999999996,-10751.715,-17502.795,6199.0199999999995,-60597.405,-10.592637596999676,4.139683747248599,13.192778148996785,9.41699801355169,8.934850082392767,7.07470591887927,16.666722837796353,-0.3014884103703308,-0.135314595,-0.984189375,-0.21472113,-12.65054,-11.76546,0.42728,69.0
1774823194.2576027,0.019040584564208984,2026-03-29T22:26:34.257,2026-03-29T18:26:34.257,-30133.664999999997,-42924.015,-81387.98999999999,-50145.119999999995,-10758.779999999999,-17505.945,6159.465,-60623.28,-14.72800560019734,-9.368092236315572,-1.2333962764109443,-0.09555059541463597,-1.007470008772753,-1.525489428898061,10.009090453224024,0.48446650327131485,-0.135314595,-0.984189375,-0.21472113,-12.65054,-11.76546,0.42728,69.0
1774823194.257622,1.9311904907226562e-05,2026-03-29T22:26:34.257,2026-03-29T18:26:34.257,-30068.864999999998,-42901.335,-81387.675,-50150.07,-10780.515,-17536.545,6099.48,-60608.25,-12.089002165823128,-18.456403259097222,-14.790112793115295,-9.073516246233261,-10.181069379809117,-9.058327872152264,-0.7963991621122937,1.0767010095679497,-0.135314595,-0.984189375,-0.21472113,-12.65054,-11.76546,0.42728,69.0
1774823194.25764,1.7881393432617188e-05,2026-03-29T22:26:34.257,2026-03-29T18:26:34.257,-30017.789999999997,-42888.465,-81390.015,-50152.905,-10785.914999999999,-17543.745,6086.429999999999,-60579.09,-3.811343573227083,-18.98145215680861,-21.695956344747547,-13.906403287211543,-14.689491690320816,-12.34702501039134,-10.805664351346001,1.1540015539062927,-0.135314595,-0.984189375,-0.21472113,-12.65054,-11.76546,0.42728,69.0
1774823194.2576466,6.67572021484375e-06,2026-03-29T22:26:34.257,2026-03-29T18:26:34.257,-30026.925,-42905.97,-81419.355,-50174.595,-10795.5,-17550.989999999998,6071.49,-60570.945,6.307240198057982,-10.804436516119782,-19.184286297314237,-12.891357260385023,-12.791342294695086,-10.222466257862994,-15.6782750803046,0.6364732106959576,-0.135314595,-0.984189375,-0.21472113,-12.65054,-11.76546,0.42728,69.0
1774823194.2576556,9.059906005859375e-06,2026-03-29T22:26:34.257,2026-03-29T18:26:34.257,-30030.614999999998,-42889.994999999995,-81402.03,-50154.795,-10770.84,-17531.55,6074.28,-60564.465,13.566507950146965,2.188273722895895,-8.603212085550728,-6.793819734054253,-5.564525749829493,-3.9159263764397614,-13.596868923814169,-0.26149277405356375,-0.135314595,-0.984189375,-0.21472113,-12.65054,-11.76546,0.42728,69.0
1774823194.2576642,8.58306884765625e-06,2026-03-29T22:26:34.257,2026-03-29T18:26:34.257,-30035.25,-42886.845,-81387.72,-50144.04,-10762.92,-17524.755,6077.61,-60559.424999999996,14.570697134149102,13.942352687409256,5.293384602073009,1.6365596912286788,3.6811763869543377,3.6246784391438123,-5.91381797089789,-1.1198060140874666,-0.135314595,-0.984189375,-0.21472113,-12.65054,-11.76546,0.42728,69.0
1774823194.257672,7.867813110351562e-06,2026-03-29T22:26:34.257,2026-03-29T18:26:34.257,-30036.195,-42885.18,-81374.805,-50126.354999999996,-10750.095,-17518.41,6078.105,-60559.155,8.835351093055161,19.077666598460798,16.4963919801159,8.91318555415661,10.931720789853559,9.125575575094633,3.686851605752698,-1.5070780226785472,-0.137145645,-0.9824803950000001,-0.213927675,-14.817459999999999,-12.07066,1.4191799999999999,69.0
1774823194.2576785,6.4373016357421875e-06,2026-03-29T22:26:34.257,2026-03-29T18:26:34.257,-30028.905,-42897.869999999995,-81376.965,-50123.34,-10748.88,-17518.454999999998,6117.57,-60542.685,-0.9745887621617111,15.371874847055155,20.354774644268705,12.25454496615466,13.226677266006607,10.423355682293664,11.010558082519864,-1.1919484674787337,-0.137145645,-0.9824803950000001,-0.213927675,-14.817459999999999,-12.07066,1.4191799999999999,69.0
1774823194.2596908,0.0020122528076171875,2026-03-29T22:26:34.259,2026-03-29T18:26:34.259,-30016.62,-42924.42,-81398.97,-50143.455,-10776.105,-17546.895,6136.785,-60491.159999999996,-10.293562999419986,4.730167093239028,15.509305646681955,10.625676232530072,9.870881367935654,7.309875906682532,13.233477829267148,-0.26936141375714573,-0.137145645,-0.9824803950000001,-0.213927675,-14.817459999999999,-12.07066,1.4191799999999999,69.0
1774823194.2597017,1.0967254638671875e-05,2026-03-29T22:26:34.259,2026-03-29T18:26:34.259,-30045.239999999998,-42943.005,-81412.37999999999,-50144.939999999995,-10771.56,-17537.309999999998,6120.179999999999,-60501.06,-14.799990401433362,-7.784949615458773,4.342366146288081,5.001508704470057,2.602709686654013,1.4592147170393936,9.976772426610237,0.8644191642726863,-0.137145645,-0.9824803950000001,-0.213927675,-14.817459999999999,-12.07066,1.4191799999999999,69.0
1774823194.262777,0.0030753612518310547,2026-03-29T22:26:34.262,2026-03-29T18:26:34.262,-30051.315,-42873.39,-81363.465,-50104.395,-10724.355,-17486.864999999998,6081.21,-60548.04,-12.439403104573119,-16.37256834677986,-8.188318126358222,-2.1780309313295967,-5.294323605750472,-4.455424617834671,3.172874186680683,1.684244448597967,-0.137145645,-0.9824803950000001,-0.213927675,-14.817459999999999,-12.07066,1.4191799999999999,69.0
1774823194.2627969,1.9788742065429688e-05,2026-03-29T22:26:34.262,2026-03-29T18:26:34.262,-30042.945,-42850.305,-81363.015,-50124.375,-10748.744999999999,-17510.445,6118.469999999999,-60518.024999999994,-4.37011815359524,-17.20046445614409,-16.763381533336958,-8.069314447987502,-10.487289303842285,-7.995227883342507,-4.065107178994827,1.7802659810674326,-0.137145645,-0.9824803950000001,-0.213927675,-14.817459999999999,-12.07066,1.4191799999999999,69.0
1774823194.266538,0.003741025924682617,2026-03-29T22:26:34.266,2026-03-29T18:26:34.266,-29993.039999999997,-42893.595,-81447.435,-50222.34,-10849.904999999999,-17606.114999999998,6086.88,-60480.45,5.607361567019607,-10.129489758104349,-17.96978916767496,-10.540726133997309,-11.01031265921697,-7.965236485306046,-8.918517839258362,1.059614698519083,-0.137145645,-0.9824803950000001,-0.213927675,-14.817459999999999,-12.07066,1.4191799999999999,69.0
1774823194.2665472,9.298324584960938e-06,2026-03-29T22:26:34.266,2026-03-29T18:26:34.266,-29990.295,-42893.82,-81433.26,-50210.64,-10835.955,-17592.84,6071.04,-60505.829999999994,12.8538909773576,1.326214620367706,-11.652577261503398,-8.91144806243263,-6.9953459698978735,-4.7802743086484805,-9.960909868560933,-0.19331476950917226,-0.137145645,-0.9824803950000001,-0.213927675,-14.817459999999999,-12.07066,1.4191799999999999,69.0
1774823194.270723,0.004175901412963867,2026-03-29T22:26:34.270,2026-03-29T18:26:34.270,-30041.73,-42865.38,-81343.70999999999,-50115.689999999995,-10740.15,-17506.755,6110.099999999999,-60558.975,14.064944740189603,11.739132231270268,-0.8189215358274644,-4.075528799988684,-0.45258785213156466,-0.09784205660036047,-7.450154241649823,-1.4327094565775895,-0.137145645,-0.9824803950000001,-0.213927675,-14.817459999999999,-12.07066,1.4191799999999999,69.0
1774823194.2707477,2.4557113647460938e-05,2026-03-29T22:26:34.270,2026-03-29T18:26:34.270,-30050.19,-42875.369999999995,-81343.845,-50118.705,-10753.38,-17529.21,6071.849999999999,-60545.295,8.787540370076687,16.349079117446703,9.791187157986899,1.9671666290839682,5.73014601071001,4.0345805685781935,-2.848218666573041,-2.094652347592547,-0.137145645,-0.9824803950000001,-0.213927675,-14.817459999999999,-12.07066,1.4191799999999999,69.0
1774823194.274552,0.003804445266723633,2026-03-29T22:26:34.274,2026-03-29T18:26:34.274,-30049.92,-42889.814999999995,-81361.89,-50141.744999999995,-10780.199999999999,-17552.475,6049.53,-60530.715,-0.4197111266283363,13.253901912280249,15.78975237841695,6.934876848931836,9.073282453280509,6.082752068000075,2.0305189981438607,-1.8567847727861695,-0.13317837,-0.97924554,-0.210021435,-13.718739999999999,-10.04108,5.08158,69.0
1774823194.2745695,1.7404556274414062e-05,2026-03-29T22:26:34.274,2026-03-29T18:26:34.274,-30029.76,-42881.805,-81365.12999999999,-50140.259999999995,-10767.96,-17534.34,6097.545,-60501.509999999995,-9.233167710953392,4.1963527340021285,14.96016539769415,9.105789762456634,8.499018907388248,5.577348604354873,5.749068708159317,-0.7927363618678356,-0.13317837,-0.97924554,-0.210021435,-13.718739999999999,-10.04108,5.08158,69.0
1774823194.2792091,0.004639625549316406,2026-03-29T22:26:34.279,2026-03-29T18:26:34.279,-30041.594999999998,-42918.345,-81402.795,-50162.49,-10783.35,-17543.97,6094.8,-60496.29,-13.605848117071654,-6.378465317052853,8.055331945317205,7.878232298262751,4.634851422588973,3.1256707688885816,7.553380099205413,0.65256895634861,-0.13317837,-0.97924554,-0.210021435,-13.718739999999999,-10.04108,5.08158,69.0
1774823194.2792437,3.457069396972656e-05,2026-03-29T22:26:34.279,2026-03-29T18:26:34.279,-30054.96,-42934.005,-81405.495,-50143.32,-10765.08,-17524.395,6091.695,-60508.305,-11.633995663886761,-13.4981908498736,-1.7019225691143371,3.8873379378102872,-0.6316674936132103,-0.032732500086906244,7.272663479050011,1.8571489099051979,-0.13317837,-0.97924554,-0.210021435,-13.718739999999999,-10.04108,5.08158,69.0
1774823194.2828224,0.003578662872314453,2026-03-29T22:26:34.282,2026-03-29T18:26:34.282,-30048.254999999997,-42927.84,-81402.705,-50111.64,-10732.59,-17492.355,6146.6849999999995,-60498.314999999995,-4.383817839514656,-14.008976644527559,-10.123285958579219,-1.3112517748101051,-5.073972784365566,-2.64841283183028,5.0731203553082995,2.2970065416216316,-0.13317837,-0.97924554,-0.210021435,-13.718739999999999,-10.04108,5.08158,69.0
1774823194.2828405,1.811981201171875e-05,2026-03-29T22:26:34.282,2026-03-29T18:26:34.282,-30042.09,-42923.564999999995,-81406.08,-50111.505,-10736.369999999999,-17502.03,6150.33,-60479.189999999995,4.6784164604373375,-7.982528537724875,-13.862523864802748,-5.838035301552415,-7.074126662368045,-3.9512998274627615,1.3410867716082109,1.7764122471340855,-0.13317837,-0.97924554,-0.210021435,-13.718739999999999,-10.04108,5.08158,69.0
1774823194.2868135,0.0039730072021484375,2026-03-29T22:26:34.286,2026-03-29T18:26:34.286,-30036.329999999998,-42921.045,-81405.27,-50132.88,-10758.105,-17525.79,6097.139999999999,-60480.494999999995,11.349542804420997,1.4469727624013815,-11.742360533418013,-8.14347903867461,-6.190669221911613,-3.8179240396587106,-3.2206285656638554,0.5103944932342591,-0.13317837,-0.97924554,-0.210021435,-13.718739999999999,-10.04108,5.08158,69.0
1774823194.2868328,1.9311904907226562e-05,2026-03-29T22:26:34.286,2026-03-29T18:26:34.286,-30018.69,-42894.674999999996,-81399.465,-50164.83,-10777.365,-17543.114999999998,6060.15,-60477.21,12.643902819592718,9.684882544778182,-5.075976558360574,-7.505463200412661,-3.1588946841945567,-2.621284788609144,-7.449733520793746,-0.9737189226727206,-0.13317837,-0.97924554,-0.210021435,-13.718739999999999,-10.04108,5.08158,69.0
1774823194.2920291,0.005196332931518555,2026-03-29T22:26:34.292,2026-03-29T18:26:34.292,-30017.61,-42895.845,-81424.98,-50210.505,-10811.565,-17575.515,6055.155,-60455.79,8.127458355897442,12.9083450319031,3.0756980568895917,-4.228389244173894,0.5899056503616826,-0.9235766992299643,-9.819546398194852,-2.0662128774749773,-0.13317837,-0.97924554,-0.210021435,-13.718739999999999,-10.04108,5.08158,69.0
1774823194.2920556,2.6464462280273438e-05,2026-03-29T22:26:34.292,2026-03-29T18:26:34.292,-30015.18,-42892.155,-81398.295,-50157.765,-10761.345,-17527.68,6118.83,-60441.39,0.03720322036168864,9.847032533164553,9.312669193174038,0.49596779567200766,3.6065104153630254,0.7868493547402418,-8.939369682504822,-2.330742869369769,-0.13317837,-0.97924554,-0.210021435,-13.718739999999999,-10.04108,5.08158,69.0
1774823194.2949245,0.0028688907623291016,2026-03-29T22:26:34.294,2026-03-29T18:26:34.294,-30020.129999999997,-42881.895,-81365.04,-50115.104999999996,-10734.255,-17503.695,6135.165,-60434.369999999995,-7.827795188951504,2.280552084886404,11.321298337085523,5.005014648269087,4.976575227715594,2.191349873743998,-4.329633063018966,-1.6753580670675199,-0.129211095,-0.97497309,-0.214904235,-15.12266,-12.894699999999998,7.84364,69.0
1774823194.2949462,2.1696090698242188e-05,2026-03-29T22:26:34.294,2026-03-29T18:26:34.294,-30061.664999999997,-42891.165,-81342.135,-50104.17,-10743.39,-17521.739999999998,6071.445,-60466.229999999996,-11.892115920127948,-5.940079934408912,8.71560695883091,7.722908587719345,4.5409457309070795,3.082718678191301,2.9465353991435688,-0.37300759596615796,-0.129211095,-0.97497309,-0.214904235,-15.12266,-12.894699999999998,7.84364,69.0
1774823194.2986283,0.0036821365356445312,2026-03-29T22:26:34.298,2026-03-29T18:26:34.298,-30048.344999999998,-42891.705,-81329.58,-50088.509999999995,-10733.67,-17517.87,6053.804999999999,-60442.47,-10.425366639332388,-10.827060469727575,2.9967665059771793,7.686685321605589,2.767529393214528,3.27027207097268,10.28054258651414,1.0645486991566049,-0.129211095,-0.97497309,-0.214904235,-15.12266,-12.894699999999998,7.84364,69.0
1774823194.2986526,2.4318695068359375e-05,2026-03-29T22:26:34.298,2026-03-29T18:26:34.298,-29994.614999999998,-42871.68,-81335.745,-50098.095,-10741.725,-17521.695,6044.355,-60411.78,-4.265987737357126,-10.18410688007304,-3.262379567274117,4.877835522050387,0.4207547675521141,2.575592322794116,14.379381006920138,2.0951360530964616,-0.129211095,-0.97497309,-0.214904235,-15.12266,-12.894699999999998,7.84364,69.0
1774823194.3028755,0.004222869873046875,2026-03-29T22:26:34.302,2026-03-29T18:26:34.302,-29992.004999999997,-42883.515,-81375.12,-50131.665,-10754.595,-17515.125,6064.11,-60433.47,3.6474004634408654,-4.598584989076934,-7.581001165363066,0.2495565564187985,-1.7686712528675812,0.9601887790412681,12.753881376252611,2.34743779154746,-0.129211095,-0.97497309,-0.214904235,-15.12266,-12.894699999999998,7.84364,69.0
1774823194.3029048,2.9325485229492188e-05,2026-03-29T22:26:34.302,2026-03-29T18:26:34.302,-30019.815,-42916.994999999995,-81415.305,-50160.42,-10771.47,-17525.07,6158.745,-60412.77,9.678325466344216,2.9525647347777335,-8.553126606825144,-4.572416441315053,-3.2902887997447032,-1.295843855335886,5.15795473684972,1.7415873579800838,-0.129211095,-0.97497309,-0.214904235,-15.12266,-12.894699999999998,7.84364,69.0
1774823194.3127415,0.009836673736572266,2026-03-29T22:26:34.312,2026-03-29T18:26:34.312,-30046.545,-42935.445,-81443.87999999999,-50179.994999999995,-10786.05,-17535.69,6191.099999999999,-60421.274999999994,11.157985389798071,8.648491391299087,-6.260076207167802,-7.834976757197593,-3.8754564920245023,-3.5193981515641566,-5.828458207323186,0.4979957101648712,-0.129211095,-0.97497309,-0.214904235,-15.12266,-12.894699999999998,7.84364,69.0
1774823194.312765,2.3365020751953125e-05,2026-03-29T22:26:34.312,2026-03-29T18:26:34.312,-30030.164999999997,-42908.174999999996,-81421.69499999999,-50161.545,-10767.824999999999,-17525.25,6154.335,-60416.145,7.553396443472501,9.73358309093321,-2.017220103670753,-8.279537515445709,-3.4367076295971053,-4.7988641458654575,-15.56723631089355,-0.9516819823003692,-0.129211095,-0.97497309,-0.214904235,-15.12266,-12.894699999999998,7.84364,69.0
1774823194.3127885,2.3603439331054688e-05,2026-03-29T22:26:34.312,2026-03-29T18:26:34.312,-30007.754999999997,-42878.159999999996,-81387.27,-50144.58,-10759.68,-17526.51,6105.195,-60405.659999999996,0.6338336919514652,5.845071829345513,2.339967041643328,-5.627779425140213,-2.0327987842980058,-4.363588686238847,-19.32400237759991,-2.1096145433311784,-0.129211095,-0.97497309,-0.214904235,-15.12266,-12.894699999999998,7.84364,69.0
1774823194.3127992,1.0728836059570312e-05,2026-03-29T22:26:34.312,2026-03-29T18:26:34.312,-30022.379999999997,-42861.869999999995,-81359.45999999999,-50133.195,-10758.24,-17529.165,6099.12,-60410.564999999995,-6.398698550677627,-0.8784071622241407,5.256016330132896,-0.7437045561534842,0.09251404054051425,-2.0278809560806086,-14.594059539602641,-2.56587523326032,-0.129211095,-0.97497309,-0.214904235,-15.12266,-12.894699999999998,7.84364,69.0
1774823194.320384,0.007584810256958008,2026-03-29T22:26:34.320,2026-03-29T18:26:34.320,-30025.079999999998,-42865.695,-81344.11499999999,-50121.854999999996,-10749.015,-17518.95,6122.385,-60383.384999999995,-10.38623716494827,-6.931920730356875,5.989821640738669,4.617896847156067,2.44598865669505,1.5484879856427547,-2.639423549571176,-2.1241395221320127,-0.12365691000000001,-0.9751561950000001,-0.21783391500000002,-11.5213,-10.819339999999999,10.08686,69.0
1774823194.3204048,2.0742416381835938e-05,2026-03-29T22:26:34.320,2026-03-29T18:26:34.320,-29998.17,-42889.229999999996,-81370.62,-50138.865,-10765.755,-17526.555,6119.82,-60373.619999999995,-9.619504775998445,-9.234499198362283,4.71045673270349,8.420792549268075,4.302954639612882,4.9835428562695565,11.663008721698137,-0.8733783607017829,-0.12365691000000001,-0.9751561950000001,-0.21783391500000002,-11.5213,-10.819339999999999,10.08686,69.0
1774823194.3204265,2.1696090698242188e-05,2026-03-29T22:26:34.320,2026-03-29T18:26:34.320,-30011.715,-42938.145,-81427.5,-50185.53,-10804.77,-17560.215,6091.065,-60371.549999999996,-4.552315493651087,-6.673060230938256,2.21103604935645,9.114123153823265,4.891217814989497,6.7030827737496095,21.797483416780562,0.8130264168718553,-0.12365691000000001,-0.9751561950000001,-0.21783391500000002,-11.5213,-10.819339999999999,10.08686,69.0
1774823194.3204381,1.1682510375976562e-05,2026-03-29T22:26:34.320,2026-03-29T18:26:34.320,-30039.03,-42929.415,-81415.26,-50167.35,-10777.095,-17536.32,6095.655,-60372.72,2.462604309352548,-0.6348393938678467,-0.5410405016213587,6.271435677387372,3.7198800976742876,5.676641644809693,22.618058913910282,2.363208589878628,-0.12365691000000001,-0.9751561950000001,-0.21783391500000002,-11.5213,-10.819339999999999,10.08686,69.0
1774823194.326418,0.005979776382446289,2026-03-29T22:26:34.326,2026-03-29T18:26:34.326,-30036.96,-42883.604999999996,-81373.185,-50135.22,-10752.93,-17521.605,6092.775,-60381.494999999995,8.264559239611247,5.724256750996998,-2.774457485854674,0.8358581195313317,0.9096975714042729,2.0094368208775535,12.982847008341796,3.1750610390674283,-0.12365691000000001,-0.9751561950000001,-0.21783391500000002,-11.5213,-10.819339999999999,10.08686,69.0
1774823194.3264306,1.2636184692382812e-05,2026-03-29T22:26:34.326,2026-03-29T18:26:34.326,-29991.059999999998,-42839.64,-81345.69,-50112.225,-10740.33,-17519.489999999998,6064.0199999999995,-60370.155,10.296933291124603,9.096248511451476,-4.065005395812249,-5.163731674492969,-2.677040991921922,-2.9402177054483105,-3.342797533320905,2.8342513383820505,-0.12365691000000001,-0.9751561950000001,-0.21783391500000002,-11.5213,-10.819339999999999,10.08686,69.0
1774823194.3264413,1.0728836059570312e-05,2026-03-29T22:26:34.326,2026-03-29T18:26:34.326,-30000.42,-42846.299999999996,-81340.515,-50100.57,-10730.789999999999,-17513.595,6023.565,-60368.715,7.715262763607964,7.705799062151914,-4.2825246237386905,-9.357459786632282,-5.650731752805269,-7.048236976477841,-19.11848679118208,1.313071629953382,-0.12365691000000001,-0.9751561950000001,-0.21783391500000002,-11.5213,-10.819339999999999,10.08686,69.0
1774823194.3264456,4.291534423828125e-06,2026-03-29T22:26:34.326,2026-03-29T18:26:34.326,-30014.28,-42877.034999999996,-81361.215,-50115.06,-10744.154999999999,-17524.035,6005.205,-60375.195,1.7206191142693883,2.2173407467487087,-3.461658410017312,-9.973733945604792,-6.633198065955127,-8.351198929534053,-26.87516970127823,-0.9402071707885182,-0.12365691000000001,-0.9751561950000001,-0.21783391500000002,-11.5213,-10.819339999999999,10.08686,69.0
1774823194.3305447,0.004099130630493164,2026-03-29T22:26:34.330,2026-03-29T18:26:34.330,-30016.17,-42895.17,-81378.765,-50136.84,-10764.315,-17540.145,6014.835,-60370.875,-5.003244340780827,-4.589585669633466,-1.7341915712035922,-6.5995439849298245,-4.912115947859293,-6.001119797930362,-22.50427416358803,-3.0945905291344595,-0.12365691000000001,-0.9751561950000001,-0.21783391500000002,-11.5213,-10.819339999999999,10.08686,69.0
1774823194.330557,1.239776611328125e-05,2026-03-29T22:26:34.330,2026-03-29T18:26:34.330,-30022.649999999998,-42884.415,-81356.67,-50115.78,-10748.52,-17528.265,6068.835,-60360.524999999994,-9.483251405425491,-9.21515413224671,0.6258960845620573,-0.42996829136158937,-0.8937070575710518,-0.7776756816778182,-7.442179467953434,-4.221081512460861,-0.12365691000000001,-0.9751561950000001,-0.21783391500000002,-11.5213,-10.819339999999999,10.08686,69.0
1774823194.3349102,0.004353046417236328,2026-03-29T22:26:34.334,2026-03-29T18:26:34.334,-30036.239999999998,-42899.445,-81371.16,-50122.665,-10753.244999999999,-17526.105,6174.495,-60343.515,-9.75421564215808,-9.20837040351346,3.1116388745761956,6.136013447512,3.9156578998557063,5.138330999192627,11.712893309056762,-3.685232866408986,-0.11743134,-0.9672826800000001,-0.21313422,-9.6901,-4.6543,7.034859999999999,69.0
1774823194.33493,1.9788742065429688e-05,2026-03-29T22:26:34.334,2026-03-29T18:26:34.334,-30058.469999999998,-42928.47,-81400.14,-50145.119999999995,-10769.355,-17528.445,6189.57,-60347.924999999996,-5.7026799917438185,-4.426315053616853,4.980211665580759,10.428008094438027,7.465969135723963,9.085192567276286,26.110984070824042,-1.486432101689953,-0.11743134,-0.9672826800000001,-0.21313422,-9.6901,-4.6543,7.034859999999999,69.0
1774823194.343722,0.00879216194152832,2026-03-29T22:26:34.343,2026-03-29T18:26:34.343,-30048.03,-42919.244999999995,-81400.455,-50144.805,-10766.52,-17525.25,6157.844999999999,-60346.53,0.8956956196709855,2.8503088547959217,5.437003341593607,10.60307318029491,8.057250199513552,9.141476026147549,28.795209260544425,1.6314452558436148,-0.11743134,-0.9672826800000001,-0.21313422,-9.6901,-4.6543,7.034859999999999,69.0
1774823194.3437426,2.0503997802734375e-05,2026-03-29T22:26:34.343,2026-03-29T18:26:34.343,-30010.23,-42873.255,-81369.405,-50123.924999999996,-10750.095,-17523.315,6107.3099999999995,-60326.055,7.151355026967469,9.014124204635923,3.98419812613448,6.452330504241049,5.171216794188129,5.077285551764984,18.115281383818473,4.39923666916779,-0.11743134,-0.9672826800000001,-0.21313422,-9.6901,-4.6543,7.034859999999999,69.0
1774823194.3437629,2.0265579223632812e-05,2026-03-29T22:26:34.343,2026-03-29T18:26:34.343,-29998.215,-42865.56,-81375.61499999999,-50137.83,-10752.345,-17527.095,6082.469999999999,-60305.985,10.31203378557023,10.908465003317472,0.7754791604830726,-0.4455011189360746,-0.17374349165632352,-1.4419189790652622,-1.2863803961401654,5.528686938804476,-0.11743134,-0.9672826800000001,-0.21313422,-9.6901,-4.6543,7.034859999999999,69.0
1774823194.3437696,6.67572021484375e-06,2026-03-29T22:26:34.343,2026-03-29T18:26:34.343,-30006.629999999997,-42868.53,-81367.245,-50133.869999999995,-10747.845,-17525.52,6036.344999999999,-60310.575,8.955565537821613,7.412469328757713,-3.242853668551259,-7.321387532847427,-5.764304687436,-7.540715817886048,-20.490807932041783,4.310433575941674,-0.11743134,-0.9672826800000001,-0.21313422,-9.6901,-4.6543,7.034859999999999,69.0
1774823194.3471324,0.003362894058227539,2026-03-29T22:26:34.347,2026-03-29T18:26:34.347,-30032.864999999998,-42869.43,-81341.73,-50118.479999999996,-10741.41,-17517.87,6072.48,-60308.64,3.6164404330044673,0.04846844882911761,-6.558031455386719,-11.340220320538041,-9.126441417795867,-10.425167491215163,-30.446253634143403,1.0272443900460326,-0.11743134,-0.9672826800000001,-0.21313422,-9.6901,-4.6543,7.034859999999999,69.0
1774823194.347159,2.6464462280273438e-05,2026-03-29T22:26:34.347,2026-03-29T18:26:34.347,-30043.26,-42904.439999999995,-81376.83,-50152.68,-10776.69,-17542.845,6054.795,-60312.24,-3.4238016935499687,-7.70064633416884,-7.66304037374684,-10.78891978673918,-8.648822321909647,-8.689497973361087,-26.294502064697536,-3.048151405415937,-0.11743134,-0.9672826800000001,-0.21313422,-9.6901,-4.6543,7.034859999999999,69.0
1774823194.3508785,0.0037195682525634766,2026-03-29T22:26:34.350,2026-03-29T18:26:34.350,-30016.35,-42921.18,-81425.7,-50192.369999999995,-10805.31,-17559.36,6048.719999999999,-60313.994999999995,-9.101020872006028,-12.048244651457875,-5.755552964897409,-5.820124911194981,-4.371387520402715,-3.014696367308258,-9.786431499163394,-6.130084801601369,-0.11743134,-0.9672826800000001,-0.21313422,-9.6901,-4.6543,7.034859999999999,69.0
1774823194.3509057,2.7179718017578125e-05,2026-03-29T22:26:34.350,2026-03-29T18:26:34.350,-30029.535,-42907.545,-81412.605,-50180.31,-10794.96,-17549.325,6138.63,-60308.055,-10.886104623679746,-10.741718440419,-1.2323563432643387,1.5790590029756932,1.9545631018849428,4.093959490363142,11.430958087296958,-6.7034857999573045,-0.11743134,-0.9672826800000001,-0.21313422,-9.6901,-4.6543,7.034859999999999,69.0
1774823194.3555212,0.0046155452728271484,2026-03-29T22:26:34.355,2026-03-29T18:26:34.355,-30034.934999999998,-42904.89,-81405.94499999999,-50167.305,-10782.63,-17543.43,6197.58,-60286.454999999994,-7.897566942476029,-4.193023514114453,4.303243795920072,8.394829612985173,7.597967900235083,9.432261221812468,27.37838956823279,-4.270446229377049,-0.11486787,-0.95165772,-0.208556595,-20.84516,-3.25038,2.01432,69.0
1774823194.3555532,3.1948089599609375e-05,2026-03-29T22:26:34.355,2026-03-29T18:26:34.355,-30031.739999999998,-42902.82,-81397.395,-50164.47,-10789.02,-17557.02,6131.79,-60281.28,-1.3263045433204503,4.652697103660576,8.599758189624978,11.835632236586354,10.05806525093137,10.570693314351665,30.4874256259354,0.3088616863237831,-0.11486787,-0.95165772,-0.208556595,-20.84516,-3.25038,2.01432,69.0
1774823194.358711,0.0031578540802001953,2026-03-29T22:26:34.358,2026-03-29T18:26:34.358,-30020.67,-42882.525,-81366.885,-50138.505,-10772.685,-17544.78,6114.24,-60270.524999999994,6.028682940366247,11.664018210374032,9.690173545023239,10.492711720966128,8.201127536840342,6.98477994686374,19.246801700073124,5.092376765542132,-0.11486787,-0.95165772,-0.208556595,-20.84516,-3.25038,2.01432,69.0
1774823194.3587327,2.1696090698242188e-05,2026-03-29T22:26:34.358,2026-03-29T18:26:34.358,-30029.76,-42901.47,-81384.345,-50149.485,-10784.43,-17553.329999999998,6093.0,-60278.534999999996,10.93904585239923,13.458797976288032,6.802625329567704,4.9195078888128485,2.7927504979714346,0.30459563536305784,-1.0267518374489801,7.879274935805249,-0.11486787,-0.95165772,-0.208556595,-20.84516,-3.25038,2.01432,69.0
1774823194.3632271,0.004494428634643555,2026-03-29T22:26:34.363,2026-03-29T18:26:34.363,-30051.09,-42935.354999999996,-81409.5,-50167.485,-10797.029999999999,-17563.545,6074.01,-60291.27,11.151606440588012,9.018104802277216,0.8219892228579592,-2.6108491998211933,-3.8294829291485173,-6.439044306185496,-20.698154954028613,7.232644648827597,-0.11486787,-0.95165772,-0.208556595,-20.84516,-3.25038,2.01432,69.0
1774823194.3632584,3.123283386230469e-05,2026-03-29T22:26:34.363,2026-03-29T18:26:34.363,-30054.69,-42933.375,-81415.215,-50164.155,-10785.015,-17550.72,6053.58,-60292.89,6.413978358074398,0.2149242927082813,-5.9521482643956585,-9.056649961898826,-8.797034969102178,-10.217171371689028,-30.419482860714204,3.22234958047138,-0.11486787,-0.95165772,-0.208556595,-20.84516,-3.25038,2.01432,69.0
1774823194.3669395,0.003681182861328125,2026-03-29T22:26:34.366,2026-03-29T18:26:34.366,-30065.445,-42979.77,-81471.42,-50210.82,-10825.74,-17591.535,6010.514999999999,-60297.165,-1.3424008758099946,-9.000414471370808,-10.69907737284492,-11.855867112877936,-9.985940757147144,-9.391870443336815,-25.617413786350117,-2.496925129173982,-0.11486787,-0.95165772,-0.208556595,-20.84516,-3.25038,2.01432,69.0
1774823194.3669577,1.811981201171875e-05,2026-03-29T22:26:34.366,2026-03-29T18:26:34.366,-30062.204999999998,-43004.88,-81502.065,-50249.744999999995,-10859.715,-17622.09,6008.804999999999,-60280.064999999995,-8.77615330608079,-14.390873210042557,-11.267372621642556,-9.947156401524536,-6.942516639654364,-4.441019774655107,-8.689682997931646,-7.363136099580827,-0.11486787,-0.95165772,-0.208556595,-20.84516,-3.25038,2.01432,69.0
1774823194.372263,0.005305290222167969,2026-03-29T22:26:34.372,2026-03-29T18:26:34.372,-30044.969999999998,-42914.79,-81382.31999999999,-50132.295,-10745.055,-17509.364999999998,6116.8949999999995,-60279.479999999996,-12.565053835747795,-13.379052880700971,-7.150795936651916,-4.153764378703269,-1.0461522949278306,2.3096301019622785,12.161462157153048,-9.066678047327901,-0.11486787,-0.95165772,-0.208556595,-20.84516,-3.25038,2.01432,69.0
1774823194.3722749,1.1920928955078125e-05,2026-03-29T22:26:34.372,2026-03-29T18:26:34.372,-30060.629999999997,-42903.63,-81358.92,-50099.085,-10714.904999999999,-17479.44,6138.09,-60286.68,-10.88508191334567,-6.255900011014477,0.19349798892292386,3.197878735826847,5.143107039214939,7.799879434141199,26.900525837626883,-6.662678739388782,-0.11486787,-0.95165772,-0.208556595,-20.84516,-3.25038,2.01432,69.0
1774823194.3747478,0.0024728775024414062,2026-03-29T22:26:34.374,2026-03-29T18:26:34.374,-30024.449999999997,-42863.22,-81347.175,-50084.055,-10705.005,-17474.175,6144.795,-60291.854999999996,-4.283531134300441,3.904823574172215,7.857818144776439,9.23495066005836,9.030656849805117,9.651164711720396,28.510869538393617,-1.0931743603496702,-0.118468935,-0.96130125,-0.21667425,-22.61532,-7.11116,-1.77016,69.0
1774823194.3747656,1.7881393432617188e-05,2026-03-29T22:26:34.374,2026-03-29T18:26:34.374,-30020.985,-42868.395,-81375.84,-50120.28,-10747.89,-17522.37,6128.955,-60274.53,4.470750337968534,12.594602514824919,12.64486847219193,11.662750964045227,9.095977928943798,7.215944256626158,16.371838180182564,5.168593713020536,-0.118468935,-0.96130125,-0.21667425,-22.61532,-7.11116,-1.77016,69.0
1774823194.3786864,0.003920793533325195,2026-03-29T22:26:34.378,2026-03-29T18:26:34.378,-30014.504999999997,-42860.97,-81353.655,-50122.215,-10756.619999999999,-17531.864999999998,6081.795,-60284.564999999995,11.538844748828915,15.878757193902175,12.406337562036951,9.613596996733323,5.478298742376616,1.7876628881961185,-3.478605806072906,9.226476545744871,-0.118468935,-0.96130125,-0.21667425,-22.61532,-7.11116,-1.77016,69.0
1774823194.378698,1.1682510375976562e-05,2026-03-29T22:26:34.378,2026-03-29T18:26:34.378,-30001.454999999998,-42869.295,-81369.54,-50145.299999999996,-10779.75,-17552.655,6063.075,-60248.34,13.692438711743938,12.167515627014621,6.996571309089708,3.9188423536994548,-0.1814707019596022,-4.08683956772364,-21.317782417226532,9.12200918861659,-0.118468935,-0.96130125,-0.21667425,-22.61532,-7.11116,-1.77016,69.0
1774823194.3827088,0.004010677337646484,2026-03-29T22:26:34.382,2026-03-29T18:26:34.382,-30013.515,-42869.25,-81366.165,-50133.509999999995,-10762.56,-17534.79,6067.17,-60249.465,9.789750732056111,2.958301154051377,-1.5758431423917656,-3.2552827064577574,-5.517811896714051,-7.826321832232298,-28.492569249835565,4.7990252340127455,-0.118468935,-0.96130125,-0.21667425,-22.61532,-7.11116,-1.77016,69.0
1774823194.3827255,1.6689300537109375e-05,2026-03-29T22:26:34.382,2026-03-29T18:26:34.382,-30008.52,-42870.689999999995,-81373.41,-50134.814999999995,-10752.93,-17516.52,6096.599999999999,-60263.909999999996,1.370686095698773,-7.78512105734917,-9.8914897414374,-9.232521027057853,-8.452513665186615,-7.970470936744671,-21.630649690773453,-1.811231459745756,-0.118468935,-0.96130125,-0.21667425,-22.61532,-7.11116,-1.77016,69.0
1774823194.387272,0.004546403884887695,2026-03-29T22:26:34.387,2026-03-29T18:26:34.387,-30018.285,-42896.295,-81405.045,-50161.14,-10768.05,-17522.1,6157.035,-60252.795,-7.936453199685042,-15.349619837640747,-14.481572260616687,-11.794617649783548,-7.995262075074677,-4.743588558340824,-4.2537684493553485,-7.657338564771007,-0.118468935,-0.96130125,-0.21667425,-22.61532,-7.11116,-1.77016,69.0
1774823194.387346,7.414817810058594e-05,2026-03-29T22:26:34.387,2026-03-29T18:26:34.387,-30050.594999999998,-42907.049999999996,-81410.94,-50180.04,-10796.13,-17557.875,6117.03,-60270.975,-13.97744985817378,-16.337608877418024,-13.266531096963094,-9.958761187097991,-4.528819057964356,0.1874474605746475,14.988716055113699,-9.996835515039145,-0.118468935,-0.96130125,-0.21667425,-22.61532,-7.11116,-1.77016,69.0
1774823194.390884,0.003537893295288086,2026-03-29T22:26:34.390,2026-03-29T18:26:34.390,-30049.155,-42886.08,-81365.31,-50129.865,-10762.109999999999,-17545.725,6042.195,-60281.369999999995,-13.932695887154923,-10.178420844154674,-6.481536353486592,-4.320544704149347,0.4697546975890467,4.581652988510804,26.59252476281132,-7.709278335451818,-0.118468935,-0.96130125,-0.21667425,-22.61532,-7.11116,-1.77016,69.0
1774823194.3908978,1.3828277587890625e-05,2026-03-29T22:26:34.390,2026-03-29T18:26:34.390,-30036.195,-42867.72,-81330.93,-50085.9,-10726.199999999999,-17514.899999999998,6046.38,-60275.52,-7.639606451976254,0.5775555338436376,3.312919193620318,3.1337960130104183,5.08343846589179,6.662594678626994,24.877109520181136,-1.8528916047842963,-0.118468935,-0.96130125,-0.21667425,-22.61532,-7.11116,-1.77016,69.0
1774823194.3955333,0.00463557243347168,2026-03-29T22:26:34.395,2026-03-29T18:26:34.395,-30017.204999999998,-42854.85,-81324.22499999999,-50084.955,-10718.055,-17496.54,6107.085,-60250.994999999995,2.2471602570596985,11.32161708241779,12.18038566729811,9.685068532786298,7.681288097108877,5.835556447871718,10.772457988266417,4.8205546039748475,-0.126525555,-0.980771415,-0.22351017,-12.467419999999999,-7.41636,-6.01244,69.0
1774823194.3955588,2.5510787963867188e-05,2026-03-29T22:26:34.395,2026-03-29T18:26:34.395,-30013.02,-42900.03,-81395.86499999999,-50163.795,-10773.135,-17527.905,6182.594999999999,-60206.445,11.373036648178603,17.36077066062414,16.37416211267706,12.814387703238703,7.445338917147858,2.793995314504086,-8.654629461199875,9.173097790569607,-0.126525555,-0.980771415,-0.22351017,-12.467419999999999,-7.41636,-6.01244,69.0
1774823194.3985825,0.0030236244201660156,2026-03-29T22:26:34.398,2026-03-29T18:26:34.398,-30039.84,-42950.655,-81445.995,-50198.58,-10796.76,-17544.87,6148.8,-60213.555,15.610960320396225,15.960244664897113,13.907405880825968,11.12785446812745,4.559882975721672,-0.9548354124612984,-23.702075713998227,9.183297550993839,-0.126525555,-0.980771415,-0.22351017,-12.467419999999999,-7.41636,-6.01244,69.0
1774823194.398601,1.8596649169921875e-05,2026-03-29T22:26:34.398,2026-03-29T18:26:34.398,-30045.51,-42947.415,-81440.595,-50185.979999999996,-10790.55,-17546.895,6103.755,-60235.695,12.941990357951449,7.5718116806665146,5.479728432793929,4.961654536035952,0.07126647268251372,-3.8478877515586563,-26.83976937326267,4.912973934804755,-0.126525555,-0.980771415,-0.22351017,-12.467419999999999,-7.41636,-6.01244,69.0
1774823194.4027479,0.0041468143463134766,2026-03-29T22:26:34.402,2026-03-29T18:26:34.402,-30027.645,-42922.215,-81428.895,-50178.33,-10788.029999999999,-17551.44,6094.8,-60229.755,4.425223567173586,-4.29770665444932,-5.663272451640263,-3.5847603500115257,-4.480316451445139,-4.921071219205123,-16.453847054398206,-1.5369271582186228,-0.126525555,-0.980771415,-0.22351017,-12.467419999999999,-7.41636,-6.01244,69.0
1774823194.4027677,1.9788742065429688e-05,2026-03-29T22:26:34.402,2026-03-29T18:26:34.402,-30032.82,-42915.015,-81411.93,-50154.03,-10764.18,-17530.875,6116.445,-60241.77,-6.213722825805228,-14.547720907459938,-14.948284129578294,-11.282691938822635,-7.532367657935633,-4.08449631853358,2.324799839866188,-7.0610437017727605,-0.126525555,-0.980771415,-0.22351017,-12.467419999999999,-7.41636,-6.01244,69.0
1774823194.4071064,0.004338741302490234,2026-03-29T22:26:34.407,2026-03-29T18:26:34.407,-30026.475,-42902.415,-81390.69,-50142.735,-10757.654999999999,-17527.14,6120.224999999999,-60239.25,-14.222191980645196,-18.67092985419651,-18.33238632649613,-14.936048921156832,-7.967389835909739,-1.9704055902867972,20.1314861990822,-9.065137026280125,-0.126525555,-0.980771415,-0.22351017,-12.467419999999999,-7.41636,-6.01244,69.0
1774823194.4071252,1.8835067749023438e-05,2026-03-29T22:26:34.407,2026-03-29T18:26:34.407,-30026.385,-42893.369999999995,-81387.0,-50149.439999999995,-10764.72,-17534.16,6113.61,-60228.494999999995,-15.96307092114512,-14.734110769280836,-14.059879242271265,-12.689878000251028,-5.483441557000734,0.48123139678908233,27.997225641602405,-6.71434538950556,-0.126525555,-0.980771415,-0.22351017,-12.467419999999999,-7.41636,-6.01244,69.0
1774823194.4163682,0.009243011474609375,2026-03-29T22:26:34.416,2026-03-29T18:26:34.416,-30043.26,-42886.89,-81380.34,-50144.67,-10758.6,-17531.235,6078.87,-60230.655,-10.585747225275988,-4.285169794503731,-3.5597567798754346,-4.963156049355983,-0.771844300672862,2.4453452894853256,21.822325066317447,-1.3004648506906984,-0.126525555,-0.980771415,-0.22351017,-12.467419999999999,-7.41636,-6.01244,69.0
1774823194.4163833,1.5020370483398438e-05,2026-03-29T22:26:34.416,2026-03-29T18:26:34.416,-30046.905,-42892.29,-81380.565,-50148.09,-10768.859999999999,-17546.085,6014.429999999999,-60235.515,-0.44823322251876924,8.23933433340942,8.968665543305011,5.458399870851968,4.593046799851171,3.449630914492954,4.478499620259547,4.443711083186031,-0.126525555,-0.980771415,-0.22351017,-12.467419999999999,-7.41636,-6.01244,69.0
1774823194.4164069,2.3603439331054688e-05,2026-03-29T22:26:34.416,2026-03-29T18:26:34.416,-30009.42,-42886.08,-81370.845,-50139.674999999996,-10770.615,-17554.905,6008.355,-60217.155,9.923068468268752,17.390491642408016,18.203857575151748,14.347163650754698,8.598805605341292,3.3856991492618307,-15.525814113046069,7.7276698049678165,-0.126403485,-0.98766837,-0.21984807,-8.1641,-3.92182,-8.33196,69.0
1774823194.4164135,6.67572021484375e-06,2026-03-29T22:26:34.416,2026-03-29T18:26:34.416,-30004.965,-42900.659999999996,-81382.95,-50147.595,-10786.994999999999,-17570.79,6076.304999999999,-60188.579999999994,15.875616419416685,19.0810766802743,19.957974410832243,17.720657987983504,9.505032564412252,2.3892352235496084,-28.196859850807407,7.082410873129809,-0.126403485,-0.98766837,-0.21984807,-8.1641,-3.92182,-8.33196,69.0
1774823194.4282472,0.011833667755126953,2026-03-29T22:26:34.428,2026-03-29T18:26:34.428,-30031.695,-42904.439999999995,-81385.11,-50140.215,-10771.83,-17542.71,6111.045,-60217.335,14.744496952215568,12.424506211562234,13.090831999659898,13.636662618930698,6.5976055324172425,0.7281086645064028,-27.006221587122337,3.0441617144502198,-0.126403485,-0.98766837,-0.21984807,-8.1641,-3.92182,-8.33196,69.0
1774823194.4282625,1.52587890625e-05,2026-03-29T22:26:34.428,2026-03-29T18:26:34.428,-30019.725,-42878.43,-81352.53,-50110.11,-10740.285,-17511.12,6116.219999999999,-60232.005,7.064835129074855,0.206084857389602,0.20265616412367995,3.284432223390748,0.6629219184106621,-1.2257859490765397,-12.203338175618727,-2.1880213576782634,-0.126403485,-0.98766837,-0.21984807,-8.1641,-3.92182,-8.33196,69.0
1774823194.4282773,1.4781951904296875e-05,2026-03-29T22:26:34.428,2026-03-29T18:26:34.428,-30031.739999999998,-42896.205,-81374.265,-50125.545,-10743.029999999999,-17504.595,6132.33,-60224.715,-3.678786007339383,-12.267075830684465,-13.298445791612478,-9.230322541936232,-6.108203452852481,-2.9757421042340115,9.173028138514763,-5.925171929443257,-0.126403485,-0.98766837,-0.21984807,-8.1641,-3.92182,-8.33196,69.0
1774823194.4282813,4.0531158447265625e-06,2026-03-29T22:26:34.428,2026-03-29T18:26:34.428,-30051.405,-42938.64,-81426.06,-50177.025,-10777.32,-17528.715,6131.969999999999,-60207.03,-12.651066595877834,-19.474170836588108,-21.453751346131817,-18.4713485353751,-10.87388579016112,-3.935730226201342,26.644435676884783,-6.375058434255637,-0.126403485,-0.98766837,-0.21984807,-8.1641,-3.92182,-8.33196,69.0
1774823194.4282868,5.4836273193359375e-06,2026-03-29T22:26:34.428,2026-03-29T18:26:34.428,-30076.649999999998,-42957.63,-81434.925,-50195.564999999995,-10797.93,-17553.465,6116.3099999999995,-60207.795,-15.872462380257097,-18.145244055701774,-20.404631185986915,-20.043669866713007,-11.329172867949834,-3.6008963206920375,31.408712220015722,-3.525745319797497,-0.126403485,-0.98766837,-0.21984807,-8.1641,-3.92182,-8.33196,69.0
1774823194.4282908,4.0531158447265625e-06,2026-03-29T22:26:34.428,2026-03-29T18:26:34.428,-30060.855,-42970.86,-81448.83,-50207.13,-10809.539999999999,-17566.785,6064.335,-60211.305,-12.012925970249125,-8.773928765450524,-10.250806146759015,-12.714412027851234,-6.836818716256716,-1.821166349053038,20.731856227223712,0.9195132824065473,-0.126403485,-0.98766837,-0.21984807,-8.1641,-3.92182,-8.33196,69.0
1774823194.4357877,0.007496833801269531,2026-03-29T22:26:34.435,2026-03-29T18:26:34.435,-30001.004999999997,-42948.765,-81447.39,-50199.345,-10806.93,-17566.92,6058.9349999999995,-60204.6,-2.950420185816521,4.535306337878458,4.79220713631707,0.7533963663378638,1.0603640421368412,0.9725817477043859,-0.5606497987916279,4.501679495051846,-0.126403485,-0.98766837,-0.21984807,-8.1641,-3.92182,-8.33196,69.0
1774823194.4357977,1.0013580322265625e-05,2026-03-29T22:26:34.435,2026-03-29T18:26:34.435,-29975.489999999998,-42912.854999999996,-81425.83499999999,-50194.619999999995,-10813.23,-17577.18,6073.5599999999995,-60163.965,7.146467929743098,15.861383258093795,18.11787115885428,14.578013736244852,9.09501225951824,3.7756821598812125,-22.282477161048057,5.338088500105494,-0.126403485,-0.98766837,-0.21984807,-8.1641,-3.92182,-8.33196,69.0
1774823194.4358084,1.0728836059570312e-05,2026-03-29T22:26:34.435,2026-03-29T18:26:34.435,-29995.739999999998,-42884.189999999995,-81388.215,-50152.77,-10776.869999999999,-17551.079999999998,6071.804999999999,-60188.04,13.763255267985716,20.123352177327792,23.647823693500317,22.443728564379523,13.615876956741712,5.3429643261483095,-33.76721300756604,3.115781916854213,-0.131164215,-0.98547111,-0.22119084,-10.43784,-12.894699999999998,-10.28524,69.0
1774823194.4358132,4.76837158203125e-06,2026-03-29T22:26:34.435,2026-03-29T18:26:34.435,-30012.39,-42861.825,-81342.045,-50091.165,-10725.615,-17514.809999999998,6050.07,-60223.814999999995,14.092896314958955,15.399399143826379,18.650711333688005,20.427366044503245,12.272005055692667,4.755928357173194,-29.08995938298068,-0.7791309603186446,-0.131164215,-0.98547111,-0.22119084,-10.43784,-12.894699999999998,-10.28524,69.0
1774823194.441106,0.0052928924560546875,2026-03-29T22:26:34.441,2026-03-29T18:26:34.441,-30033.135,-42881.49,-81357.075,-50100.795,-10733.355,-17521.739999999998,6014.429999999999,-60232.454999999994,8.247634423671498,3.8314811631354524,5.13368742076015,8.992819611020638,5.252816991305337,1.9591539389459356,-10.078825478053368,-4.056928240837393,-0.131164215,-0.98547111,-0.22119084,-10.43784,-12.894699999999998,-10.28524,69.0
1774823194.4411263,2.0265579223632812e-05,2026-03-29T22:26:34.441,2026-03-29T18:26:34.441,-30056.805,-42933.195,-81442.98,-50199.479999999996,-10808.955,-17577.809999999998,5983.74,-60252.795,-0.9050558922784135,-9.329358608433617,-10.919689304822793,-6.97578211902287,-4.57661219208648,-2.044896697410204,14.399816104764273,-4.808865079703407,-0.131164215,-0.98547111,-0.22119084,-10.43784,-12.894699999999998,-10.28524,69.0
1774823194.4411466,2.0265579223632812e-05,2026-03-29T22:26:34.441,2026-03-29T18:26:34.441,-30022.965,-42940.89,-81478.665,-50249.744999999995,-10839.42,-17590.14,6062.535,-60199.74,-9.159665694634686,-18.12239626397387,-22.204907647998184,-20.249930015185747,-12.824434431823853,-5.521177798427388,32.60492893212894,-2.5805662616776326,-0.131164215,-0.98547111,-0.22119084,-10.43784,-12.894699999999998,-10.28524,69.0
1774823194.4411564,9.775161743164062e-06,2026-03-29T22:26:34.441,2026-03-29T18:26:34.441,-30012.704999999998,-42888.6,-81390.42,-50163.75,-10761.21,-17513.64,6179.67,-60198.255,-12.939074067952156,-18.62024556107855,-23.467279369215728,-24.567988038581273,-15.558176233562092,-6.764472273727471,35.56773047274778,1.3559320619029411,-0.131164215,-0.98547111,-0.22119084,-10.43784,-12.894699999999998,-10.28524,69.0
1774823194.4480524,0.006896018981933594,2026-03-29T22:26:34.448,2026-03-29T18:26:34.448,-30026.25,-42875.01,-81352.26,-50127.884999999995,-10745.055,-17510.085,6156.36,-60190.92,-10.875872330078511,-10.734111332778424,-14.012750344680173,-17.64838474244288,-11.219763749810488,-4.9591445290410805,21.49951954306827,4.691885732706075,-0.131164215,-0.98547111,-0.22119084,-10.43784,-12.894699999999998,-10.28524,69.0
1774823194.4480677,1.52587890625e-05,2026-03-29T22:26:34.448,2026-03-29T18:26:34.448,-30050.28,-42869.924999999996,-81334.17,-50107.634999999995,-10735.695,-17505.989999999998,6143.58,-60205.005,-4.294184776763513,1.7734909096733389,1.8695024566352954,-2.428527446814143,-1.5192710693871476,-0.693210841273052,-3.2037917959256306,5.370862454602663,-0.131164215,-0.98547111,-0.22119084,-10.43784,-12.894699999999998,-10.28524,69.0
1774823194.4523509,0.00428318977355957,2026-03-29T22:26:34.452,2026-03-29T18:26:34.452,-30047.67,-42884.955,-81351.855,-50116.634999999995,-10736.55,-17501.895,6111.179999999999,-60219.765,3.5723438772411673,13.080173878311388,16.840730846311107,14.15495592619013,9.205534863407845,4.187490707395801,-26.903778233283518,2.778490432367041,-0.131164215,-0.98547111,-0.22119084,-10.43784,-12.894699999999998,-10.28524,69.0
1774823194.4523623,1.1444091796875e-05,2026-03-29T22:26:34.452,2026-03-29T18:26:34.452,-30019.635,-42892.47,-81369.81,-50127.39,-10747.664999999999,-17522.055,5988.105,-60225.884999999995,9.186728833996694,18.04994631720446,23.939616195100164,24.355524581246545,15.945969798960924,7.382861180019215,-38.24262840849362,-1.8303092541783734,-0.131164215,-0.98547111,-0.22119084,-10.43784,-12.894699999999998,-10.28524,69.0
1774823194.4575717,0.005209445953369141,2026-03-29T22:26:34.457,2026-03-29T18:26:34.457,-29982.059999999998,-42864.659999999996,-81339.66,-50102.145,-10736.055,-17526.105,5959.9349999999995,-60211.259999999995,10.334643204617185,14.624080920146962,19.88793096737566,23.29792634865712,15.406002605685899,7.248115773526668,-31.610532891968898,-5.933317468017354,-0.14379846,-0.98486076,-0.225890535,-14.069719999999998,-18.4646,-9.40016,69.0
1774823194.457594,2.2172927856445312e-05,2026-03-29T22:26:34.457,2026-03-29T18:26:34.457,-30015.045,-42885.9,-81330.705,-50101.74,-10741.904999999999,-17528.985,6087.15,-60206.579999999994,7.006425092151431,4.716633611660857,6.674716576561282,11.374131510974413,7.6584316254496105,3.6627510411562967,-9.914195354386095,-7.085239595554563,-0.14379846,-0.98486076,-0.225890535,-14.069719999999998,-18.4646,-9.40016,69.0
1774823194.464407,0.00681304931640625,2026-03-29T22:26:34.464,2026-03-29T18:26:34.464,-30002.129999999997,-42876.854999999996,-81335.11499999999,-50112.72,-10744.965,-17524.079999999998,6156.99,-60180.479999999996,1.1779371345623506,-6.799251830934881,-9.378909903528506,-5.852524892834831,-3.7775340891781233,-1.8084028348035337,16.72010634332677,-4.299723644730667,-0.14379846,-0.98486076,-0.225890535,-14.069719999999998,-18.4646,-9.40016,69.0
1774823194.464435,2.8133392333984375e-05,2026-03-29T22:26:34.464,2026-03-29T18:26:34.464,-30019.635,-42918.39,-81385.83,-50143.275,-10764.494999999999,-17528.265,6179.94,-60177.195,-4.311927896233568,-14.498070995556501,-20.654158167201935,-20.25092843415148,-13.540171216187389,-6.595907895878159,35.72288791096208,1.2875235477282492,-0.14379846,-0.98486076,-0.225890535,-14.069719999999998,-18.4646,-9.40016,69.0
1774823194.464462,2.6941299438476562e-05,2026-03-29T22:26:34.464,2026-03-29T18:26:34.464,-30053.295,-42946.74,-81416.43,-50168.025,-10784.16,-17538.75,6137.19,-60214.905,-7.167625219274707,-15.009882004253265,-21.908386609554185,-25.01274709821219,-16.978295570398064,-8.353694834473183,38.0651607636072,6.877424607008002,-0.14379846,-0.98486076,-0.225890535,-14.069719999999998,-18.4646,-9.40016,69.0
1774823194.4644728,1.0728836059570312e-05,2026-03-29T22:26:34.464,2026-03-29T18:26:34.464,-30067.199999999997,-42957.0,-81444.78,-50191.784999999996,-10794.465,-17545.68,6132.96,-60212.79,-6.621100701583987,-8.55309878739495,-12.791840244355383,-17.945273573053463,-12.420353498223669,-6.137749670199006,22.57917452460225,9.405227002445232,-0.14379846,-0.98486076,-0.225890535,-14.069719999999998,-18.4646,-9.40016,69.0
1774823194.4672787,0.002805948257446289,2026-03-29T22:26:34.467,2026-03-29T18:26:34.467,-30077.235,-42961.32,-81456.93,-50209.47,-10807.065,-17558.73,6127.2,-60188.265,-3.559152791893362,1.3341750780871247,2.0368588214832806,-2.540975055076602,-2.028914896807119,-0.9311035888888741,-3.466400929822054,7.180159146625041,-0.14379846,-0.98486076,-0.225890535,-14.069719999999998,-18.4646,-9.40016,69.0
1774823194.4672968,1.811981201171875e-05,2026-03-29T22:26:34.467,2026-03-29T18:26:34.467,-30048.57,-42920.369999999995,-81405.855,-50178.195,-10794.015,-17555.445,6108.974999999999,-60172.829999999994,0.17070782749006025,9.682422138906178,15.257474419699657,13.725732832175149,9.213931000747708,4.7822130200968465,-27.82076355801422,0.9034325778016179,-0.14379846,-0.98486076,-0.225890535,-14.069719999999998,-18.4646,-9.40016,69.0
1774823194.4710734,0.00377655029296875,2026-03-29T22:26:34.471,2026-03-29T18:26:34.471,-30007.664999999997,-42876.63,-81376.37999999999,-50144.265,-10757.744999999999,-17519.895,6114.285,-60208.875,2.826084034176264,12.60969875866312,20.528921147731026,23.053815333986485,15.920045730049566,8.214902829499819,-39.07806143912465,-6.515303081200947,-0.14379846,-0.98486076,-0.225890535,-14.069719999999998,-18.4646,-9.40016,69.0
1774823194.4710898,1.6450881958007812e-05,2026-03-29T22:26:34.471,2026-03-29T18:26:34.471,-30022.605,-42892.064999999995,-81389.34,-50149.935,-10762.605,-17530.245,6107.76,-60200.685,3.610000983430301,9.185972936200855,15.602047727081652,21.122966836028574,14.927473464896874,7.662313819499705,-32.0795164146251,-11.319582174076446,-0.14379846,-0.98486076,-0.225890535,-14.069719999999998,-18.4646,-9.40016,69.0
1774823194.475551,0.004461050033569336,2026-03-29T22:26:34.475,2026-03-29T18:26:34.475,-30040.11,-42894.314999999995,-81374.94,-50143.185,-10759.455,-17529.66,6114.87,-60189.03,2.8691145974582684,1.7203208552463902,3.34512815287288,9.16533450134895,6.843303306137825,3.3759774490055467,-10.305383839012746,-10.802551372836227,-0.14733849,-0.988705965,-0.227233305,-14.63434,-21.6692,-10.3005,69.0
1774823194.475574,2.3126602172851562e-05,2026-03-29T22:26:34.475,2026-03-29T18:26:34.475,-29996.954999999998,-42891.705,-81382.31999999999,-50150.115,-10774.215,-17547.66,6093.179999999999,-60171.435,1.6250890259935178,-5.6201891690702706,-9.820100953369481,-6.724814161752944,-4.279154798660385,-2.533750900915767,15.867120053325857,-4.781872800402781,-0.14733849,-0.988705965,-0.227233305,-14.63434,-21.6692,-10.3005,69.0
1774823194.478788,0.0032138824462890625,2026-03-29T22:26:34.478,2026-03-29T18:26:34.478,-29985.164999999997,-42891.479999999996,-81373.77,-50128.47,-10756.935,-17537.265,6068.79,-60187.994999999995,0.7917072139619473,-9.085225584147889,-17.25469203637172,-18.685460726909252,-12.972601497066718,-7.1375769398398825,34.16678443204878,4.133949175691099,-0.14733849,-0.988705965,-0.227233305,-14.63434,-21.6692,-10.3005,69.0
1774823194.4788136,2.574920654296875e-05,2026-03-29T22:26:34.478,2026-03-29T18:26:34.478,-30022.785,-42918.075,-81385.92,-50143.814999999995,-10770.48,-17547.84,6054.344999999999,-60192.36,0.5838410964270636,-7.28650390535054,-15.48833569731564,-21.018066482149063,-15.077925752464896,-8.156066149907486,36.25870146226801,11.69117384060734,-0.14733849,-0.988705965,-0.227233305,-14.63434,-21.6692,-10.3005,69.0
1774823194.4828715,0.004057884216308594,2026-03-29T22:26:34.482,2026-03-29T18:26:34.482,-30026.565,-42902.64,-81394.29,-50157.405,-10776.015,-17552.34,6049.62,-60182.64,0.4760149515696379,-1.7929706201751638,-5.912112864116158,-12.971697259465829,-9.785583590246551,-5.113079671533956,21.59951105221811,14.03786975329254,-0.14733849,-0.988705965,-0.227233305,-14.63434,-21.6692,-10.3005,69.0
1774823194.4828916,2.002716064453125e-05,2026-03-29T22:26:34.482,2026-03-29T18:26:34.482,-29998.89,-42860.97,-81379.62,-50145.705,-10758.645,-17541.36,6036.48,-60173.055,-0.2881615445837605,3.9023414246281654,6.080964769624567,1.0114569437310665,0.02882908495766608,0.4203373301577088,-2.4932196574404237,9.678986767941911,-0.14733849,-0.988705965,-0.227233305,-14.63434,-21.6692,-10.3005,69.0
1774823194.4873989,0.004507303237915039,2026-03-29T22:26:34.487,2026-03-29T18:26:34.487,-29986.335,-42847.56,-81352.395,-50120.325,-10732.095,-17521.649999999998,5972.715,-60185.204999999994,-1.9871164665530183,6.437474748009946,14.032768329269157,13.678976905215864,9.329362506530279,5.625231180803107,-24.513433107652645,0.3490867070120895,-0.14733849,-0.988705965,-0.227233305,-14.63434,-21.6692,-10.3005,69.0
1774823194.4874315,3.266334533691406e-05,2026-03-29T22:26:34.487,2026-03-29T18:26:34.487,-29944.035,-42801.93,-81288.765,-50055.03,-10678.994999999999,-17475.345,5962.905,-60169.905,-4.003492336695613,4.501923010864497,13.870104203369335,18.725834134492167,13.509436207636151,7.874071517714196,-34.3331146972503,-9.683095165646305,-0.14733849,-0.988705965,-0.227233305,-14.63434,-21.6692,-10.3005,69.0
1774823194.492176,0.004744529724121094,2026-03-29T22:26:34.492,2026-03-29T18:26:34.492,-29990.34,-42826.365,-81300.42,-50059.935,-10691.234999999999,-17479.44,6076.98,-60178.5,-5.025120462564779,-0.45174197963728296,6.034906151145372,13.980200990640073,10.711413027238414,6.072679656993287,-27.941658167964505,-15.596646010730721,-0.14733849,-0.988705965,-0.227233305,-14.63434,-21.6692,-10.3005,69.0
1774823194.4922025,2.6464462280273438e-05,2026-03-29T22:26:34.492,2026-03-29T18:26:34.492,-30051.945,-42901.74,-81376.965,-50138.189999999995,-10755.315,-17531.505,6143.58,-60189.03,-3.8145216109752296,-5.103924493085202,-4.837117256243819,2.3868331994679055,2.6914082349814406,1.2124141636348669,-9.10449333499288,-14.353453524794883,-0.14733849,-0.988705965,-0.227233305,-14.63434,-21.6692,-10.3005,69.0
1774823194.495139,0.0029363632202148438,2026-03-29T22:26:34.495,2026-03-29T18:26:34.495,-30037.86,-42965.369999999995,-81463.545,-50218.604999999996,-10820.609999999999,-17576.145,6189.12,-60151.185,-0.12018057341184045,-6.268025128961728,-12.511591684827692,-9.683013085706753,-6.19260009513116,-4.154237421196303,12.757755432565691,-6.246417199218356,-0.138000135,-0.996396375,-0.22558536,-9.12548,-18.28148,-8.881319999999999,69.0
1774823194.4951608,2.193450927734375e-05,2026-03-29T22:26:34.495,2026-03-29T18:26:34.495,-30029.399999999998,-42966.405,-81479.385,-50244.615,-10846.439999999999,-17589.735,6166.755,-60143.13,4.844858062432484,-2.855919032896121,-12.620635161367415,-15.86841461575084,-11.313836857125732,-7.243781904418253,27.31155269835495,5.124498712954164,-0.138000135,-0.996396375,-0.22558536,-9.12548,-18.28148,-8.881319999999999,69.0
