unix_time_s,dt_s,UTC,LOCAL,EMG1_Raw,EMG2_Raw,EMG3_Raw,EMG4_Raw,EMG5_Raw,EMG6_Raw,EMG7_Raw,EMG8_Raw,EMG1_Filtered,EMG2_Filtered,EMG3_Filtered,EMG4_Filtered,EMG5_Filtered,EMG6_Filtered,EMG7_Filtered,EMG8_Filtered,Accel1_Raw,Accel2_Raw,Accel3_Raw,Gyro1_Raw,Gyro2_Raw,Gyro3_Raw,Battery
1774822891.4919949,,2026-03-29T22:21:31.491,2026-03-29T18:21:31.491,-32427.405,-45991.35,-85621.00499999999,-49967.64,-11961.09,-17413.02,6934.905,-61127.505,-1.1425000089765842,-1.6469484594571144,-1.7272624902342193,-1.9103930489376275,-1.8316577801765022,-0.05116656183696614,1.1405673009729353,0.45295315803501507,0.169005915,-0.901547985,0.426573615,-5.38678,-1.2818399999999999,-7.034859999999999,69.0
1774822891.492012,1.71661376953125e-05,2026-03-29T22:21:31.492,2026-03-29T18:21:31.492,-32443.469999999998,-46026.63,-85672.485,-49984.83,-11972.564999999999,-17436.555,6926.355,-61109.909999999996,-3.6800635862341933,-8.5653931952201,-15.00111353707761,-5.042614660596479,-5.001706570287116,-4.700429946372508,-3.08654728929388,0.6036066045211987,0.169005915,-0.901547985,0.426573615,-5.38678,-1.2818399999999999,-7.034859999999999,69.0
1774822891.4952796,0.003267526626586914,2026-03-29T22:21:31.495,2026-03-29T18:21:31.495,-32439.555,-46030.14,-85685.31,-49987.845,-11974.68,-17424.989999999998,6910.29,-61112.79,-4.555347769438209,-11.484012603553232,-21.081593390300693,-5.616874917972433,-5.735026300174495,-7.215961787982158,-6.186340573304226,0.23087852993460645,0.16821246,-0.8947731,0.42285048000000003,-10.08686,0.6714399999999999,-8.28618,69.0
1774822891.495298,1.8358230590820312e-05,2026-03-29T22:21:31.495,2026-03-29T18:21:31.495,-32425.245,-46001.025,-85648.275,-49966.965,-11953.529999999999,-17390.475,6891.3,-61140.465,-3.3036621151634136,-9.044072807962868,-17.261836087961413,-3.2812879615328883,-3.5018320918588355,-6.288547169520019,-6.803970306533845,-0.4760855193322407,0.16821246,-0.8947731,0.42285048000000003,-10.08686,0.6714399999999999,-8.28618,69.0
1774822891.5003097,0.005011796951293945,2026-03-29T22:21:31.500,2026-03-29T18:21:31.500,-32421.555,-45985.994999999995,-85623.97499999999,-49973.85,-11957.4,-17384.805,6878.429999999999,-61146.18,-0.4599113589207319,-2.411771322376103,-5.538119569620115,0.8183102888994389,0.6998394894950637,-2.263242491396019,-4.569646409097111,-1.060440982585335,0.16821246,-0.8947731,0.42285048000000003,-10.08686,0.6714399999999999,-8.28618,69.0
1774822891.500347,3.719329833984375e-05,2026-03-29T22:21:31.500,2026-03-29T18:21:31.500,-32412.51,-45966.42,-85586.265,-49963.68,-11947.005,-17376.48,6888.42,-61133.31,2.670811630515248,5.283686378102323,8.427796614894238,4.600700200091559,4.798487214281519,2.9869243284031075,-0.30955190658574366,-1.0727366126856965,0.16821246,-0.8947731,0.42285048000000003,-10.08686,0.6714399999999999,-8.28618,69.0
1774822891.5035024,0.0031554698944091797,2026-03-29T22:21:31.503,2026-03-29T18:21:31.503,-32407.829999999998,-45960.615,-85571.45999999999,-49946.805,-11930.265,-17365.14,6901.605,-61128.674999999996,4.616871018719457,10.440523745146892,18.067971759858423,6.103227934232228,6.678333094564618,6.9426152707601725,4.244154031553202,-0.36817649583907713,0.16821246,-0.8947731,0.42285048000000003,-10.08686,0.6714399999999999,-8.28618,69.0
1774822891.50353,2.765655517578125e-05,2026-03-29T22:21:31.503,2026-03-29T18:21:31.503,-32427.315,-45995.759999999995,-85605.075,-49941.405,-11927.205,-17364.96,6916.32,-61130.159999999996,4.43654961276501,10.686807615303278,19.03296313385883,4.494110772181137,5.268097547430068,7.6553159062302445,7.152124596795392,0.7567990894116501,0.16821246,-0.8947731,0.42285048000000003,-10.08686,0.6714399999999999,-8.28618,69.0
1774822891.5077758,0.004245758056640625,2026-03-29T22:21:31.507,2026-03-29T18:21:31.507,-32422.094999999998,-45999.99,-85613.58,-49940.955,-11938.14,-17383.41,6923.88,-61120.485,2.175423089693066,5.982250142351257,11.178701589570904,0.5227865130031167,1.1295188876452444,4.707818139612968,7.097194270849516,1.6873657319849884,0.16821246,-0.8947731,0.42285048000000003,-10.08686,0.6714399999999999,-8.28618,69.0
1774822891.5077991,2.3365020751953125e-05,2026-03-29T22:21:31.507,2026-03-29T18:21:31.507,-32422.41,-45997.29,-85612.995,-49955.805,-11945.699999999999,-17377.559999999998,6905.835,-61127.235,-1.1384503541348747,-1.3976042095231613,-1.5036964439004132,-3.832081643485791,-3.7707168621910645,-0.5562000915625758,3.9884218474626385,1.8230600662441938,0.16821246,-0.8947731,0.42285048000000003,-10.08686,0.6714399999999999,-8.28618,69.0
1774822891.5117795,0.003980398178100586,2026-03-29T22:21:31.511,2026-03-29T18:21:31.511,-32412.059999999998,-45996.525,-85612.36499999999,-49953.96,-11957.49,-17388.899999999998,6893.46,-61108.695,-3.9664705760291614,-7.9711201431243515,-12.919681133605774,-6.350264728465051,-7.010664093574864,-5.655149264506361,-0.9406965989438911,0.9416045308126179,0.16821246,-0.8947731,0.42285048000000003,-10.08686,0.6714399999999999,-8.28618,69.0
1774822891.5117967,1.71661376953125e-05,2026-03-29T22:21:31.511,2026-03-29T18:21:31.511,-32415.84,-45997.56,-85623.84,-49949.549999999996,-11945.835,-17381.204999999998,6916.815,-61109.145,-4.979826514415455,-10.70871220175645,-17.828044396614683,-5.6990933917828865,-6.918968452693362,-8.151265925649364,-5.613059455764161,-0.6186843470267489,0.16821246,-0.8947731,0.42285048000000003,-10.08686,0.6714399999999999,-8.28618,69.0
1774822891.5156224,0.003825664520263672,2026-03-29T22:21:31.515,2026-03-29T18:21:31.515,-32426.414999999997,-45993.465,-85611.735,-49928.31,-11916.539999999999,-17358.704999999998,6928.92,-61131.104999999996,-3.688139468497973,-8.4422369926466,-14.275228441113397,-2.1303246352162066,-3.4321704514754328,-6.8227878579843875,-7.9858444631113485,-2.0828197411604905,0.16577106,-0.89526138,0.422423235,-9.87322,0.36624,-9.24756,69.0
1774822891.5156417,1.9311904907226562e-05,2026-03-29T22:21:31.515,2026-03-29T18:21:31.515,-32410.844999999998,-45987.975,-85608.62999999999,-49937.67,-11923.244999999999,-17364.69,6911.46,-61124.625,-0.6768998243852294,-2.363648716552882,-4.3633984819141896,2.6169034627021284,1.835138869089422,-2.25965744167278,-6.953698667163138,-2.6279426846706313,0.16577106,-0.89526138,0.422423235,-9.87322,0.36624,-9.24756,69.0
1774822891.5200012,0.00435948371887207,2026-03-29T22:21:31.520,2026-03-29T18:21:31.520,-32420.43,-46003.229999999996,-85631.805,-49967.28,-11936.564999999999,-17363.25,6909.795,-61129.35,2.6615178765948464,4.599930899756344,6.9441987006662425,6.1697808166375205,6.3555307941344505,3.4069763565743,-2.8732060271996818,-1.8403332989159538,0.16577106,-0.89526138,0.422423235,-9.87322,0.36624,-9.24756,69.0
1774822891.5200145,1.33514404296875e-05,2026-03-29T22:21:31.520,2026-03-29T18:21:31.520,-32433.48,-46008.45,-85632.84,-49975.65,-11946.6,-17371.62,6909.165,-61136.46,4.778071331406005,9.207637233349603,14.318525139718586,6.710259534577874,7.918760322711182,7.513328374119786,2.5447538126507934,0.011095764546355405,0.16577106,-0.89526138,0.422423235,-9.87322,0.36624,-9.24756,69.0
1774822891.5233724,0.0033578872680664062,2026-03-29T22:21:31.523,2026-03-29T18:21:31.523,-32415.84,-45977.715,-85596.20999999999,-49962.33,-11948.265,-17373.69,6923.835,-61117.829999999994,4.691883796234812,9.426819492750552,14.60102924652653,3.901458160677841,5.720204247319209,8.126254499394257,6.952957800195006,2.053778506907119,0.16577106,-0.89526138,0.422423235,-9.87322,0.36624,-9.24756,69.0
1774822891.5233893,1.6927719116210938e-05,2026-03-29T22:21:31.523,2026-03-29T18:21:31.523,-32405.085,-45969.165,-85594.77,-49974.345,-11960.865,-17387.1,6924.0599999999995,-61114.994999999995,2.4476183313655757,5.33417841204441,8.162164178508762,-0.9190147294761954,0.7679281052975301,4.957060435362116,8.395146899414996,3.228734963456172,0.16577106,-0.89526138,0.422423235,-9.87322,0.36624,-9.24756,69.0
1774822891.5288172,0.005427837371826172,2026-03-29T22:21:31.528,2026-03-29T18:21:31.528,-32406.975,-45972.81,-85606.245,-49962.915,-11946.555,-17378.64,6921.045,-61123.545,-0.9093179466764076,-1.005567185436903,-1.5045789025418737,-5.384807557949989,-4.595281424102585,-0.5078745841988931,6.188237965093325,2.843968591479653,0.16577106,-0.89526138,0.422423235,-9.87322,0.36624,-9.24756,69.0
1774822891.528848,3.075599670410156e-05,2026-03-29T22:21:31.528,2026-03-29T18:21:31.528,-32420.655,-45999.99,-85645.935,-49974.93,-11961.359999999999,-17382.69,6914.835,-61131.509999999995,-3.8255585176132816,-6.585364167888916,-9.653388122059726,-7.270050660310523,-7.821295384371232,-5.716275208330256,1.254750683946609,0.9730216147028548,0.16577106,-0.89526138,0.422423235,-9.87322,0.36624,-9.24756,69.0
1774822891.53275,0.003901958465576172,2026-03-29T22:21:31.532,2026-03-29T18:21:31.532,-32426.46,-46002.869999999995,-85656.69,-49991.04,-11961.99,-17386.649999999998,6908.355,-61146.585,-4.96562737577572,-8.894156807374333,-12.628422488538343,-5.600810535217837,-7.38372723384017,-8.255239906281252,-4.260545951369737,-1.5274501920140737,0.16577106,-0.89526138,0.422423235,-9.87322,0.36624,-9.24756,69.0
1774822891.5327842,3.4332275390625e-05,2026-03-29T22:21:31.532,2026-03-29T18:21:31.532,-32415.39,-45989.505,-85637.06999999999,-49992.165,-11934.9,-17381.07,6906.96,-61132.32,-3.828368072410737,-7.054004378590594,-9.51542296999912,-1.1524657878618019,-3.5044433080783723,-6.977512846358428,-7.9322316226686125,-3.415379839978829,0.16577106,-0.89526138,0.422423235,-9.87322,0.36624,-9.24756,69.0
1774822891.535749,0.0029647350311279297,2026-03-29T22:21:31.535,2026-03-29T18:21:31.535,-32412.69,-45994.14,-85624.965,-49976.325,-11946.42,-17394.21,6895.17,-61116.884999999995,-0.9670571616122613,-2.1375376643443493,-2.351128510511732,3.9191477478273438,1.9683796696827431,-2.51931381014585,-8.136502729154877,-3.689293721390353,0.162536205,-0.901792125,0.42065322,-6.5618,4.18124,-10.97194,69.0
1774822891.5357664,1.7404556274414062e-05,2026-03-29T22:21:31.535,2026-03-29T18:21:31.535,-32411.114999999998,-45998.729999999996,-85628.34,-49965.705,-11949.795,-17387.954999999998,6883.29,-61133.13,2.283425174851168,3.439156982566444,5.105799816836828,7.133550937216159,6.460570194246142,3.0235626468793906,-4.7835722765547,-2.1232607628644087,0.162536205,-0.901792125,0.42065322,-6.5618,4.18124,-10.97194,69.0
1774822891.5403774,0.004611015319824219,2026-03-29T22:21:31.540,2026-03-29T18:21:31.540,-32412.555,-45985.814999999995,-85612.815,-49957.02,-11945.16,-17381.745,6903.855,-61142.31,4.436311848669107,7.111172483125788,9.333389258733419,6.906460419802892,7.903627919447308,7.093744805430767,0.6372934152582925,0.5764129642612089,0.162536205,-0.901792125,0.42065322,-6.5618,4.18124,-10.97194,69.0
1774822891.5403976,2.0265579223632812e-05,2026-03-29T22:21:31.540,2026-03-29T18:21:31.540,-32411.745,-45978.299999999996,-85602.15,-49965.39,-11955.734999999999,-17396.415,6919.514999999999,-61125.39,4.539290314521294,7.352577091649711,8.718038368023446,3.3312153459548517,5.699277309107077,7.8636060809874175,5.7254953123318115,3.0930424031399477,0.162536205,-0.901792125,0.42065322,-6.5618,4.18124,-10.97194,69.0
1774822891.5465076,0.006109952926635742,2026-03-29T22:21:31.546,2026-03-29T18:21:31.546,-32409.675,-45984.689999999995,-85617.495,-49995.854999999996,-11985.705,-17420.489999999998,6924.825,-61107.119999999995,2.597644614926035,4.303231389014732,4.141674984133138,-1.8652227676632038,0.961764348430139,5.059990439746546,8.247447466765767,4.15200845679039,0.162536205,-0.901792125,0.42065322,-6.5618,4.18124,-10.97194,69.0
1774822891.5465264,1.8835067749023438e-05,2026-03-29T22:21:31.546,2026-03-29T18:21:31.546,-32417.82,-46001.205,-85644.855,-50004.63,-11987.145,-17408.114999999998,6916.1849999999995,-61113.284999999996,-0.45473271055502057,-0.4187338943610495,-1.7117146853805456,-6.168201145164799,-4.056801454918892,0.048563138417467275,7.13378980258968,3.1760670288965787,0.162536205,-0.901792125,0.42065322,-6.5618,4.18124,-10.97194,69.0
1774822891.5465448,1.8358230590820312e-05,2026-03-29T22:21:31.546,2026-03-29T18:21:31.546,-32427.855,-45997.965,-85631.12999999999,-49978.755,-11972.295,-17394.795,6910.425,-61133.174999999996,-3.2096913953197794,-4.571292550232999,-5.870504399975143,-7.5038182658505574,-7.0574180901207395,-4.839846899468497,2.9418701358633412,0.6025362606265758,0.162536205,-0.901792125,0.42065322,-6.5618,4.18124,-10.97194,69.0
1774822891.5465548,1.0013580322265625e-05,2026-03-29T22:21:31.546,2026-03-29T18:21:31.546,-32425.829999999998,-45996.75,-85624.33499999999,-49954.545,-11977.064999999999,-17404.515,6918.795,-61135.38,-4.441206479115166,-6.360023699065334,-6.576628186668216,-5.244654930038822,-6.764331960258321,-7.405206690932504,-2.4214570742916153,-2.312781198517272,0.162536205,-0.901792125,0.42065322,-6.5618,4.18124,-10.97194,69.0
1774822891.5523386,0.005783796310424805,2026-03-29T22:21:31.552,2026-03-29T18:21:31.552,-32427.225,-45990.72,-85600.08,-49925.25,-11956.32,-17406.989999999998,6914.429999999999,-61131.24,-3.6546931170872683,-5.211091348228841,-4.017252927277678,-0.5022202978931607,-3.46879853806249,-6.576145992493069,-6.579550888726424,-4.117278914291217,0.162536205,-0.901792125,0.42065322,-6.5618,4.18124,-10.97194,69.0
1774822891.5523648,2.6226043701171875e-05,2026-03-29T22:21:31.552,2026-03-29T18:21:31.552,-32426.145,-45989.055,-85591.395,-49912.155,-11902.859999999999,-17373.285,6905.34,-61135.424999999996,-1.2814109539709404,-1.914081845537444,0.010916676310200544,4.429202768432751,1.1854626404236719,-2.853885345807246,-7.756496130923544,-3.897279983224177,0.162536205,-0.901792125,0.42065322,-6.5618,4.18124,-10.97194,69.0
1774822891.5582006,0.005835771560668945,2026-03-29T22:21:31.558,2026-03-29T18:21:31.558,-32417.145,-46001.115,-85633.515,-49950.494999999995,-11923.74,-17378.28,6897.78,-61127.055,1.5559912378614844,1.8713764568637052,3.2267533829399007,7.195228079280823,5.034686687224672,1.9795038774870963,-5.547586714619766,-1.750115074950958,0.164611395,-0.90185316,0.417662505,-6.37868,9.155999999999999,-10.941419999999999,69.0
1774822891.5582166,1.5974044799804688e-05,2026-03-29T22:21:31.558,2026-03-29T18:21:31.558,-32396.129999999997,-45978.705,-85621.995,-49934.52,-11916.359999999999,-17358.885,6899.58,-61131.06,3.5801831034081415,4.452629535745759,4.115337353465273,6.515689380420983,6.418926291938955,5.723090120348736,-1.0491537424170843,1.2553023423926042,0.164611395,-0.90185316,0.417662505,-6.37868,9.155999999999999,-10.941419999999999,69.0
1774822891.5582428,2.6226043701171875e-05,2026-03-29T22:21:31.558,2026-03-29T18:21:31.558,-32405.085,-45982.17,-85636.08,-49941.18,-11914.56,-17347.14,6916.23,-61137.494999999995,3.938971286876383,4.861410512372097,2.6324196170228933,2.7795858339631074,4.905242071798217,6.768781487449012,3.68876712585539,3.6156816339168296,0.164611395,-0.90185316,0.417662505,-6.37868,9.155999999999999,-10.941419999999999,69.0
1774822891.5582497,6.9141387939453125e-06,2026-03-29T22:21:31.558,2026-03-29T18:21:31.558,-32437.754999999997,-46017.45,-85666.36499999999,-49968.54,-11938.095,-17366.309999999998,6921.179999999999,-61127.189999999995,2.562849434717293,3.192426890259597,0.03916214640711424,-2.1768799124748037,1.3921515841183583,4.793682811428364,6.612038595876414,4.1562605354584505,0.164611395,-0.90185316,0.417662505,-6.37868,9.155999999999999,-10.941419999999999,69.0
1774822891.5679147,0.00966501235961914,2026-03-29T22:21:31.567,2026-03-29T18:21:31.567,-32435.1,-46019.52,-85653.18,-49976.685,-11941.605,-17374.274999999998,6912.36,-61118.235,0.15112937413016264,0.4200051860518952,-1.961559771700045,-5.983319203087959,-2.407629958614161,0.8346773022709945,6.566881155731377,2.6276385904251622,0.164611395,-0.90185316,0.417662505,-6.37868,9.155999999999999,-10.941419999999999,69.0
1774822891.5679317,1.6927719116210938e-05,2026-03-29T22:21:31.567,2026-03-29T18:21:31.567,-32432.265,-46015.02,-85635.135,-49974.75,-11929.814999999999,-17366.355,6912.315,-61139.25,-2.1846144150789555,-2.15299163454661,-2.2492122557636796,-6.880843874943249,-4.814617235350648,-3.2539821029349953,3.7537236911519343,-0.17183091248675475,0.164611395,-0.90185316,0.417662505,-6.37868,9.155999999999999,-10.941419999999999,69.0
1774822891.5707564,0.0028247833251953125,2026-03-29T22:21:31.570,2026-03-29T18:21:31.570,-32439.51,-46012.14,-85618.575,-49971.689999999995,-11938.68,-17381.385,6916.59,-61144.92,-3.437466397856528,-3.5086464494513354,-0.8834085620787364,-4.541465434870006,-4.935943542168238,-5.677298744995601,-0.44757195571856856,-2.8116039968385715,0.164611395,-0.90185316,0.417662505,-6.37868,9.155999999999999,-10.941419999999999,69.0
1774822891.5707767,2.0265579223632812e-05,2026-03-29T22:21:31.570,2026-03-29T18:21:31.570,-32421.51,-45991.215,-85602.59999999999,-49967.595,-11948.445,-17390.565,6912.63,-61120.034999999996,-3.140036378664075,-3.3002558561498123,1.033522997798608,-0.17661879140342462,-2.9820814686531256,-5.492549390978859,-4.161926802765369,-3.966697805143174,0.164611395,-0.90185316,0.417662505,-6.37868,9.155999999999999,-10.941419999999999,69.0
1774822891.5790174,0.008240699768066406,2026-03-29T22:21:31.579,2026-03-29T18:21:31.579,-32417.504999999997,-45995.895,-85624.02,-49978.71,-11968.38,-17407.17,6895.9349999999995,-61110.045,-1.5293515689192771,-1.8746292856782236,2.1044022029441374,4.0936870207092495,-0.043578531854075626,-2.9663447443873507,-5.869724785933103,-3.0944053007813452,0.164611395,-0.90185316,0.417662505,-6.37868,9.155999999999999,-10.941419999999999,69.0
1774822891.579053,3.552436828613281e-05,2026-03-29T22:21:31.579,2026-03-29T18:21:31.579,-32416.875,-45990.405,-85619.79,-49969.665,-11965.05,-17405.055,6893.37,-61121.34,0.6105215990593652,0.011188927644543267,1.5282938714546692,6.281360573325197,2.5083362397557316,0.6338009807717561,-5.030937070226591,-0.699479182336167,0.164611395,-0.90185316,0.417662505,-6.37868,9.155999999999999,-10.941419999999999,69.0
1774822891.5790868,3.3855438232421875e-05,2026-03-29T22:21:31.579,2026-03-29T18:21:31.579,-32428.17,-45988.875,-85612.635,-49955.805,-11938.5,-17373.69,6919.425,-61139.835,2.3320663867603777,1.5867814460181533,-0.3964129309559288,5.465150285280409,3.6716764937540027,3.6765227433411924,-2.2248062106713453,1.9464488063692325,0.165221745,-0.89977797,0.41491593,-9.09496,13.0473,-12.02488,69.0
1774822891.579105,1.811981201171875e-05,2026-03-29T22:21:31.579,2026-03-29T18:21:31.579,-32423.309999999998,-45983.384999999995,-85604.535,-49943.07,-11925.09,-17364.87,6923.61,-61133.13,2.94564490671246,2.372590738547927,-2.4478686709933375,2.1763046051805617,3.202057704876172,4.911732797727613,1.210105392986992,3.479225728969546,0.165221745,-0.89977797,0.41491593,-9.09496,13.0473,-12.02488,69.0
1774822891.5791256,2.0742416381835938e-05,2026-03-29T22:21:31.579,2026-03-29T18:21:31.579,-32416.605,-45984.42,-85608.045,-49949.009999999995,-11934.99,-17376.434999999998,6911.639999999999,-61125.39,2.29064424322079,2.2775989475687584,-3.225748425380462,-1.9249206698249068,1.5923375213845528,3.98099105855368,3.8235739716114145,3.1529962812902683,0.165221745,-0.89977797,0.41491593,-9.09496,13.0473,-12.02488,69.0
1774822891.5791435,1.7881393432617188e-05,2026-03-29T22:21:31.579,2026-03-29T18:21:31.579,-32417.28,-45987.84,-85614.84,-49965.479999999996,-11943.314999999999,-17376.66,6913.665,-61125.884999999995,0.7530207120373935,1.5076603793089074,-2.0241229131769645,-4.892712349883138,-0.2850988273868817,1.486786439463658,4.670994180194114,1.2140650858611932,0.165221745,-0.89977797,0.41491593,-9.09496,13.0473,-12.02488,69.0
1774822891.5866947,0.0075511932373046875,2026-03-29T22:21:31.586,2026-03-29T18:21:31.586,-32418.225,-45987.299999999996,-85611.105,-49959.72,-11934.99,-17367.57,6917.94,-61130.564999999995,-0.9522233873157661,0.3932336347277764,0.6846822039616439,-5.428558466297019,-1.6459061178192917,-1.3668996351092977,3.634654855504508,-1.2543339444302166,0.165221745,-0.89977797,0.41491593,-9.09496,13.0473,-12.02488,69.0
1774822891.5867107,1.5974044799804688e-05,2026-03-29T22:21:31.586,2026-03-29T18:21:31.586,-32417.64,-45984.689999999995,-85605.12,-49957.244999999995,-11936.789999999999,-17372.79,6908.804999999999,-61143.39,-2.1144833112559547,-0.7467308039720011,3.451455688899554,-3.4521585626677673,-2.12285166389525,-3.3581063729774825,1.351819648952146,-2.9264930308619626,0.165221745,-0.89977797,0.41491593,-9.09496,13.0473,-12.02488,69.0
1774822891.5867264,1.5735626220703125e-05,2026-03-29T22:21:31.586,2026-03-29T18:21:31.586,-32420.565,-45978.525,-85599.045,-49966.74,-11966.13,-17415.36,6887.7,-61163.28,-2.3211730200129477,-1.6520200610142697,4.641515892133274,-0.0583315940312674,-1.8181034320827014,-3.7706518562994025,-1.157412199524744,-2.945576200180514,0.165221745,-0.89977797,0.41491593,-9.09496,13.0473,-12.02488,69.0
1774822891.5867305,4.0531158447265625e-06,2026-03-29T22:21:31.586,2026-03-29T18:21:31.586,-32404.725,-45962.055,-85578.56999999999,-49963.905,-11972.295,-17422.245,6880.41,-61142.085,-1.5919404369812467,-2.1091656778728995,3.379304902515199,3.081196180125531,-1.1084851879623479,-2.6336289635216907,-2.951232103059277,-1.3704056264758686,0.165221745,-0.89977797,0.41491593,-9.09496,13.0473,-12.02488,69.0
1774822891.5917463,0.005015850067138672,2026-03-29T22:21:31.591,2026-03-29T18:21:31.591,-32412.555,-45995.265,-85619.25,-49959.9,-11955.06,-17395.02,6902.054999999999,-61123.005,-0.31760300177169454,-1.9519421551567218,0.10980227776299438,4.547679814680577,-0.36243844604591485,-0.6076086036372507,-3.5047295192668777,0.8784089862188311,0.165221745,-0.89977797,0.41491593,-9.09496,13.0473,-12.02488,69.0
1774822891.5917628,1.6450881958007812e-05,2026-03-29T22:21:31.591,2026-03-29T18:21:31.591,-32426.37,-46015.56,-85648.095,-49960.439999999995,-11957.58,-17382.42,6905.384999999999,-61133.939999999995,0.9441714719059844,-1.1215931046078327,-3.558750658027463,3.8223427674345682,0.24950274815912932,1.383322400626565,-2.812950902952094,2.537738736210643,0.165221745,-0.89977797,0.41491593,-9.09496,13.0473,-12.02488,69.0
1774822891.5971465,0.005383729934692383,2026-03-29T22:21:31.597,2026-03-29T18:21:31.597,-32422.59,-45999.9,-85621.455,-49948.515,-11955.914999999999,-17387.82,6926.985,-61119.0,1.7116184467894813,0.23545509252082067,-5.673294066538755,1.4528683910104043,0.7540506300664381,2.5740860139373445,-1.2762986228743618,2.7001792029167953,0.166442445,-0.895566555,0.4113759,-15.67202,14.00868,-12.29956,69.0
1774822891.5971615,1.5020370483398438e-05,2026-03-29T22:21:31.597,2026-03-29T18:21:31.597,-32424.704999999998,-45996.57,-85616.28,-49952.564999999995,-11919.645,-17384.489999999998,6930.224999999999,-61113.78,1.755407770728009,1.7153655483620913,-4.988022783351167,-1.3032551719735275,1.2216806354660759,2.6419952409730487,0.522657748005312,1.3093678221953409,0.166442445,-0.895566555,0.4113759,-15.67202,14.00868,-12.29956,69.0
1774822891.5998445,0.002682924270629883,2026-03-29T22:21:31.599,2026-03-29T18:21:31.599,-32412.239999999998,-45991.215,-85618.53,-49961.159999999996,-11934.945,-17405.64,6892.605,-61117.695,1.1488665587256772,2.735249029791966,-1.6800571142281144,-3.1428342991903384,1.5968151033623477,1.752254734823968,2.028812570977131,-0.8176166825417537,0.166442445,-0.895566555,0.4113759,-15.67202,14.00868,-12.29956,69.0
1774822891.5998633,1.8835067749023438e-05,2026-03-29T22:21:31.599,2026-03-29T18:21:31.599,-32404.184999999998,-45990.945,-85620.19499999999,-49967.325,-11956.455,-17402.22,6873.4349999999995,-61121.97,0.19387218295189224,2.75881484419818,2.6743662760287688,-3.33930689686448,1.6532516508253245,0.3924697615344073,2.8417392077192356,-2.451837799009377,0.166442445,-0.895566555,0.4113759,-15.67202,14.00868,-12.29956,69.0
1774822891.603858,0.00399470329284668,2026-03-29T22:21:31.603,2026-03-29T18:21:31.603,-32418.765,-45989.28,-85610.34,-49954.994999999995,-11941.289999999999,-17377.155,6903.63,-61156.034999999996,-0.7260129689226471,1.5838426531370702,5.87584784488628,-2.023503947963772,1.1266319289060878,-0.8862121038156592,2.7634947937257732,-2.6435598053276816,0.166442445,-0.895566555,0.4113759,-15.67202,14.00868,-12.29956,69.0
1774822891.6038952,3.719329833984375e-05,2026-03-29T22:21:31.603,2026-03-29T18:21:31.603,-32433.84,-46003.049999999996,-85624.56,-49958.189999999995,-11934.0,-17357.715,6933.735,-61143.165,-1.2952853094171786,-0.46468196633996967,6.237003019025548,-0.017924616350503277,-0.05199230688750783,-1.6866316851080507,1.8103805481921627,-1.2608308774643557,0.166442445,-0.895566555,0.4113759,-15.67202,14.00868,-12.29956,69.0
1774822891.6077635,0.0038683414459228516,2026-03-29T22:21:31.607,2026-03-29T18:21:31.607,-32433.03,-46006.604999999996,-85628.34,-49957.11,-11925.72,-17343.809999999998,6935.985,-61123.454999999994,-1.3633910229602573,-2.577046784385495,3.481926665716178,1.6484030535585883,-1.5823220315802013,-1.8592498008202314,0.22030111794527504,0.9250706634920486,0.166442445,-0.895566555,0.4113759,-15.67202,14.00868,-12.29956,69.0
1774822891.6077948,3.123283386230469e-05,2026-03-29T22:21:31.607,2026-03-29T18:21:31.607,-32432.129999999997,-46000.845,-85620.735,-49954.68,-11932.109999999999,-17359.29,6910.74,-61139.295,-0.9661661712399674,-3.7708077379391725,-1.0720382933721293,2.268573711416903,-2.8266413183936,-1.4708918637127426,-1.5568824521101983,2.6605808496585883,0.166442445,-0.895566555,0.4113759,-15.67202,14.00868,-12.29956,69.0
1774822891.613184,0.005389213562011719,2026-03-29T22:21:31.613,2026-03-29T18:21:31.613,-32420.699999999997,-45988.92,-85603.77,-49940.955,-11928.645,-17370.72,6893.865,-61136.369999999995,-0.2825872792081392,-3.356401915728733,-5.160666881047001,1.7582798203487393,-3.0801693768942875,-0.7095340228924505,-2.931843162395796,2.9106826207231986,0.166442445,-0.895566555,0.4113759,-15.67202,14.00868,-12.29956,69.0
1774822891.6132047,2.0742416381835938e-05,2026-03-29T22:21:31.613,2026-03-29T18:21:31.613,-32403.87,-45984.465,-85604.895,-49940.189999999995,-11924.055,-17373.329999999998,6894.719999999999,-61131.104999999996,0.44290395315080144,-1.3313844186441468,-6.722601937338197,0.6001954933154275,-1.9630552981927953,0.20204997268854094,-3.3434962872065186,1.454087782609063,0.166442445,-0.895566555,0.4113759,-15.67202,14.00868,-12.29956,69.0
1774822891.6171753,0.003970623016357422,2026-03-29T22:21:31.617,2026-03-29T18:21:31.617,-32429.52,-45999.36,-85610.11499999999,-49955.354999999996,-11937.779999999999,-17379.72,6910.965,-61147.799999999996,0.9804662202776008,1.519959819256299,-4.959130216172046,-0.4973954089241348,0.2809480022026085,1.045899380121367,-2.4931192352060534,-0.961938066367927,0.173278365,-0.89013444,0.407530695,-22.79844,14.481739999999999,-14.0392,69.0
1774822891.6172032,2.7894973754882812e-05,2026-03-29T22:21:31.617,2026-03-29T18:21:31.617,-32423.94,-45976.814999999995,-85570.605,-49926.465,-11920.005,-17361.855,6931.53,-61139.564999999995,1.1756998781302859,3.91777922505593,-0.7518804762841044,-1.0129102868714914,2.7756058986478678,1.6146341555971833,-0.5448156124081823,-3.005417044732449,0.173278365,-0.89013444,0.407530695,-22.79844,14.481739999999999,-14.0392,69.0
1774822891.6199815,0.002778291702270508,2026-03-29T22:21:31.619,2026-03-29T18:21:31.619,-32419.485,-45983.744999999995,-85584.78,-49928.715,-11923.335,-17368.739999999998,6929.1449999999995,-61123.5,0.9827524119315417,4.667651663737369,3.7824248575768142,-0.8623597544210352,4.352262292901529,1.7256675829066686,1.8352106763052534,-3.4847471712486837,0.173278365,-0.89013444,0.407530695,-22.79844,14.481739999999999,-14.0392,69.0
1774822891.6199968,1.52587890625e-05,2026-03-29T22:21:31.619,2026-03-29T18:21:31.619,-32430.329999999998,-46002.915,-85604.805,-49931.28,-11922.21,-17365.77,6920.415,-61138.215,0.4697313441633792,3.264155140441855,6.372669684988688,-0.36689054239384034,4.108034237775842,1.274457455883231,3.67747510754397,-2.0235467925164987,0.173278365,-0.89013444,0.407530695,-22.79844,14.481739999999999,-14.0392,69.0
1774822891.6250675,0.005070686340332031,2026-03-29T22:21:31.625,2026-03-29T18:21:31.625,-32434.739999999998,-46022.31,-85639.275,-49952.384999999995,-11935.035,-17375.625,6915.6449999999995,-61141.049999999996,-0.2009929423406518,0.2082558720074602,5.751323306571374,0.01479765390954265,1.9110830021961507,0.3143426358271033,4.106490433930113,0.6900564583961016,0.173278365,-0.89013444,0.407530695,-22.79844,14.481739999999999,-14.0392,69.0
1774822891.625082,1.4543533325195312e-05,2026-03-29T22:21:31.625,2026-03-29T18:21:31.625,-32434.559999999998,-46017.405,-85633.425,-49960.17,-11947.14,-17396.595,6911.46,-61142.399999999994,-0.8149418402938265,-3.1521722379916666,2.2917041714041932,0.008715516282131767,-1.4249131597386906,-0.8915667046052919,2.7729275560945883,3.2325117127442837,0.173278365,-0.89013444,0.407530695,-22.79844,14.481739999999999,-14.0392,69.0
1774822891.6296754,0.004593372344970703,2026-03-29T22:21:31.629,2026-03-29T18:21:31.629,-32434.155,-46010.655,-85624.69499999999,-49956.03,-11937.689999999999,-17383.364999999998,6918.389999999999,-61139.024999999994,-1.165151862242784,-5.2201539320751005,-2.20182987236158,-0.29953291263596743,-4.431010843603839,-1.9083109148363375,0.10064416333927619,4.192814436823705,0.173278365,-0.89013444,0.407530695,-22.79844,14.481739999999999,-14.0392,69.0
1774822891.6296864,1.0967254638671875e-05,2026-03-29T22:21:31.629,2026-03-29T18:21:31.629,-32435.594999999998,-46006.29,-85621.185,-49959.09,-11947.68,-17379.855,6918.344999999999,-61138.799999999996,-1.1178668437193187,-4.918628633996858,-5.436500945048035,-0.541870806463111,-5.640791578034753,-2.278609640460448,-2.813265862737182,2.945716207695453,0.173278365,-0.89013444,0.407530695,-22.79844,14.481739999999999,-14.0392,69.0
1774822891.6355329,0.005846500396728516,2026-03-29T22:21:31.635,2026-03-29T18:21:31.635,-32431.905,-46001.25,-85637.25,-49970.97,-11970.855,-17390.88,6914.969999999999,-61141.14,-0.6652844455141403,-2.2555158113614193,-5.813096004653129,-0.3440136980264156,-4.3161988555037745,-1.736936040764709,-4.648004485731596,0.02987482184497074,0.173278365,-0.89013444,0.407530695,-22.79844,14.481739999999999,-14.0392,69.0
1774822891.6355512,1.8358230590820312e-05,2026-03-29T22:21:31.635,2026-03-29T18:21:31.635,-32426.684999999998,-45991.619999999995,-85629.285,-49952.475,-11933.414999999999,-17368.38,6909.3,-61145.909999999996,0.056548794852490154,1.6130448803828055,-3.23357639444946,0.37703331968244286,-0.8781901002279812,-0.3843592659791602,-4.4750866975881305,-3.0887150202917435,0.173278365,-0.89013444,0.407530695,-22.79844,14.481739999999999,-14.0392,69.0
1774822891.6355667,1.5497207641601562e-05,2026-03-29T22:21:31.635,2026-03-29T18:21:31.635,-32411.745,-45967.994999999995,-85593.33,-49936.5,-11893.275,-17348.13,6903.0,-61154.685,0.7997238688346042,4.884382716297409,0.8795264545558827,1.2910725143251103,3.2015366298977885,1.2846174992464312,-2.245698407676009,-4.762460867892336,0.177550815,-0.88879167,0.404112735,-29.84856,15.244739999999998,-14.16128,69.0
1774822891.6355743,7.62939453125e-06,2026-03-29T22:21:31.635,2026-03-29T18:21:31.635,-32413.274999999998,-45965.564999999995,-85577.715,-49949.505,-11927.654999999999,-17375.715,6907.724999999999,-61155.765,1.284402074041197,5.958002361910937,4.351887408565893,1.8048013408009107,6.037044413205705,2.551993293407582,1.1129862393116654,-4.034078394084993,0.177550815,-0.88879167,0.404112735,-29.84856,15.244739999999998,-14.16128,69.0
1774822891.6411452,0.005570888519287109,2026-03-29T22:21:31.641,2026-03-29T18:21:31.641,-32413.815,-45972.18,-85577.985,-49954.005,-11940.93,-17388.27,6912.675,-61139.43,1.3034805026628133,4.227326334947155,5.403813618238741,1.4160849579672472,6.214579480783169,2.791168538562447,4.078643636450903,-1.1724351255135128,0.177550815,-0.88879167,0.404112735,-29.84856,15.244739999999998,-14.16128,69.0
1774822891.6411607,1.5497207641601562e-05,2026-03-29T22:21:31.641,2026-03-29T18:21:31.641,-32411.024999999998,-45980.369999999995,-85590.315,-49952.88,-11940.029999999999,-17386.155,6913.485,-61128.27,0.8129754876785487,0.41893599079441923,3.5710417290650915,0.0709017380522258,3.5060967403763668,1.7859811941698707,5.238613577603997,2.423647529808796,0.177550815,-0.88879167,0.404112735,-29.84856,15.244739999999998,-14.16128,69.0
1774822891.6439493,0.002788543701171875,2026-03-29T22:21:31.643,2026-03-29T18:21:31.643,-32424.21,-46003.049999999996,-85619.06999999999,-49964.31,-11949.93,-17400.51,6906.105,-61135.875,-0.032073106921402764,-3.708468358078477,-0.07914480010253336,-1.7011711468738415,-0.9531722394132084,-0.11177994245757637,3.985667953091421,4.921226290194795,0.177550815,-0.88879167,0.404112735,-29.84856,15.244739999999998,-14.16128,69.0
1774822891.643967,1.7642974853515625e-05,2026-03-29T22:21:31.643,2026-03-29T18:21:31.643,-32437.215,-46003.5,-85607.415,-49973.13,-11967.21,-17410.5,6900.255,-61145.189999999995,-0.91939924133545,-6.18248190968545,-3.541414028710622,-2.987943583377735,-5.140735976464369,-2.0898527321124134,0.8521729237581538,4.997472993744463,0.177550815,-0.88879167,0.404112735,-29.84856,15.244739999999998,-14.16128,69.0
1774822891.6481962,0.004229307174682617,2026-03-29T22:21:31.648,2026-03-29T18:21:31.648,-32434.92,-46005.615,-85614.48,-49977.854999999996,-11967.615,-17391.015,6910.155,-61138.079999999994,-1.4918574465315149,-5.768562125536737,-4.953952517281686,-2.9599000698626816,-7.076779274951285,-3.2253548751690233,-2.7067482663996296,2.5416691890825693,0.177550815,-0.88879167,0.404112735,-29.84856,15.244739999999998,-14.16128,69.0
1774822891.648222,2.574920654296875e-05,2026-03-29T22:21:31.648,2026-03-29T18:21:31.648,-32430.195,-45997.604999999996,-85608.855,-49952.159999999996,-11943.539999999999,-17375.67,6907.7699999999995,-61146.314999999995,-1.491320931750084,-2.591387745475788,-3.591705796125287,-1.3640061692742984,-5.774834565484049,-2.925416164345916,-4.998421883779195,-1.2583718858417623,0.177550815,-0.88879167,0.404112735,-29.84856,15.244739999999998,-14.16128,69.0
1774822891.651961,0.0037391185760498047,2026-03-29T22:21:31.651,2026-03-29T18:21:31.651,-32434.965,-46006.155,-85635.135,-49958.28,-11941.785,-17384.489999999998,6898.365,-61157.34,-0.8761831226618514,1.8888260685023288,-0.24481032252893656,1.2344420397250013,-1.7507309813275895,-1.2440639642391786,-4.919377681040025,-4.502493147719619,0.177550815,-0.88879167,0.404112735,-29.84856,15.244739999999998,-14.16128,69.0
1774822891.651982,2.09808349609375e-05,2026-03-29T22:21:31.651,2026-03-29T18:21:31.651,-32434.965,-46014.705,-85658.355,-49980.284999999996,-11956.14,-17401.23,6864.525,-61177.32,0.14116405985099026,5.5510356015741396,3.2167613726520012,3.6325958387986126,3.174559620869809,1.0960050628863929,-2.5103072218030076,-5.542795439319142,0.177550815,-0.88879167,0.404112735,-29.84856,15.244739999999998,-14.16128,69.0
1774822891.655789,0.0038068294525146484,2026-03-29T22:21:31.655,2026-03-29T18:21:31.655,-32438.07,-46017.99,-85658.715,-49985.369999999995,-11957.175,-17397.495,6851.655,-61182.585,1.1618223866506103,6.625168658397866,4.859096969547561,4.547549784397347,6.7067343815273395,3.0119378708193825,1.049940544484755,-3.8309004317792112,0.174743205,-0.8986183050000001,0.40515033,-31.237219999999997,16.14508,-12.57424,69.0
1774822891.6558003,1.1444091796875e-05,2026-03-29T22:21:31.655,2026-03-29T18:21:31.655,-32439.555,-46010.115,-85631.12999999999,-49970.924999999996,-11909.789999999999,-17362.305,6918.57,-61142.445,1.75459185617472,4.554501709529164,3.7383969529548415,3.2916358479650443,7.161018665322525,3.5689823056437904,4.021653693201273,-0.20788708218036125,0.174743205,-0.8986183050000001,0.40515033,-31.237219999999997,16.14508,-12.57424,69.0
1774822891.6615665,0.005766153335571289,2026-03-29T22:21:31.661,2026-03-29T18:21:31.661,-32426.28,-45980.189999999995,-85567.36499999999,-49897.17,-11853.855,-17324.28,6964.0199999999995,-61117.604999999996,1.6385021197529548,0.28537444496540365,0.4280689227419183,0.21415370514564638,4.278888075988656,2.4468155883439016,4.969892719790427,3.516965320274476,0.174743205,-0.8986183050000001,0.40515033,-31.237219999999997,16.14508,-12.57424,69.0
1774822891.6616075,4.100799560546875e-05,2026-03-29T22:21:31.661,2026-03-29T18:21:31.661,-32431.949999999997,-46001.61,-85591.215,-49913.009999999995,-11886.525,-17332.47,6924.014999999999,-61145.549999999996,0.8165787697026873,-4.166618397548696,-3.2694344319118334,-3.3530078393263802,-0.6224894481110085,0.12737452874525493,3.481029133499347,5.484387062829282,0.174743205,-0.8986183050000001,0.40515033,-31.237219999999997,16.14508,-12.57424,69.0
1774822891.6636348,0.002027273178100586,2026-03-29T22:21:31.663,2026-03-29T18:21:31.663,-32416.065,-45994.32,-85596.3,-49931.325,-11902.14,-17347.68,6901.335,-61134.884999999995,-0.4026595004227345,-6.67401252281616,-5.282323860058699,-5.670535480709264,-5.254120899158216,-2.305834666555635,0.36216200459191095,4.728180140990065,0.174743205,-0.8986183050000001,0.40515033,-31.237219999999997,16.14508,-12.57424,69.0
1774822891.6636462,1.1444091796875e-05,2026-03-29T22:21:31.663,2026-03-29T18:21:31.663,-32415.074999999997,-45991.17,-85588.605,-49941.314999999995,-11922.21,-17372.52,6900.21,-61114.545,-1.5160229224425963,-6.0205788713835275,-4.39666047485462,-5.439735021436849,-7.43433503719967,-3.6766084365593135,-2.7819748968566773,1.6584176093504932,0.174743205,-0.8986183050000001,0.40515033,-31.237219999999997,16.14508,-12.57424,69.0
1774822891.6678395,0.004193305969238281,2026-03-29T22:21:31.667,2026-03-29T18:21:31.667,-32432.715,-45996.345,-85591.125,-49951.305,-11937.24,-17389.665,6901.605,-61132.5,-2.0317735758628674,-2.494977286651887,-0.9491809672056809,-2.5096137809041537,-6.129776256483067,-3.2927699001384463,-4.37791632520074,-2.160733163573637,0.174743205,-0.8986183050000001,0.40515033,-31.237219999999997,16.14508,-12.57424,69.0
1774822891.6678624,2.288818359375e-05,2026-03-29T22:21:31.667,2026-03-29T18:21:31.667,-32447.204999999998,-46007.145,-85605.61499999999,-49949.505,-11924.82,-17370.63,6924.195,-61157.97,-1.6876961699918374,2.236342325070489,3.296474296761211,1.9345298868727825,-1.9558076324774922,-1.3045611419419965,-3.6884961192830046,-4.818434601867017,0.174743205,-0.8986183050000001,0.40515033,-31.237219999999997,16.14508,-12.57424,69.0
1774822891.6717267,0.003864288330078125,2026-03-29T22:21:31.671,2026-03-29T18:21:31.671,-32434.965,-45991.89,-85588.155,-49931.729999999996,-11905.154999999999,-17340.885,6931.3949999999995,-61152.884999999995,-0.5844265089482062,5.920859788136716,6.046567499341117,5.8434077206251285,3.110177567874074,1.3439257321067861,-1.1747901486096677,-5.0288693948924275,0.174743205,-0.8986183050000001,0.40515033,-31.237219999999997,16.14508,-12.57424,69.0
1774822891.671753,2.6226043701171875e-05,2026-03-29T22:21:31.671,2026-03-29T18:21:31.671,-32433.254999999997,-45989.82,-85582.89,-49935.915,-11925.135,-17362.26,6917.625,-61153.2,0.8333366596157212,6.79781761650281,5.6922298569359215,7.2524678014476285,6.670061045696924,3.361105673780115,1.7725161243383367,-2.7665299021020213,0.174743205,-0.8986183050000001,0.40515033,-31.237219999999997,16.14508,-12.57424,69.0
1774822891.688078,0.016324996948242188,2026-03-29T22:21:31.688,2026-03-29T18:21:31.688,-32442.21,-46004.715,-85604.04,-49942.08,-11924.369999999999,-17367.93,6924.735,-61155.54,1.9520940696741282,4.443554327043817,2.207099819728931,5.26575960458862,7.0503648870896045,3.7415324375530825,3.5869644583634566,0.7545631259671528,0.16870074000000002,-0.915525,0.40844622,-27.437479999999997,16.4045,-13.24568,69.0
1774822891.688092,1.4066696166992188e-05,2026-03-29T22:21:31.688,2026-03-29T18:21:31.688,-32433.164999999997,-46005.93,-85617.855,-49955.805,-11933.82,-17384.309999999998,6920.46,-61146.854999999996,2.254517492817449,-0.023366992465557696,-2.7587461804477704,0.5831643433388981,4.099965696740903,2.274124630916062,3.3621554696540117,3.7330320230032767,0.16870074000000002,-0.915525,0.40844622,-27.437479999999997,16.4045,-13.24568,69.0
1774822891.6881056,1.3589859008789062e-05,2026-03-29T22:21:31.688,2026-03-29T18:21:31.688,-32438.655,-46011.42,-85616.81999999999,-49952.07,-11925.945,-17375.895,6912.2699999999995,-61152.93,1.5603099442232213,-4.476513007805055,-6.667306760497165,-4.725659165183268,-0.7448214941073694,-0.3346918004624764,1.3223020507469587,4.713192469923585,0.16870074000000002,-0.915525,0.40844622,-27.437479999999997,16.4045,-13.24568,69.0
1774822891.68811,4.5299530029296875e-06,2026-03-29T22:21:31.688,2026-03-29T18:21:31.688,-32445.945,-46013.805,-85608.135,-49942.125,-11917.98,-17363.97,6910.785,-61160.04,0.13048063970224308,-6.798348806827938,-7.38300360475112,-8.139922181949029,-5.1582308376281345,-2.795846475150348,-1.3239930126181612,3.311055654497955,0.16870074000000002,-0.915525,0.40844622,-27.437479999999997,16.4045,-13.24568,69.0
1774822891.6881151,5.0067901611328125e-06,2026-03-29T22:21:31.688,2026-03-29T18:21:31.688,-32443.829999999998,-46018.619999999995,-85611.375,-49950.405,-11919.645,-17356.77,6913.755,-61154.729999999996,-1.4236017911595784,-5.89070703091473,-4.310580607241214,-7.889112433384657,-7.046759507895519,-3.8736180281941803,-3.065346124048531,0.3649637350604326,0.16870074000000002,-0.915525,0.40844622,-27.437479999999997,16.4045,-13.24568,69.0
1774822891.6881194,4.291534423828125e-06,2026-03-29T22:21:31.688,2026-03-29T18:21:31.688,-32436.18,-46012.455,-85602.915,-49951.259999999995,-11926.98,-17362.125,6910.83,-61147.665,-2.3989993830408096,-2.194869954268696,1.2159187599971981,-3.862094558959107,-5.550788272195249,-3.0088894825801358,-2.9315939241009668,-2.5483661303557614,0.16870074000000002,-0.915525,0.40844622,-27.437479999999997,16.4045,-13.24568,69.0
1774822891.688124,4.5299530029296875e-06,2026-03-29T22:21:31.688,2026-03-29T18:21:31.688,-32440.094999999998,-45994.905,-85573.665,-49931.415,-11921.13,-17363.295,6910.74,-61149.645,-2.3198750767195957,2.5252969633051943,6.522478064585665,2.239832295261321,-1.4429101054516336,-0.6139304114348579,-1.035770180961431,-3.9591520821723645,0.16870074000000002,-0.915525,0.40844622,-27.437479999999997,16.4045,-13.24568,69.0
1774822891.6881275,3.5762786865234375e-06,2026-03-29T22:21:31.688,2026-03-29T18:21:31.688,-32440.635,-45979.74,-85552.56,-49925.07,-11926.935,-17368.11,6906.96,-61158.509999999995,-1.1715874277905924,6.02921965892603,8.897160901368506,7.62278614364918,3.2646758345177163,2.1182888220410487,1.4887565036500556,-3.257534266359939,0.16870074000000002,-0.915525,0.40844622,-27.437479999999997,16.4045,-13.24568,69.0
1774822891.692289,0.0041615962982177734,2026-03-29T22:21:31.692,2026-03-29T18:21:31.692,-32430.465,-45973.395,-85552.515,-49919.85,-11922.21,-17366.22,6903.405,-61155.314999999995,0.5654213839469316,6.66652266261827,6.966719535807014,9.687851316922027,6.3060806528317865,3.804418707624856,3.1282579789033815,-0.9637831149286146,0.16870074000000002,-0.915525,0.40844622,-27.437479999999997,16.4045,-13.24568,69.0
1774822891.6923149,2.574920654296875e-05,2026-03-29T22:21:31.692,2026-03-29T18:21:31.692,-32441.535,-46006.38,-85607.01,-49936.365,-11911.545,-17357.355,6906.69,-61150.32,2.1115883067660812,4.15500172457553,1.4518649260930934,7.288788176899682,6.257025866343106,3.569617607174341,2.856634816178869,1.6071357201860899,0.16870074000000002,-0.915525,0.40844622,-27.437479999999997,16.4045,-13.24568,69.0
1774822891.695967,0.0036520957946777344,2026-03-29T22:21:31.695,2026-03-29T18:21:31.695,-32447.385,-46020.555,-85629.69,-49962.015,-11920.365,-17365.905,6902.19,-61155.405,2.736909387456689,-0.297483530151917,-5.10143584355743,1.3494080349050088,3.2074923558737027,1.5020041945425089,0.7471677786668747,3.0845801045894334,0.163146555,-0.92834235,0.40869036000000003,-20.8299,19.12078,-13.41354,69.0
1774822891.695989,2.193450927734375e-05,2026-03-29T22:21:31.695,2026-03-29T18:21:31.695,-32435.414999999997,-46012.994999999995,-85624.37999999999,-49973.939999999995,-11933.505,-17373.555,6900.4349999999995,-61143.704999999994,2.1071756775768886,-4.578019728559714,-9.51377106173443,-5.485472401810545,-1.308647206301639,-1.373781563531994,-2.0259534161573374,2.774971150392568,0.163146555,-0.92834235,0.40869036000000003,-20.8299,19.12078,-13.41354,69.0
1774822891.6999085,0.0039196014404296875,2026-03-29T22:21:31.699,2026-03-29T18:21:31.699,-32426.145,-46000.89,-85605.03,-49964.354999999996,-11927.564999999999,-17367.21,6896.5199999999995,-61149.329999999994,0.4631218809365638,-6.674978596878448,-9.521556925308786,-10.03719523705585,-5.081865650760487,-3.600576948357723,-3.819209522432407,0.9958628921452701,0.163146555,-0.92834235,0.40869036000000003,-20.8299,19.12078,-13.41354,69.0
1774822891.699934,2.5510787963867188e-05,2026-03-29T22:21:31.699,2026-03-29T18:21:31.699,-32431.004999999997,-45991.08,-85581.18,-49951.799999999996,-11935.755,-17373.015,6896.205,-61168.409999999996,-1.4632723772256078,-5.624286610775421,-4.925432745194091,-10.081072229388308,-6.308984536325188,-4.023461224772719,-3.4523711391994496,-1.1532116615113217,0.163146555,-0.92834235,0.40869036000000003,-20.8299,19.12078,-13.41354,69.0
1774822891.7045677,0.004633665084838867,2026-03-29T22:21:31.704,2026-03-29T18:21:31.704,-32445.719999999998,-46002.15,-85584.465,-49938.884999999995,-11918.43,-17355.78,6907.7699999999995,-61183.619999999995,-2.7713039992872464,-1.949829853832596,2.2403597648503855,-5.433756959696939,-4.457929147498447,-2.3855880408183685,-0.9270075262525737,-2.437249884489164,0.163146555,-0.92834235,0.40869036000000003,-20.8299,19.12078,-13.41354,69.0
1774822891.7045891,2.1457672119140625e-05,2026-03-29T22:21:31.704,2026-03-29T18:21:31.704,-32439.87,-46019.52,-85620.465,-49967.415,-11947.095,-17405.684999999998,6897.465,-61167.42,-2.8125227684656515,2.60177573544899,8.626063292998314,1.891881845152982,-0.49871159544851307,0.5215672057626123,2.487733738277103,-2.1806293076047583,0.163146555,-0.92834235,0.40869036000000003,-20.8299,19.12078,-13.41354,69.0
1774822891.7080638,0.003474712371826172,2026-03-29T22:21:31.708,2026-03-29T18:21:31.708,-32444.055,-46011.104999999996,-85605.165,-49955.715,-11936.744999999999,-17390.385,6920.19,-61151.49,-1.513612279481965,5.895917293497526,11.149041232158188,8.56661060540321,3.5997809457991576,3.2394171190239622,4.886819617422106,-0.624854719387776,0.163146555,-0.92834235,0.40869036000000003,-20.8299,19.12078,-13.41354,69.0
1774822891.708083,1.9073486328125e-05,2026-03-29T22:21:31.708,2026-03-29T18:21:31.708,-32438.34,-45996.39,-85585.095,-49936.994999999995,-11919.6,-17365.77,6924.0599999999995,-61123.229999999996,0.5599488762058079,6.412890904886844,8.485585830211598,11.470945651342543,5.847790697296622,4.371687781981491,4.7664766109366,1.2409093850214072,0.163146555,-0.92834235,0.40869036000000003,-20.8299,19.12078,-13.41354,69.0
1774822891.712256,0.0041730403900146484,2026-03-29T22:21:31.712,2026-03-29T18:21:31.712,-32414.445,-45975.509999999995,-85571.09999999999,-49928.49,-11930.355,-17367.57,6917.04,-61117.604999999996,2.444682059752167,3.946647132269347,1.7480754353202352,9.161753656938155,5.201480604880795,3.2976925044286163,1.9111941504025705,2.270080894268301,0.163146555,-0.92834235,0.40869036000000003,-20.8299,19.12078,-13.41354,69.0
1774822891.7122717,1.5735626220703125e-05,2026-03-29T22:21:31.712,2026-03-29T18:21:31.712,-32427.989999999998,-45991.305,-85585.095,-49938.84,-11950.695,-17379.225,6916.545,-61135.47,3.2245664767961615,-0.3208631221448332,-5.992661438539249,2.5855574314055,2.0477820619310023,0.5060392260817443,-2.374163978556107,1.8299470068462655,0.163146555,-0.92834235,0.40869036000000003,-20.8299,19.12078,-13.41354,69.0
1774822891.7160351,0.003763437271118164,2026-03-29T22:21:31.716,2026-03-29T18:21:31.716,-32441.715,-46018.125,-85616.145,-49963.14,-11947.77,-17387.864999999998,6886.125,-61137.27,2.4762223255516025,-4.391607462751551,-11.127748901599436,-5.312981829571703,-2.0182739243801606,-2.628633746991668,-5.8602943455542436,0.17226791303137426,0.158752035,-0.928647525,0.409239675,-18.55616,20.61626,-11.18558,69.0
1774822891.716058,2.288818359375e-05,2026-03-29T22:21:31.716,2026-03-29T18:21:31.716,-32425.695,-45999.27,-85592.43,-49938.075,-11920.725,-17361.54,6881.58,-61134.975,0.49753688821465125,-6.39025809490814,-11.206907924801442,-10.923677960616232,-4.99893934158323,-4.523568248758794,-6.545725478945592,-1.7074387377424771,0.158752035,-0.928647525,0.409239675,-18.55616,20.61626,-11.18558,69.0
1774822891.7201107,0.004052639007568359,2026-03-29T22:21:31.720,2026-03-29T18:21:31.720,-32451.795,-46003.814999999995,-85582.395,-49922.369999999995,-11900.835,-17336.79,6923.745,-61161.884999999995,-1.8028740361574853,-5.426949928000424,-6.10741644900952,-11.634911529883132,-5.4753524212362885,-4.185360702604671,-3.772402882146765,-2.6441140592540466,0.158752035,-0.928647525,0.409239675,-18.55616,20.61626,-11.18558,69.0
1774822891.7201262,1.5497207641601562e-05,2026-03-29T22:21:31.720,2026-03-29T18:21:31.720,-32458.184999999998,-46016.64,-85596.75,-49927.049999999996,-11875.275,-17341.605,6925.679999999999,-61148.115,-3.319025753046605,-1.9875097890632434,1.8822246065636694,-7.055592518980183,-3.2824488116033024,-1.7252650743350144,1.3053534689750843,-1.9874805412319558,0.158752035,-0.928647525,0.409239675,-18.55616,20.61626,-11.18558,69.0
1774822891.724108,0.003981828689575195,2026-03-29T22:21:31.724,2026-03-29T18:21:31.724,-32446.98,-46014.84,-85601.565,-49937.49,-11905.56,-17362.53,6914.88,-61138.17,-3.2774298857623934,2.316883258984078,9.109265046966359,0.779916418148517,0.4440795158768348,1.6734402783091067,6.196171004706253,-0.006987867591470717,0.158752035,-0.928647525,0.409239675,-18.55616,20.61626,-11.18558,69.0
1774822891.7241304,2.2411346435546875e-05,2026-03-29T22:21:31.724,2026-03-29T18:21:31.724,-32462.01,-46028.115,-85614.97499999999,-49949.055,-11915.865,-17359.245,6906.915,-61149.149999999994,-1.6303437521903912,5.509484444802581,12.246028006953397,8.328101046242223,3.855196247785834,4.329095218864164,8.298713605218147,2.2208174666528664,0.158752035,-0.928647525,0.409239675,-18.55616,20.61626,-11.18558,69.0
1774822891.728324,0.004193544387817383,2026-03-29T22:21:31.728,2026-03-29T18:21:31.728,-32461.695,-46026.36,-85625.37,-49943.744999999995,-11912.22,-17356.68,6908.985,-61154.415,0.8868983592619079,6.156418962008372,9.831656666671702,12.155366373275312,5.3068040067157085,4.896188808603057,6.27386736546909,3.3939616025148034,0.158752035,-0.928647525,0.409239675,-18.55616,20.61626,-11.18558,69.0
1774822891.7283409,1.6927719116210938e-05,2026-03-29T22:21:31.728,2026-03-29T18:21:31.728,-32453.145,-46009.665,-85603.86,-49921.695,-11906.324999999999,-17359.29,6906.509999999999,-61153.38,3.079234915238532,4.005854921157744,2.947943504170257,10.512493027009093,4.152180550694763,3.0451744118747257,0.8422661007086126,2.7223327849682595,0.158752035,-0.928647525,0.409239675,-18.55616,20.61626,-11.18558,69.0
1774822891.7321043,0.003763437271118164,2026-03-29T22:21:31.732,2026-03-29T18:21:31.732,-32461.02,-46021.95,-85619.295,-49942.439999999995,-11915.279999999999,-17363.34,6905.07,-61157.744999999995,3.8560863834516272,0.075393727764584,-5.281123098442793,4.136652069639694,1.026225906063917,-0.3557149829746106,-5.4495353170277765,0.4110544628964478,0.158752035,-0.928647525,0.409239675,-18.55616,20.61626,-11.18558,69.0
1774822891.7321255,2.1219253540039062e-05,2026-03-29T22:21:31.732,2026-03-29T18:21:31.732,-32470.289999999997,-46044.225,-85648.095,-49974.345,-11927.97,-17367.12,6896.25,-61165.619999999995,2.771290950070234,-3.8358126865201294,-11.127151974663244,-4.0881040773912725,-2.5016304906583837,-3.654072084661345,-9.432779575903545,-2.390968127591705,0.158752035,-0.928647525,0.409239675,-18.55616,20.61626,-11.18558,69.0
1774822891.7362409,0.00411534309387207,2026-03-29T22:21:31.736,2026-03-29T18:21:31.736,-32461.965,-46038.195,-85639.815,-49989.104999999996,-11955.195,-17401.95,6865.245,-61171.38,0.27240703275161,-5.973361098729392,-11.961673842060312,-10.451662302853405,-4.71734177088898,-5.222561255225407,-8.916621797527297,-4.171289044339525,0.15704305500000001,-0.92602302,0.41027727,-17.3201,20.81464,-10.84986,69.0
1774822891.7362628,2.193450927734375e-05,2026-03-29T22:21:31.736,2026-03-29T18:21:31.736,-32467.725,-46035.854999999996,-85628.52,-49983.435,-11957.445,-17411.13,6862.455,-61172.46,-2.4771650828345875,-5.41144473937371,-7.44136377747918,-12.10772722036258,-4.596547147977021,-4.264509414881467,-3.8744429884373757,-3.8655775314199006,0.15704305500000001,-0.92602302,0.41027727,-17.3201,20.81464,-10.84986,69.0
1774822891.7402065,0.003943681716918945,2026-03-29T22:21:31.740,2026-03-29T18:21:31.740,-32464.215,-46023.255,-85598.73,-49959.045,-11938.814999999999,-17387.325,6887.969999999999,-61158.555,-4.136312812206916,-2.445610096973129,0.3613110353963735,-8.355581946588543,-2.2763085064710817,-1.2154656984518188,3.419157078502399,-1.466401560630312,0.15704305500000001,-0.92602302,0.41027727,-17.3201,20.81464,-10.84986,69.0
1774822891.7403977,0.00019121170043945312,2026-03-29T22:21:31.740,2026-03-29T18:21:31.740,-32448.555,-45992.97,-85563.09,-49936.275,-11916.18,-17362.485,6911.91,-61145.595,-3.837165208976836,1.567739564507496,7.92518419304295,-0.9324863253086514,1.052211316837783,2.4608378809347826,9.423580794969341,1.9099511827647666,0.15704305500000001,-0.92602302,0.41027727,-17.3201,20.81464,-10.84986,69.0
1774822891.7439375,0.0035398006439208984,2026-03-29T22:21:31.743,2026-03-29T18:21:31.743,-32440.41,-45979.83,-85542.345,-49917.915,-11900.97,-17340.975,6922.844999999999,-61136.82,-1.6340536664884044,4.836333865288225,11.886262709525816,6.80314040117872,3.7571155567962173,4.983844345714798,11.064228438272325,4.55677111111137,0.15704305500000001,-0.92602302,0.41027727,-17.3201,20.81464,-10.84986,69.0
1774822891.7439651,2.765655517578125e-05,2026-03-29T22:21:31.743,2026-03-29T18:21:31.743,-32446.44,-45993.15,-85550.31,-49898.564999999995,-11884.635,-17323.965,6925.32,-61142.445,1.4798951280065809,5.931339378591713,10.542537814552176,11.408264204514703,4.568764276164358,5.12522565871681,7.3078726464582315,5.048849922979171,0.15704305500000001,-0.92602302,0.41027727,-17.3201,20.81464,-10.84986,69.0
1774822891.7510707,0.007105588912963867,2026-03-29T22:21:31.751,2026-03-29T18:21:31.751,-32448.105,-46003.365,-85572.9,-49916.52,-11893.365,-17330.489999999998,6921.405,-61141.905,4.0169730958107985,4.405160395683786,4.581158076557893,10.900764538891556,3.1760001451670887,2.8082936717925646,-0.22659220282641954,3.0032589668071004,0.15704305500000001,-0.92602302,0.41027727,-17.3201,20.81464,-10.84986,69.0
1774822891.751088,1.71661376953125e-05,2026-03-29T22:21:31.751,2026-03-29T18:21:31.751,-32450.535,-46008.09,-85581.27,-49929.57,-11906.189999999999,-17346.78,6898.59,-61150.049999999996,4.702903600700711,0.9642942532264236,-3.2798329203526473,5.61421757736321,0.3355280917077365,-0.8555979616062684,-7.969672228235091,-0.6750475524135487,0.15704305500000001,-0.92602302,0.41027727,-17.3201,20.81464,-10.84986,69.0
1774822891.7511053,1.7404556274414062e-05,2026-03-29T22:21:31.751,2026-03-29T18:21:31.751,-32451.03,-46014.615,-85598.91,-49947.57,-11923.74,-17364.555,6886.08,-61157.384999999995,3.112718942202206,-2.863531022344731,-9.545779555165216,-2.0072518712725307,-2.5377079342683024,-4.108946737907094,-12.109225064910703,-4.207120459566293,0.15704305500000001,-0.92602302,0.41027727,-17.3201,20.81464,-10.84986,69.0
1774822891.751113,7.62939453125e-06,2026-03-29T22:21:31.751,2026-03-29T18:21:31.751,-32446.89,-46012.005,-85597.29,-49952.115,-11931.975,-17370.0,6906.6449999999995,-61141.545,-0.08135594450094039,-5.408483949013216,-11.510179402908777,-8.55307361833135,-4.078308188116091,-5.400078495340898,-10.47975584027502,-5.817245533070373,0.15704305500000001,-0.92602302,0.41027727,-17.3201,20.81464,-10.84986,69.0
1774822891.7589452,0.00783228874206543,2026-03-29T22:21:31.758,2026-03-29T18:21:31.758,-32448.78,-45995.04,-85559.355,-49929.21,-11914.47,-17348.805,6926.4,-61132.365,-3.389409699689732,-5.581906349389977,-8.424614300707528,-11.18748298164229,-3.6211366961518276,-4.128067118870544,-3.6909773573561164,-4.633196929216015,0.162536205,-0.923642655,0.41467179,-19.410719999999998,21.7455,-11.6739,69.0
1774822891.7589605,1.52587890625e-05,2026-03-29T22:21:31.758,2026-03-29T18:21:31.758,-32451.48,-46001.655,-85578.435,-49943.88,-11921.715,-17352.045,6912.179999999999,-61141.005,-5.197151722155513,-3.3333841990728508,-1.7686042010119736,-8.88462892535866,-1.484173713919058,-0.9207249641294647,5.091016626962503,-1.1495335654312904,0.162536205,-0.923642655,0.41467179,-19.410719999999998,21.7455,-11.6739,69.0
1774822891.7653327,0.006372213363647461,2026-03-29T22:21:31.765,2026-03-29T18:21:31.765,-32447.52,-46002.689999999995,-85588.65,-49954.77,-11927.25,-17356.32,6900.075,-61139.655,-4.551097058583104,0.3454839709836985,5.468261038707599,-2.816762397570721,1.2341527619999169,2.681984892417841,11.636734000951956,2.9890093810635223,0.162536205,-0.923642655,0.41467179,-19.410719999999998,21.7455,-11.6739,69.0
1774822891.76535,1.7404556274414062e-05,2026-03-29T22:21:31.765,2026-03-29T18:21:31.765,-32453.19,-46014.075,-85595.94,-49952.7,-11924.505,-17365.77,6899.445,-61143.659999999996,-1.6545357050773744,3.8606333855918322,10.139871436685349,4.24477145270122,3.2203059272168284,4.976448161145651,12.7086820148578,5.783637394643055,0.162536205,-0.923642655,0.41467179,-19.410719999999998,21.7455,-11.6739,69.0
1774822891.7653651,1.5020370483398438e-05,2026-03-29T22:21:31.765,2026-03-29T18:21:31.765,-32453.684999999998,-46015.695,-85594.41,-49937.895,-11908.98,-17356.364999999998,6907.634999999999,-61144.74,2.1812584930575425,5.702657718660481,10.315362475850883,9.20878904132943,3.5824135412690072,4.9077498779837425,7.671864272137634,5.862741782004367,0.162536205,-0.923642655,0.41467179,-19.410719999999998,21.7455,-11.6739,69.0
1774822891.7653718,6.67572021484375e-06,2026-03-29T22:21:31.765,2026-03-29T18:21:31.765,-32453.145,-46016.189999999995,-85585.095,-49932.36,-11906.82,-17348.355,6915.42,-61132.86,5.129767151495053,5.087536521847195,6.069858638125376,10.02722157597005,2.249022392444291,2.555430377419974,-1.1459620665727364,3.159339805705725,0.162536205,-0.923642655,0.41467179,-19.410719999999998,21.7455,-11.6739,69.0
1774822891.7678795,0.0025076866149902344,2026-03-29T22:21:31.767,2026-03-29T18:21:31.767,-32444.414999999997,-46009.53,-85576.545,-49925.97,-11910.465,-17362.17,6877.9349999999995,-61137.765,5.71850577058921,2.2831853087305825,-0.6249004376675911,6.536507974648706,-0.047136485803849174,-0.9310615313804085,-9.543009154793989,-1.05191276492217,0.162536205,-0.923642655,0.41467179,-19.410719999999998,21.7455,-11.6739,69.0
1774822891.7678912,1.1682510375976562e-05,2026-03-29T22:21:31.767,2026-03-29T18:21:31.767,-32434.829999999998,-46001.475,-85579.02,-49936.095,-11930.895,-17397.36,6862.094999999999,-61159.365,3.5611511017643194,-1.5102612572846577,-6.8231791114409415,0.4341552121431176,-2.1671644407215016,-3.9012750995651406,-13.465772447758061,-4.774229134040539,0.162536205,-0.923642655,0.41467179,-19.410719999999998,21.7455,-11.6739,69.0
1774822891.7763543,0.008463144302368164,2026-03-29T22:21:31.776,2026-03-29T18:21:31.776,-32447.655,-45998.775,-85569.20999999999,-49922.685,-11912.039999999999,-17373.51,6900.795,-61167.555,-0.4105165854336591,-4.671629388167304,-9.906345117385806,-5.552244932778299,-3.1313161519845663,-4.991963132695523,-10.982343080147137,-6.255205554311304,0.162536205,-0.923642655,0.41467179,-19.410719999999998,21.7455,-11.6739,69.0
1774822891.7763848,3.0517578125e-05,2026-03-29T22:21:31.776,2026-03-29T18:21:31.776,-32464.125,-45998.82,-85562.73,-49903.155,-11872.574999999999,-17317.305,6936.66,-61157.024999999994,-4.3474783126736565,-5.845272907656435,-8.685984181519512,-8.894300835327485,-2.5708198418082007,-3.7549348216851963,-3.238594964114924,-4.8235703894913025,0.162536205,-0.923642655,0.41467179,-19.410719999999998,21.7455,-11.6739,69.0
1774822891.776412,2.7179718017578125e-05,2026-03-29T22:21:31.776,2026-03-29T18:21:31.776,-32461.965,-46010.88,-85590.855,-49941.494999999995,-11907.72,-17335.8,6925.815,-61130.744999999995,-6.345747249060408,-4.515943317535686,-3.846837027400866,-8.331853453547655,-0.8586656799803886,-0.8347317036858867,6.078064973949513,-1.1913111865343546,0.172790085,-0.919248135,0.41418351000000003,-22.2796,23.82086,-12.31482,69.0
1774822891.776428,1.5974044799804688e-05,2026-03-29T22:21:31.776,2026-03-29T18:21:31.776,-32463.27,-46011.6,-85579.47,-49936.725,-11904.57,-17337.78,6929.46,-61122.915,-5.367239123940128,-1.2317531574037324,2.42639237550367,-4.3297322951309996,1.1201195176239533,2.369910643585089,12.512736831131788,2.9134954041217704,0.172790085,-0.919248135,0.41418351000000003,-22.2796,23.82086,-12.31482,69.0
1774822891.7864757,0.010047674179077148,2026-03-29T22:21:31.786,2026-03-29T18:21:31.786,-32464.574999999997,-46013.49,-85568.895,-49924.799999999996,-11907.18,-17341.515,6917.13,-61135.604999999996,-1.7735252842453748,2.6197299071473927,7.438769109083877,1.232334705881528,2.4231477792974485,4.381510070917718,12.992987651701183,5.588430584035702,0.172790085,-0.919248135,0.41418351000000003,-22.2796,23.82086,-12.31482,69.0
1774822891.7865064,3.075599670410156e-05,2026-03-29T22:21:31.786,2026-03-29T18:21:31.786,-32464.035,-46006.604999999996,-85555.485,-49909.185,-11916.72,-17340.57,6915.87,-61149.915,2.8001423105360885,5.392254588873607,9.141620382839058,5.948217511710167,2.497612864204988,4.32729705367964,7.308205379446937,5.654298562190011,0.172790085,-0.919248135,0.41418351000000003,-22.2796,23.82086,-12.31482,69.0
1774822891.7865357,2.9325485229492188e-05,2026-03-29T22:21:31.786,2026-03-29T18:21:31.786,-32461.469999999998,-45994.409999999996,-85540.36499999999,-49903.424999999996,-11891.97,-17330.625,6896.429999999999,-61171.875,6.191378793159413,5.878751543272118,6.960753122012887,7.929662517098845,1.408514751789283,2.313721570731196,-1.7993914100554569,3.177859917186932,0.172790085,-0.919248135,0.41418351000000003,-22.2796,23.82086,-12.31482,69.0
1774822891.7865472,1.1444091796875e-05,2026-03-29T22:21:31.786,2026-03-29T18:21:31.786,-32441.535,-45986.31,-85548.33,-49904.909999999996,-11882.385,-17341.739999999998,6900.165,-61167.104999999996,6.735932118939497,3.8337548493137215,1.9670777106981803,6.551841727067163,-0.24203280472551156,-0.6657503724734344,-9.970438117416034,-0.6129868119774935,0.172790085,-0.919248135,0.41418351000000003,-22.2796,23.82086,-12.31482,69.0
1774822891.7883296,0.0017824172973632812,2026-03-29T22:21:31.788,2026-03-29T18:21:31.788,-32436.495,-45991.395,-85559.44499999999,-49912.965,-11920.5,-17365.005,6911.054999999999,-61139.61,4.084082608699224,0.09583575332809698,-3.6462535335158903,2.6120985045135607,-1.6407331736891133,-3.2235988670639686,-13.334292898056269,-3.9525021274953684,0.172790085,-0.919248135,0.41418351000000003,-22.2796,23.82086,-12.31482,69.0
1774822891.7883456,1.5974044799804688e-05,2026-03-29T22:21:31.788,2026-03-29T18:21:31.788,-32476.815,-46049.4,-85627.26,-49957.11,-11907.72,-17347.095,6910.92,-61138.845,-0.5925177089899077,-3.7507671200718407,-7.52585334910316,-2.1121415715909793,-2.160094205848508,-4.225679263142885,-10.359133405484265,-5.376465451597004,0.172790085,-0.919248135,0.41418351000000003,-22.2796,23.82086,-12.31482,69.0
1774822891.795231,0.006885528564453125,2026-03-29T22:21:31.795,2026-03-29T18:21:31.795,-32478.524999999998,-46049.85,-85631.355,-49969.439999999995,-11903.58,-17348.085,6908.04,-61143.435,-5.12045336742006,-6.042137341333176,-8.138092077722408,-5.667412480713597,-1.6341438206107517,-3.2904893465104794,-2.5546177419283564,-4.37106149216294,0.172790085,-0.919248135,0.41418351000000003,-22.2796,23.82086,-12.31482,69.0
1774822891.795259,2.7894973754882812e-05,2026-03-29T22:21:31.795,2026-03-29T18:21:31.795,-32474.699999999997,-46026.314999999995,-85594.77,-49944.555,-11906.685,-17345.385,6919.469999999999,-61151.939999999995,-7.339429515214474,-5.751481294852447,-5.362960998487419,-6.725425399377481,-0.39500166898436134,-0.9229912707568692,6.297284700540596,-1.5408403501688706,0.172790085,-0.919248135,0.41418351000000003,-22.2796,23.82086,-12.31482,69.0
1774822891.7952769,1.7881393432617188e-05,2026-03-29T22:21:31.795,2026-03-29T18:21:31.795,-32466.195,-46016.595,-85581.315,-49934.205,-11902.814999999999,-17344.8,6914.655,-61149.015,-6.136315493857769,-2.9495460529219373,-0.47909881617501354,-5.056842327603347,0.924611751769938,1.7560131551368903,11.989858578391479,1.7474439009808371,0.183288105,-0.9216285,0.41735733,-19.71592,25.51472,-13.230419999999999,69.0
1774822891.7952847,7.867813110351562e-06,2026-03-29T22:21:31.795,2026-03-29T18:21:31.795,-32462.324999999997,-46019.655,-85580.595,-49930.784999999996,-11901.555,-17351.37,6911.775,-61143.884999999995,-2.0016830512042554,1.1981099467786243,4.422028012476952,-1.5223246096499468,1.7093238348350046,3.5402026610123127,11.908355126439087,4.038587282672133,0.183288105,-0.9216285,0.41735733,-19.71592,25.51472,-13.230419999999999,69.0
1774822891.7998936,0.004608869552612305,2026-03-29T22:21:31.799,2026-03-29T18:21:31.799,-32463.539999999997,-46018.034999999996,-85576.905,-49932.18,-11905.289999999999,-17353.53,6909.3,-61145.189999999995,3.1689476543731385,4.910219692344241,7.32561488898667,2.362843178449772,1.64144063899979,3.676774912458107,6.241260186160876,4.4423183395282715,0.183288105,-0.9216285,0.41735733,-19.71592,25.51472,-13.230419999999999,69.0
1774822891.79991,1.6450881958007812e-05,2026-03-29T22:21:31.799,2026-03-29T18:21:31.799,-32465.969999999998,-46020.825,-85590.72,-49927.005,-11910.6,-17354.61,6901.335,-61148.61,6.949471562228343,6.5516849769057925,7.111710442691075,5.07295743715754,0.8191391436356371,2.175867050391188,-2.179412325336865,2.9688613180768386,0.183288105,-0.9216285,0.41735733,-19.71592,25.51472,-13.230419999999999,69.0
1774822891.8040974,0.004187345504760742,2026-03-29T22:21:31.804,2026-03-29T18:21:31.804,-32462.19,-46019.07,-85597.37999999999,-49916.115,-11898.18,-17340.03,6892.83,-61154.369999999995,7.527444157150807,5.354110437045101,3.975640786398841,5.654052323722464,-0.32476982000040155,-0.23149403687122058,-9.2993600465456,0.4268907028568956,0.183288105,-0.9216285,0.41735733,-19.71592,25.51472,-13.230419999999999,69.0
1774822891.8041189,2.1457672119140625e-05,2026-03-29T22:21:31.804,2026-03-29T18:21:31.804,-32465.655,-46023.884999999995,-85602.825,-49929.165,-11907.314999999999,-17345.43,6890.13,-61158.825,4.5757964875075094,1.77729576056083,-0.7003166400464819,4.032126160937472,-1.2464872111954468,-2.447768059064192,-11.808738109274223,-2.019864852726241,0.183288105,-0.9216285,0.41735733,-19.71592,25.51472,-13.230419999999999,69.0
1774822891.8083649,0.0042459964752197266,2026-03-29T22:21:31.808,2026-03-29T18:21:31.808,-32462.28,-46013.445,-85574.205,-49923.314999999995,-11908.395,-17351.235,6891.884999999999,-61147.575,-0.5686645587861922,-2.6593785154323375,-4.949367534707939,0.9654101872878103,-1.5429173678922266,-3.5042029396190144,-8.69383378420603,-3.3947445476793545,0.183288105,-0.9216285,0.41735733,-19.71592,25.51472,-13.230419999999999,69.0
1774822891.808396,3.123283386230469e-05,2026-03-29T22:21:31.808,2026-03-29T18:21:31.808,-32471.594999999998,-46012.994999999995,-85557.23999999999,-49925.115,-11903.67,-17347.454999999998,6906.599999999999,-61152.075,-5.515187505656192,-6.01859791177784,-7.037320634465206,-2.3017781118840186,-1.1178506451626158,-2.9762647779666502,-1.6405680402592135,-3.2924504309172065,0.183288105,-0.9216285,0.41735733,-19.71592,25.51472,-13.230419999999999,69.0
1774822891.813283,0.0048868656158447266,2026-03-29T22:21:31.813,2026-03-29T18:21:31.813,-32477.805,-46024.65,-85576.14,-49947.165,-11911.23,-17345.16,6920.82,-61160.085,-7.937156843527966,-6.790924169145382,-6.1604269504039175,-4.528950687108271,-0.19973392227749545,-1.1458974499120864,5.866999159451319,-1.9581233289310944,0.183288105,-0.9216285,0.41735733,-19.71592,25.51472,-13.230419999999999,69.0
1774822891.8133,1.6927719116210938e-05,2026-03-29T22:21:31.813,2026-03-29T18:21:31.813,-32474.789999999997,-46029.24,-85584.33,-49946.939999999995,-11910.555,-17341.875,6921.8099999999995,-61157.159999999996,-6.672240169231515,-4.575623044411129,-2.748923423919211,-4.929049665527768,0.780848173888339,1.145887520574941,10.275123062253996,-0.07696688520566757,0.183288105,-0.9216285,0.41735733,-19.71592,25.51472,-13.230419999999999,69.0
1774822891.8160465,0.00274658203125,2026-03-29T22:21:31.816,2026-03-29T18:21:31.816,-32462.954999999998,-46014.705,-85563.27,-49931.729999999996,-11915.414999999999,-17360.19,6905.16,-61148.204999999994,-2.281716968383016,-0.2881427500307464,1.7347452948684505,-3.4280896275689785,1.388180327729603,2.8798981205314744,9.6549199090033,1.5798561224195893,0.19384716,-0.927670965,0.41796768,-13.306719999999999,27.89528,-14.00868,69.0
1774822891.816063,1.6450881958007812e-05,2026-03-29T22:21:31.816,2026-03-29T18:21:31.816,-32450.265,-46007.505,-85562.19,-49930.064999999995,-11920.32,-17366.535,6893.955,-61136.595,3.2009333902954116,4.213015314636354,5.411660623838074,-0.6608729397547158,1.3648507940986263,3.3034031593938606,4.549598636546111,2.4693187627756608,0.19384716,-0.927670965,0.41796768,-13.306719999999999,27.89528,-14.00868,69.0
1774822891.8198383,0.003775358200073242,2026-03-29T22:21:31.819,2026-03-29T18:21:31.819,-32450.715,-46016.055,-85576.905,-49945.725,-11934.27,-17373.239999999998,6896.7,-61132.32,7.218502103000758,6.9307905283013325,6.762505499272971,2.282314613344101,0.7296839845396819,2.2494023736945015,-2.3987780287828944,2.424432990334071,0.19384716,-0.927670965,0.41796768,-13.306719999999999,27.89528,-14.00868,69.0
1774822891.8198507,1.239776611328125e-05,2026-03-29T22:21:31.819,2026-03-29T18:21:31.819,-32458.59,-45995.939999999995,-85542.12,-49924.395,-11908.35,-17342.595,6910.605,-61160.174999999996,7.890192303753281,6.617813161226958,5.2496612965031595,4.265308575895853,-0.24049693850235546,0.19957512263442467,-7.811314834838623,1.6167512599036018,0.19384716,-0.927670965,0.41796768,-13.306719999999999,27.89528,-14.00868,69.0
1774822891.8243165,0.004465818405151367,2026-03-29T22:21:31.824,2026-03-29T18:21:31.824,-32463.989999999998,-45978.884999999995,-85511.565,-49901.805,-11886.029999999999,-17317.62,6904.3949999999995,-61175.25,4.896850876414535,3.35231484507555,1.534142994713132,4.530363071895438,-1.129612546521779,-1.9308997863790593,-9.222744068755533,0.4060200461957962,0.19384716,-0.927670965,0.41796768,-13.306719999999999,27.89528,-14.00868,69.0
1774822891.8243363,1.9788742065429688e-05,2026-03-29T22:21:31.824,2026-03-29T18:21:31.824,-32463.36,-46006.38,-85558.545,-49929.255,-11904.93,-17329.77,6876.8099999999995,-61176.104999999996,-0.36748795727282557,-1.465745461505312,-2.8013753408777897,2.987738866774551,-1.5515357402967291,-3.1930501951070314,-6.210852866583615,-0.8194192259596994,0.19384716,-0.927670965,0.41796768,-13.306719999999999,27.89528,-14.00868,69.0
1774822891.8280432,0.0037069320678710938,2026-03-29T22:21:31.828,2026-03-29T18:21:31.828,-32460.48,-46025.28,-85594.815,-49943.79,-11915.55,-17353.755,6859.17,-61175.34,-5.449653415079822,-5.712224210977826,-5.913005150757933,0.260179166071419,-1.3059665773304268,-3.0186378063186154,-0.48475512913325897,-1.7413703352426253,0.19384716,-0.927670965,0.41796768,-13.306719999999999,27.89528,-14.00868,69.0
1774822891.8280663,2.3126602172851562e-05,2026-03-29T22:21:31.828,2026-03-29T18:21:31.828,-32469.164999999997,-46017.63,-85577.08499999999,-49935.15,-11924.145,-17374.68,6902.46,-61168.14,-7.987933762361585,-7.476319975694464,-6.471080430688076,-2.547376940799019,-0.46446453163273893,-1.472922391764031,5.058151345839827,-2.1433040302688466,0.19384716,-0.927670965,0.41796768,-13.306719999999999,27.89528,-14.00868,69.0
1774822891.832486,0.004419565200805664,2026-03-29T22:21:31.832,2026-03-29T18:21:31.832,-32475.105,-46012.095,-85556.745,-49918.814999999995,-11925.09,-17364.375,6957.179999999999,-61143.255,-6.816243712767815,-5.923860572516134,-4.2293933392472916,-4.280513397155556,0.6460403371594754,0.7651646183296869,7.795727649862154,-1.915361034200883,0.19384716,-0.927670965,0.41796768,-13.306719999999999,27.89528,-14.00868,69.0
1774822891.8324988,1.2874603271484375e-05,2026-03-29T22:21:31.832,2026-03-29T18:21:31.832,-32466.239999999998,-46011.33,-85556.43,-49921.604999999996,-11897.414999999999,-17339.399999999998,6934.7699999999995,-61155.99,-2.5026964209861746,-1.694813306806096,-0.14460827259968284,-4.210214550004036,1.561138065458357,2.692778469773749,6.626553912164903,-1.0746911966682329,0.19384716,-0.927670965,0.41796768,-13.306719999999999,27.89528,-14.00868,69.0
1774822891.8359554,0.003456592559814453,2026-03-29T22:21:31.835,2026-03-29T18:21:31.835,-32463.27,-45996.75,-85545.27,-49928.04,-11882.699999999999,-17324.1,6916.95,-61170.119999999995,2.927372315188841,3.3555840856160355,4.0162352263628325,-2.355240258055694,1.8612873726871908,3.4239642984375376,2.4035594253910975,0.19619483740011107,0.20495553,-0.92358162,0.41454972,-12.5895,29.10082,-14.08498,69.0
1774822891.8359675,1.2159347534179688e-05,2026-03-29T22:21:31.835,2026-03-29T18:21:31.835,-32448.824999999997,-45988.244999999995,-85541.535,-49927.229999999996,-11898.99,-17315.864999999998,6921.045,-61140.96,6.948161359685569,6.969922432471884,6.427148275577059,0.49800947981311794,1.3537140652889146,2.592295224655882,-2.609078497991557,1.535501703456003,0.20495553,-0.92358162,0.41454972,-12.5895,29.10082,-14.08498,69.0
1774822891.840302,0.004334449768066406,2026-03-29T22:21:31.840,2026-03-29T18:21:31.840,-32459.535,-46012.32,-85559.535,-49921.47,-11895.84,-17323.829999999998,6925.59,-61137.0,7.715366526866815,7.500032103458884,6.000731238365363,3.110461975493619,0.1799398663031006,0.534475149994041,-5.932678576091092,2.4672382507666817,0.20495553,-0.92358162,0.41454972,-12.5895,29.10082,-14.08498,69.0
1774822891.8403368,3.4809112548828125e-05,2026-03-29T22:21:31.840,2026-03-29T18:21:31.840,-32484.555,-46043.145,-85584.645,-49915.53,-11889.585,-17327.97,6908.4,-61151.445,4.917128472208682,4.662608486258301,2.8858076129621444,4.324605519190207,-1.2065864642542408,-1.8374040318442901,-6.098071274322199,2.562679461552821,0.20495553,-0.92358162,0.41454972,-12.5895,29.10082,-14.08498,69.0
1774822891.8452902,0.0049533843994140625,2026-03-29T22:21:31.845,2026-03-29T18:21:31.845,-32472.18,-46041.479999999996,-85578.61499999999,-49901.58,-11884.14,-17336.52,6896.07,-61128.99,-0.10076568713515753,-0.30897044090942627,-1.5653279144128525,3.5903217922608626,-2.2026343154242323,-3.4319853915915037,-3.2928490346193127,1.6477244249401217,0.20495553,-0.92358162,0.41454972,-12.5895,29.10082,-14.08498,69.0
1774822891.8453057,1.5497207641601562e-05,2026-03-29T22:21:31.845,2026-03-29T18:21:31.845,-32484.239999999998,-46040.895,-85572.045,-49900.725,-11883.33,-17332.515,6903.855,-61143.119999999995,-4.984672732763815,-5.197691896600519,-5.36727183798158,1.237825684585851,-2.3071185016677873,-3.4755618331009015,0.8518006312203283,-0.048869856072347256,0.20495553,-0.92358162,0.41454972,-12.5895,29.10082,-14.08498,69.0
1774822891.8479445,0.0026388168334960938,2026-03-29T22:21:31.847,2026-03-29T18:21:31.847,-32481.945,-46025.325,-85557.375,-49898.52,-11873.43,-17312.715,6919.695,-61165.439999999995,-7.482913073759368,-7.791973664566886,-6.777394285064782,-1.647592382619241,-1.3630213092666685,-1.8859232620193371,4.174579069829103,-1.9106900208912079,0.20495553,-0.92358162,0.41454972,-12.5895,29.10082,-14.08498,69.0
1774822891.8479567,1.2159347534179688e-05,2026-03-29T22:21:31.847,2026-03-29T18:21:31.847,-32483.25,-46010.295,-85544.595,-49898.52,-11867.895,-17303.625,6923.34,-61184.564999999995,-6.489709025848445,-6.889509007446739,-5.095732271534627,-3.7143648463633823,0.3237720594829962,0.6572961727390806,5.098434137559821,-3.148600236438865,0.20495553,-0.92358162,0.41454972,-12.5895,29.10082,-14.08498,69.0
1774822891.855818,0.00786137580871582,2026-03-29T22:21:31.855,2026-03-29T18:21:31.855,-32473.71,-46005.525,-85550.535,-49902.615,-11869.515,-17305.245,6934.005,-61160.625,-2.5367583852905375,-2.8590174157596997,-1.0215700413432238,-3.982660632256575,2.0637101391977564,2.995558106069868,3.375731972802529,-3.1456947697775512,0.20495553,-0.92358162,0.41454972,-12.5895,29.10082,-14.08498,69.0
1774822891.855836,1.7881393432617188e-05,2026-03-29T22:21:31.855,2026-03-29T18:21:31.855,-32459.039999999997,-46003.95,-85557.87,-49911.84,-11898.63,-17340.3,6915.42,-61140.735,2.4868443545506462,2.5042733819766516,3.617882308800674,-2.328524384816256,3.0542269214329907,4.014384996694126,0.11360860170334107,-1.7760240775794451,0.20495553,-0.92358162,0.41454972,-12.5895,29.10082,-14.08498,69.0
1774822891.8558493,1.33514404296875e-05,2026-03-29T22:21:31.855,2026-03-29T18:21:31.855,-32468.219999999998,-46010.744999999995,-85560.48,-49917.06,-11914.605,-17357.579999999998,6895.844999999999,-61164.045,6.240364449757602,6.7760727235310805,6.672233118972995,0.433021555325788,2.741966439599817,3.1725995626567784,-2.88738685047544,0.4721649372377615,0.20971626000000002,-0.91442637,0.408141045,-14.329139999999999,28.64302,-15.1837,69.0
1774822891.855856,6.67572021484375e-06,2026-03-29T22:21:31.855,2026-03-29T18:21:31.855,-32475.645,-46018.17,-85568.265,-49932.854999999996,-11915.055,-17349.12,6906.735,-61165.755,7.027175566388518,8.000375282623978,6.658801689203128,2.9279840997876425,1.116557501589551,0.7869093020224739,-4.1025964844492915,2.659312484561462,0.20971626000000002,-0.91442637,0.408141045,-14.329139999999999,28.64302,-15.1837,69.0
1774822891.860339,0.00448298454284668,2026-03-29T22:21:31.860,2026-03-29T18:21:31.860,-32465.114999999998,-46008.09,-85551.435,-49919.49,-11887.38,-17324.774999999998,6929.37,-61143.93,4.565345515937414,5.589628552225492,3.4857730162127987,3.8983891598251166,-1.2151709653991671,-2.0772611517987283,-3.0473147669725957,3.796053079811091,0.20971626000000002,-0.91442637,0.408141045,-14.329139999999999,28.64302,-15.1837,69.0
1774822891.8603528,1.3828277587890625e-05,2026-03-29T22:21:31.860,2026-03-29T18:21:31.860,-32448.6,-45991.485,-85533.56999999999,-49899.555,-11896.064999999999,-17334.18,6927.57,-61131.555,0.08159489924514045,0.6117455458121385,-1.4463307475094158,2.8439479624556796,-3.2405968342699447,-4.077805447477278,-0.45661142600358595,3.3071145471075423,0.20971626000000002,-0.91442637,0.408141045,-14.329139999999999,28.64302,-15.1837,69.0
1774822891.8659313,0.005578517913818359,2026-03-29T22:21:31.865,2026-03-29T18:21:31.865,-32457.195,-45992.61,-85525.37999999999,-49887.314999999995,-11935.845,-17361.0,6930.675,-61141.905,-4.29826176311472,-4.6780855796469005,-5.845224333084489,0.30028158217357936,-3.9740076942183125,-4.2237765807473595,2.1773633544787305,1.3324052285862809,0.20971626000000002,-0.91442637,0.408141045,-14.329139999999999,28.64302,-15.1837,69.0
1774822891.86596,2.86102294921875e-05,2026-03-29T22:21:31.865,2026-03-29T18:21:31.865,-32480.145,-46016.729999999996,-85546.665,-49915.755,-11936.115,-17365.815,6909.3,-61158.869999999995,-6.559970807035585,-7.857996351358104,-7.580813684345331,-2.407342768390917,-2.9293195181418583,-2.3654633296243004,3.434974579217194,-1.2960860790471038,0.20971626000000002,-0.91442637,0.408141045,-14.329139999999999,28.64302,-15.1837,69.0
1774822891.870158,0.0041980743408203125,2026-03-29T22:21:31.870,2026-03-29T18:21:31.870,-32493.96,-46035.765,-85568.44499999999,-49933.799999999996,-11865.645,-17314.335,6896.5199999999995,-61169.354999999996,-5.730802945647604,-7.4513516941356235,-5.713002107565246,-3.832175293814469,-0.40860503135650666,0.6960130225981049,2.714786958624239,-3.4112915007462687,0.20971626000000002,-0.91442637,0.408141045,-14.329139999999999,28.64302,-15.1837,69.0
1774822891.8701868,2.8848648071289062e-05,2026-03-29T22:21:31.870,2026-03-29T18:21:31.870,-32482.62,-46029.645,-85563.94499999999,-49923.36,-11885.76,-17324.145,6900.075,-61160.265,-2.2979565053135604,-3.6183942140637653,-0.9987417077693949,-3.167104663196389,2.555257882355148,3.5507738925891927,0.5105573423085727,-4.045393824717219,0.20971626000000002,-0.91442637,0.408141045,-14.329139999999999,28.64302,-15.1837,69.0
1774822891.87527,0.0050830841064453125,2026-03-29T22:21:31.875,2026-03-29T18:21:31.875,-32478.03,-46019.34,-85549.23,-49917.825,-11901.689999999999,-17333.91,6888.554999999999,-61156.079999999994,2.064286131078777,1.8987600989053501,4.3938462703672805,-0.7023894272442681,4.613403946362486,4.829964301752357,-1.903176703461273,-2.88906068088854,0.20971626000000002,-0.91442637,0.408141045,-14.329139999999999,28.64302,-15.1837,69.0
1774822891.8752873,1.7404556274414062e-05,2026-03-29T22:21:31.875,2026-03-29T18:21:31.875,-32466.824999999997,-46012.814999999995,-85555.17,-49920.435,-11898.539999999999,-17325.315,6879.195,-61163.82,5.310257278115303,6.563967985990748,7.8686320431935695,2.278739462591434,4.7114623558846995,3.8634056641939103,-3.1856520154904624,-0.4502088525607916,0.20971626000000002,-0.91442637,0.408141045,-14.329139999999999,28.64302,-15.1837,69.0
1774822891.8780115,0.002724170684814453,2026-03-29T22:21:31.878,2026-03-29T18:21:31.878,-32456.655,-46005.615,-85557.735,-49917.284999999996,-11882.07,-17307.09,6891.525,-61175.88,5.984176694023485,8.213473460349235,7.642474408437408,4.14224913219294,2.6208569437088034,1.0280160723920952,-2.6521660468839476,2.172162710222652,0.20092722,-0.90966564,0.40063374,-17.65582,30.4437,-15.39734,69.0
1774822891.8780377,2.6226043701171875e-05,2026-03-29T22:21:31.878,2026-03-29T18:21:31.878,-32473.53,-46019.52,-85561.69499999999,-49910.805,-11877.39,-17320.725,6911.6849999999995,-61162.2,3.8743808154310804,6.064388735684676,3.6541304223282007,3.7711648210872712,-0.8738620478246419,-2.393693537960435,-0.6229564125530119,3.7966869105283894,0.20092722,-0.90966564,0.40063374,-17.65582,30.4437,-15.39734,69.0
1774822891.8820777,0.0040400028228759766,2026-03-29T22:21:31.882,2026-03-29T18:21:31.882,-32483.34,-46026.674999999996,-85567.905,-49905.854999999996,-11886.435,-17343.72,6915.915,-61138.755,0.0661002162676989,1.0931769881291877,-2.320166313033706,1.2073931697114257,-4.2553756728182455,-4.79552327833399,1.7729824424997738,3.708926427134253,0.20092722,-0.90966564,0.40063374,-17.65582,30.4437,-15.39734,69.0
1774822891.8821015,2.384185791015625e-05,2026-03-29T22:21:31.882,2026-03-29T18:21:31.882,-32489.37,-46022.22,-85564.53,-49908.915,-11902.994999999999,-17347.32,6913.304999999999,-61155.63,-3.6108345058300233,-4.401686243312201,-7.4436077688008755,-2.291834137063181,-5.929910253824247,-5.005087005475015,3.219323597546599,1.9878606088536748,0.20092722,-0.90966564,0.40063374,-17.65582,30.4437,-15.39734,69.0
1774822891.8840716,0.001970052719116211,2026-03-29T22:21:31.884,2026-03-29T18:21:31.884,-32486.219999999998,-46016.955,-85554.09,-49912.83,-11918.43,-17339.805,6911.594999999999,-61162.604999999996,-5.460287638766831,-7.860066562468376,-9.155511598886449,-4.852028980750204,-4.977042190929728,-2.8576945400661398,2.920066370292784,-0.545341667157601,0.20092722,-0.90966564,0.40063374,-17.65582,30.4437,-15.39734,69.0
1774822891.8840916,2.002716064453125e-05,2026-03-29T22:21:31.884,2026-03-29T18:21:31.884,-32484.465,-46035.54,-85583.205,-49940.82,-11907.675,-17323.29,6905.655,-61178.085,-4.702707785298851,-7.655528702528501,-6.441979004734027,-4.957011547964906,-1.6405700904658096,0.6955823041904449,1.0188321015638169,-2.7266560601268455,0.20092722,-0.90966564,0.40063374,-17.65582,30.4437,-15.39734,69.0
1774822891.8952613,0.011169672012329102,2026-03-29T22:21:31.895,2026-03-29T18:21:31.895,-32480.954999999998,-46042.2,-85581.765,-49941.72,-11878.785,-17332.2,6880.275,-61186.905,-1.8010951662245092,-3.866478884746301,-0.41290743351812487,-2.303816196647561,2.696306543066227,4.011234341961976,-1.4843423183666276,-3.598786017046924,0.20092722,-0.90966564,0.40063374,-17.65582,30.4437,-15.39734,69.0
1774822891.8952813,2.002716064453125e-05,2026-03-29T22:21:31.895,2026-03-29T18:21:31.895,-32476.094999999998,-46019.744999999995,-85544.19,-49914.09,-11875.904999999999,-17332.829999999998,6912.2699999999995,-61159.725,1.804594203908789,1.7452569382826646,6.134876154035741,1.931234408009124,6.080009809544566,5.518783639803864,-3.2656217447206695,-2.844684151539906,0.20092722,-0.90966564,0.40063374,-17.65582,30.4437,-15.39734,69.0
1774822891.8953063,2.5033950805664062e-05,2026-03-29T22:21:31.895,2026-03-29T18:21:31.895,-32492.969999999998,-46013.04,-85518.27,-49889.159999999996,-11865.96,-17303.04,6937.695,-61152.975,4.407771175964495,6.548745884949886,10.006423720568671,5.601736483542998,6.868385585878498,4.46926939752472,-3.373749788398771,-0.9024044940651577,0.20092722,-0.90966564,0.40063374,-17.65582,30.4437,-15.39734,69.0
1774822891.8953125,6.198883056640625e-06,2026-03-29T22:21:31.895,2026-03-29T18:21:31.895,-32482.754999999997,-46018.17,-85542.25499999999,-49918.5,-11899.529999999999,-17327.204999999998,6911.639999999999,-61159.005,4.841268858408827,8.276973448801815,9.159188113143186,6.6618533229679855,4.526502726315646,1.3075509738612359,-1.7256820054084372,1.2800759808394144,0.20092722,-0.90966564,0.40063374,-17.65582,30.4437,-15.39734,69.0
1774822891.895321,8.344650268554688e-06,2026-03-29T22:21:31.895,2026-03-29T18:21:31.895,-32484.645,-46020.509999999995,-85549.36499999999,-49934.43,-11913.119999999999,-17336.565,6917.175,-61143.075,2.9990164257944536,6.100792822783123,3.7654054292333305,4.270391540307196,-0.04902283939289688,-2.5171450024784434,0.8519358290878455,2.7154718919271392,0.186339855,-0.91271739,0.39257712,-19.258119999999998,26.91864,-15.04636,69.0
1774822891.8953273,6.4373016357421875e-06,2026-03-29T22:21:31.895,2026-03-29T18:21:31.895,-32488.965,-46015.965,-85538.11499999999,-49922.415,-11904.615,-17342.595,6929.009999999999,-61131.689999999995,-0.1588605568547381,1.0331445838912834,-3.761215155179969,-0.6556014544526334,-4.862570506223376,-5.221484230869623,3.0501746196189834,2.835894215844627,0.186339855,-0.91271739,0.39257712,-19.258119999999998,26.91864,-15.04636,69.0
1774822891.9005873,0.005259990692138672,2026-03-29T22:21:31.900,2026-03-29T18:21:31.900,-32475.105,-46005.435,-85530.06,-49912.74,-11892.375,-17338.995,6910.695,-61150.905,-3.098999476854475,-4.536254441276047,-9.839121873451413,-5.772683521147087,-7.691937843476564,-5.526283147323667,3.7483188210478926,1.7209804055545113,0.186339855,-0.91271739,0.39257712,-19.258119999999998,26.91864,-15.04636,69.0
1774822891.9006112,2.384185791015625e-05,2026-03-29T22:21:31.900,2026-03-29T18:21:31.900,-32494.59,-46028.115,-85545.315,-49899.78,-11868.119999999999,-17300.61,6915.15,-61178.85,-4.455254088477525,-7.964771271129269,-11.418624697123727,-8.420780848497577,-7.118617082841524,-3.2654541579177936,2.582108403331759,0.002193075838780724,0.186339855,-0.91271739,0.39257712,-19.258119999999998,26.91864,-15.04636,69.0
1774822891.9041712,0.0035600662231445312,2026-03-29T22:21:31.904,2026-03-29T18:21:31.904,-32501.07,-46055.79,-85579.02,-49913.64,-11878.425,-17302.815,6916.005,-61155.314999999995,-3.660531274240199,-7.611844411474938,-7.502307061817754,-6.987340765867941,-3.236305368261235,0.5262322222735428,0.12326220703482309,-1.4857272846074343,0.186339855,-0.91271739,0.39257712,-19.258119999999998,26.91864,-15.04636,69.0
1774822891.904206,3.4809112548828125e-05,2026-03-29T22:21:31.904,2026-03-29T18:21:31.904,-32490.18,-46043.415,-85558.41,-49899.015,-11872.529999999999,-17300.565,6913.08,-61130.79,-1.1791192710915668,-3.628338833016876,0.26896727190002856,-1.8325213903313655,2.31542155956601,4.0920897401418115,-2.4137431511012473,-2.1164491758964017,0.186339855,-0.91271739,0.39257712,-19.258119999999998,26.91864,-15.04636,69.0
1774822891.9097044,0.005498409271240234,2026-03-29T22:21:31.909,2026-03-29T18:21:31.909,-32489.73,-46028.34,-85539.555,-49896.72,-11879.955,-17307.945,6902.37,-61145.82,1.7528630907605538,2.10158343172111,8.29495879321163,4.737344941069148,7.043086173206952,5.775008194574712,-3.7820433760356433,-1.7409781691713597,0.186339855,-0.91271739,0.39257712,-19.258119999999998,26.91864,-15.04636,69.0
1774822891.9097416,3.719329833984375e-05,2026-03-29T22:21:31.909,2026-03-29T18:21:31.909,-32490.27,-46016.865,-85527.18,-49888.935,-11880.855,-17308.98,6911.505,-61156.755,3.737691000914499,6.847303936484154,12.68398957981657,9.502047512640768,8.725593743970753,4.793762079449883,-3.3191679983441587,-0.6960065361921548,0.186339855,-0.91271739,0.39257712,-19.258119999999998,26.91864,-15.04636,69.0
1774822891.9123533,0.0026116371154785156,2026-03-29T22:21:31.912,2026-03-29T18:21:31.912,-32494.77,-46017.63,-85534.875,-49896.945,-11882.609999999999,-17310.825,6921.585,-61158.825,3.877629952951743,8.331534876940307,11.136827993052467,9.90379512028936,6.463423891516477,1.6075407181532653,-1.26399353884693,0.42543368335469434,0.186339855,-0.91271739,0.39257712,-19.258119999999998,26.91864,-15.04636,69.0
1774822891.9123733,2.002716064453125e-05,2026-03-29T22:21:31.912,2026-03-29T18:21:31.912,-32501.52,-46021.185,-85543.65,-49911.03,-11889.09,-17316.225,6903.45,-61167.735,2.1766401941024194,5.824574360830633,4.134884849154567,5.396179190818824,1.152577728863385,-2.3022609871184994,1.3755862276166515,1.1003666411366353,0.186339855,-0.91271739,0.39257712,-19.258119999999998,26.91864,-15.04636,69.0
1774822891.918033,0.005659580230712891,2026-03-29T22:21:31.918,2026-03-29T18:21:31.918,-32499.495,-46038.689999999995,-85577.895,-49936.545,-11898.539999999999,-17325.405,6898.86,-61155.134999999995,-0.4953765707436162,0.506230666192416,-5.175962522956113,-2.1374760633949625,-4.863986095274479,-5.127755080918187,3.327723260119043,1.1228146169754125,0.17834427,-0.91576914,0.38525292,-14.77168,28.459899999999998,-15.855139999999999,69.0
1774822891.9180565,2.3603439331054688e-05,2026-03-29T22:21:31.918,2026-03-29T18:21:31.918,-32486.895,-46031.895,-85577.22,-49944.33,-11903.22,-17325.18,6905.88,-61135.335,-2.842305083853496,-5.08547120295239,-12.40150937014413,-9.167656722220467,-8.835684290365704,-5.577838508875671,3.6770401387997986,0.6534233491129926,0.17834427,-0.91576914,0.38525292,-14.77168,28.459899999999998,-15.855139999999999,69.0
1774822891.9215455,0.0034890174865722656,2026-03-29T22:21:31.921,2026-03-29T18:21:31.921,-32496.48,-46025.685,-85547.385,-49914.494999999995,-11881.305,-17299.079999999998,6910.245,-61155.494999999995,-3.765026889149001,-8.262761997017506,-13.976612128779506,-12.180613295360457,-8.871111334048884,-3.472379830525977,2.2950030483492965,0.06930591119572287,0.17834427,-0.91576914,0.38525292,-14.77168,28.459899999999998,-15.855139999999999,69.0
1774822891.9215744,2.8848648071289062e-05,2026-03-29T22:21:31.921,2026-03-29T18:21:31.921,-32499.945,-46041.03,-85561.02,-49931.595,-11888.055,-17293.364999999998,6916.545,-61154.055,-2.870568373069703,-7.479091675820982,-8.919476290440638,-9.432385102592646,-4.84483327834899,0.18796423032953383,-0.12192761800468233,-0.28146559289533224,0.17834427,-0.91576914,0.38525292,-14.77168,28.459899999999998,-15.855139999999999,69.0
1774822891.9252956,0.0037212371826171875,2026-03-29T22:21:31.925,2026-03-29T18:21:31.925,-32492.925,-46035.18,-85555.98,-49932.854999999996,-11896.425,-17313.345,6908.985,-61147.35,-0.6338212156527399,-3.0824381503729237,0.5993667443941586,-1.9194985688160218,1.493304899958177,3.7018926682060567,-2.410729484913876,-0.27447056889080446,0.17834427,-0.91576914,0.38525292,-14.77168,28.459899999999998,-15.855139999999999,69.0
1774822891.9253092,1.3589859008789062e-05,2026-03-29T22:21:31.925,2026-03-29T18:21:31.925,-32484.824999999997,-46017.36,-85524.75,-49908.555,-11898.63,-17330.13,6902.6849999999995,-61146.765,1.8515503253651224,2.836463368602953,10.189661868835548,6.960943019724926,7.281551073217029,5.465070941311767,-3.5094257527028905,-0.047789288776387696,0.17834427,-0.91576914,0.38525292,-14.77168,28.459899999999998,-15.855139999999999,69.0
1774822891.9282508,0.002941608428955078,2026-03-29T22:21:31.928,2026-03-29T18:21:31.928,-32474.295,-46006.965,-85515.97499999999,-49886.055,-11875.365,-17310.059999999998,6900.165,-61142.354999999996,3.4034529907700706,7.436119498940796,15.274662492766584,12.959027598273261,9.848367724207788,4.708206129781112,-2.9537690373745695,0.12317401623652967,0.17834427,-0.91576914,0.38525292,-14.77168,28.459899999999998,-15.855139999999999,69.0
1774822891.9282823,3.147125244140625e-05,2026-03-29T22:21:31.928,2026-03-29T18:21:31.928,-32474.699999999997,-45998.865,-85507.2,-49874.759999999995,-11872.8,-17324.145,6895.755,-61148.655,3.3074563569509814,8.486408450819196,13.279258208276383,13.017369462057527,7.9565275506081665,1.8336531738223913,-1.0695705750124165,0.02797507873850208,0.17834427,-0.91576914,0.38525292,-14.77168,28.459899999999998,-15.855139999999999,69.0
1774822891.9322145,0.00393223762512207,2026-03-29T22:21:31.932,2026-03-29T18:21:31.932,-32498.414999999997,-46018.35,-85524.39,-49885.74,-11875.59,-17320.59,6910.38,-61164.54,1.6396447133897487,5.448200134498255,4.924438535222562,6.824416878010145,2.4048960700645856,-1.796898498372597,1.2161754754039007,-0.3271047626036062,0.17834427,-0.91576914,0.38525292,-14.77168,28.459899999999998,-15.855139999999999,69.0
1774822891.932228,1.3589859008789062e-05,2026-03-29T22:21:31.932,2026-03-29T18:21:31.932,-32510.655,-46051.335,-85583.205,-49933.395,-11882.025,-17307.945,6926.219999999999,-61155.63,-0.786789461103246,-0.2519024911075043,-6.019403791572157,-2.9119056363785116,-4.30729276384943,-4.512110978943297,2.8368751325927515,-0.7110618390111451,0.17834427,-0.91576914,0.38525292,-14.77168,28.459899999999998,-15.855139999999999,69.0
1774822891.936309,0.004081010818481445,2026-03-29T22:21:31.936,2026-03-29T18:21:31.936,-32501.43,-46046.07,-85584.555,-49948.29,-11894.13,-17323.559999999998,6911.82,-61145.28,-2.8163615978974326,-5.890984467632941,-14.443899282304908,-11.656848087084429,-9.113816654711137,-5.105997942963662,3.0886048371219608,-0.809682633241177,0.16564899,-0.91406016,0.38146875,-14.466479999999999,29.42128,-13.21516,69.0
1774822891.9363272,1.811981201171875e-05,2026-03-29T22:21:31.936,2026-03-29T18:21:31.936,-32495.399999999998,-46030.68,-85554.09,-49932.314999999995,-11918.205,-17335.89,6902.775,-61158.645,-3.4964757703373994,-8.749261541034524,-16.297364867688792,-15.17873803520653,-9.795002235964889,-3.376498551797784,1.9349761875694824,-0.4326333902748989,0.16564899,-0.91406016,0.38146875,-14.466479999999999,29.42128,-13.21516,69.0
1774822891.9401636,0.003836393356323242,2026-03-29T22:21:31.940,2026-03-29T18:21:31.940,-32496.3,-46024.335,-85529.34,-49907.97,-11922.84,-17338.995,6912.719999999999,-61163.64,-2.5179362100106055,-7.419528558987776,-10.535268271723256,-11.60778503313789,-6.014037704851937,-0.18604805476377081,-0.016238794955786593,0.3386129167334731,0.16564899,-0.91406016,0.38146875,-14.466479999999999,29.42128,-13.21516,69.0
1774822891.9401844,2.0742416381835938e-05,2026-03-29T22:21:31.940,2026-03-29T18:21:31.940,-32505.614999999998,-46037.25,-85542.93,-49903.965,-11876.22,-17307.225,6916.32,-61155.045,-0.35008531877443166,-2.496727191136551,0.3136758170438636,-2.417129056115599,0.5129172104698867,2.9685672858120338,-1.833125120559001,1.1558039122690338,0.16564899,-0.91406016,0.38146875,-14.466479999999999,29.42128,-13.21516,69.0
1774822891.9445872,0.004402875900268555,2026-03-29T22:21:31.944,2026-03-29T18:21:31.944,-32503.454999999998,-46027.979999999996,-85531.995,-49887.72,-11874.24,-17302.995,6914.88,-61150.229999999996,1.9858097754962725,3.689167062607551,11.264763885365344,8.184308844481693,6.800308725666775,4.662352797930398,-2.707824929773484,1.5703191015905167,0.16564899,-0.91406016,0.38146875,-14.466479999999999,29.42128,-13.21516,69.0
1774822891.9446013,1.4066696166992188e-05,2026-03-29T22:21:31.944,2026-03-29T18:21:31.944,-32498.82,-46023.435,-85528.26,-49897.755,-11894.715,-17323.875,6895.8,-61161.075,3.394917753998038,8.17653125299373,17.180662754148347,15.19738981895167,9.97076169718951,4.189419100702657,-2.316239967128824,1.2770610237315765,0.16564899,-0.91406016,0.38146875,-14.466479999999999,29.42128,-13.21516,69.0
1774822891.9487405,0.0041391849517822266,2026-03-29T22:21:31.948,2026-03-29T18:21:31.948,-32496.84,-46031.67,-85544.055,-49895.82,-11857.365,-17318.204999999998,6904.035,-61154.64,3.216205541608935,8.788696059663184,15.190501245772339,15.209212065896992,8.585665616465533,1.856014525157985,-0.9294474472607491,0.3038374038987872,0.16564899,-0.91406016,0.38146875,-14.466479999999999,29.42128,-13.21516,69.0
1774822891.9487612,2.0742416381835938e-05,2026-03-29T22:21:31.948,2026-03-29T18:21:31.948,-32502.195,-46025.189999999995,-85528.08,-49870.755,-11852.73,-17311.86,6904.17,-61168.68,1.5263909531375777,5.186390685495784,6.081450656298189,8.06227540970282,3.3071575590894877,-1.2014254027338747,0.7555641366425557,-0.9625033709160034,0.16564899,-0.91406016,0.38146875,-14.466479999999999,29.42128,-13.21516,69.0
1774822891.9566505,0.007889270782470703,2026-03-29T22:21:31.956,2026-03-29T18:21:31.956,-32496.03,-46041.975,-85569.25499999999,-49898.159999999996,-11875.05,-17310.96,6888.735,-61181.505,-0.8964596238547871,-0.9516863608070917,-6.011130554086493,-3.0035427773070023,-3.417434674928667,-3.5701014359255594,1.9656657879412978,-1.9388276293824052,0.16564899,-0.91406016,0.38146875,-14.466479999999999,29.42128,-13.21516,69.0
1774822891.956666,1.5497207641601562e-05,2026-03-29T22:21:31.956,2026-03-29T18:21:31.956,-32499.945,-46050.525,-85583.025,-49921.38,-11893.005,-17312.805,6901.425,-61167.149999999994,-2.930850926373464,-6.71369233985164,-15.49347698967156,-12.833508138915485,-8.498727769730303,-4.216394672621204,2.206539186103268,-2.1236886747263077,0.16564899,-0.91406016,0.38146875,-14.466479999999999,29.42128,-13.21516,69.0
1774822891.95668,1.4066696166992188e-05,2026-03-29T22:21:31.956,2026-03-29T18:21:31.956,-32515.245,-46044.18,-85554.18,-49917.06,-11874.195,-17306.37,6930.2699999999995,-61142.13,-3.627016754817168,-9.336717626719054,-17.913820681502962,-16.78017766130782,-9.638191179327439,-2.937862833104111,1.4601091386948837,-1.3535959112745874,0.146667105,-0.9096046050000001,0.377257335,-18.63246,28.12418,-10.01056,69.0
1774822891.956684,4.0531158447265625e-06,2026-03-29T22:21:31.956,2026-03-29T18:21:31.956,-32492.024999999998,-46025.729999999996,-85534.83,-49931.415,-11887.605,-17330.265,6909.12,-61138.71,-2.6447313474319567,-7.529611747316435,-12.058899836402855,-12.917586292935667,-6.379959326245214,-0.413889265263308,0.14864958152831415,0.09314988205291021,0.146667105,-0.9096046050000001,0.377257335,-18.63246,28.12418,-10.01056,69.0
1774822891.965032,0.00834798812866211,2026-03-29T22:21:31.965,2026-03-29T18:21:31.965,-32499.09,-46035.585,-85555.215,-49955.04,-11905.92,-17332.695,6898.545,-61139.43,-0.4146169614581646,-2.1038649095886828,-0.5565997885451415,-2.985186953614599,-0.29461274109127855,2.1488610847150933,-1.0962561774641792,1.602881086047876,0.146667105,-0.9096046050000001,0.377257335,-18.63246,28.12418,-10.01056,69.0
1774822891.965062,2.9802322387695312e-05,2026-03-29T22:21:31.965,2026-03-29T18:21:31.965,-32509.215,-46041.255,-85550.58,-49930.695,-11893.005,-17314.065,6915.42,-61138.845,2.051518029634214,4.3939322633283835,11.312174084657615,8.402532256447863,5.780004180978589,3.5933959130554776,-1.7361460955833687,2.498284756289362,0.146667105,-0.9096046050000001,0.377257335,-18.63246,28.12418,-10.01056,69.0
1774822891.9651053,4.3392181396484375e-05,2026-03-29T22:21:31.965,2026-03-29T18:21:31.965,-32516.954999999998,-46040.04,-85532.4,-49899.33,-11880.63,-17305.739999999998,6926.535,-61153.47,3.617600986988195,8.88014664355761,18.051086399275942,15.917947204186591,9.07279579645476,3.3357867595648636,-1.5555108911837816,2.349264818659397,0.146667105,-0.9096046050000001,0.377257335,-18.63246,28.12418,-10.01056,69.0
1774822891.9651177,1.239776611328125e-05,2026-03-29T22:21:31.965,2026-03-29T18:21:31.965,-32511.42,-46030.409999999996,-85519.89,-49895.595,-11879.865,-17302.14,6925.679999999999,-61149.465,3.542512812709303,9.197785942182811,16.504552110153973,16.032452563724515,8.156190258346683,1.59791029414807,-0.7229277142639141,1.176993006761155,0.146667105,-0.9096046050000001,0.377257335,-18.63246,28.12418,-10.01056,69.0
1774822891.9686716,0.0035538673400878906,2026-03-29T22:21:31.968,2026-03-29T18:21:31.968,-32503.184999999998,-46023.119999999995,-85512.645,-49896.0,-11886.164999999999,-17307.045,6910.245,-61148.295,1.8264852696448994,5.15086040724135,7.339254913588381,8.685533251722639,3.5715108972486376,-0.7411893274489286,0.3257961464271787,-0.5445650195123227,0.146667105,-0.9096046050000001,0.377257335,-18.63246,28.12418,-10.01056,69.0
1774822891.9687061,3.457069396972656e-05,2026-03-29T22:21:31.968,2026-03-29T18:21:31.968,-32512.004999999997,-46045.17,-85542.84,-49910.31,-11891.744999999999,-17310.239999999998,6901.0199999999995,-61155.045,-0.7753009895413361,-1.3855196552716482,-5.245799194639736,-2.683839417735647,-2.4740441946508276,-2.5855413862360193,1.1102133252411315,-2.090739289516551,0.146667105,-0.9096046050000001,0.377257335,-18.63246,28.12418,-10.01056,69.0
1774822891.9737575,0.005051374435424805,2026-03-29T22:21:31.973,2026-03-29T18:21:31.973,-32516.145,-46049.265,-85556.295,-49926.104999999996,-11910.105,-17322.704999999998,6910.92,-61161.255,-3.083781847304091,-7.337869484189451,-15.453011666084333,-12.758916963304294,-7.174497305063679,-3.1351134526552364,1.3218681790504074,-2.7999151049962148,0.146667105,-0.9096046050000001,0.377257335,-18.63246,28.12418,-10.01056,69.0
1774822891.9737835,2.5987625122070312e-05,2026-03-29T22:21:31.973,2026-03-29T18:21:31.973,-32509.17,-46023.795,-85531.905,-49925.564999999995,-11935.664999999999,-17347.14,6916.679999999999,-61156.755,-4.027663458220123,-9.882040945392045,-18.568734679020466,-16.84928801475377,-8.4379850744978,-2.2315286486679784,0.9391197921392636,-2.35873326710611,0.146667105,-0.9096046050000001,0.377257335,-18.63246,28.12418,-10.01056,69.0
1774822891.979784,0.006000518798828125,2026-03-29T22:21:31.979,2026-03-29T18:21:31.979,-32515.065,-46033.74,-85533.61499999999,-49918.634999999995,-11905.92,-17320.41,6917.804999999999,-61158.375,-3.1376125266878785,-7.78298689282967,-13.148594608524201,-13.089787995941228,-5.826193419656241,-0.3880949675494539,0.20154837205361725,-0.9350210778352477,0.12676969500000002,-0.903134895,0.37609767,-24.09554,25.81992,-7.752079999999999,69.0
1774822891.9798007,1.6689300537109375e-05,2026-03-29T22:21:31.979,2026-03-29T18:21:31.979,-32508.989999999998,-46040.22,-85537.845,-49913.505,-11857.005,-17283.87,6900.12,-61153.74,-0.7765318528827218,-1.9911184550313348,-1.6892490950573071,-3.2967483640529416,-0.6945554025160219,1.4898471842012335,-0.5271995678927971,0.8948264050589504,0.12676969500000002,-0.903134895,0.37609767,-24.09554,25.81992,-7.752079999999999,69.0
1774822891.9798222,2.1457672119140625e-05,2026-03-29T22:21:31.979,2026-03-29T18:21:31.979,-32489.28,-46019.43,-85503.51,-49868.189999999995,-11849.355,-17287.245,6887.88,-61156.125,2.0059618768156717,4.791418327198813,10.526282079011473,7.913377042889388,4.5043121688341525,2.545804444978184,-0.9334477113884476,2.387396999176466,0.12676969500000002,-0.903134895,0.37609767,-24.09554,25.81992,-7.752079999999999,69.0
1774822891.9798272,5.0067901611328125e-06,2026-03-29T22:21:31.979,2026-03-29T18:21:31.979,-32493.87,-46010.295,-85488.56999999999,-49858.29,-11850.345,-17290.755,6889.455,-61169.759999999995,3.938205633383736,9.37517753656115,17.873459562188017,15.31277155444888,7.398064422821189,2.3608220986524944,-0.8832947630315235,2.9370757476667895,0.12676969500000002,-0.903134895,0.37609767,-24.09554,25.81992,-7.752079999999999,69.0
1774822891.9845133,0.004686117172241211,2026-03-29T22:21:31.984,2026-03-29T18:21:31.984,-32493.645,-46004.354999999996,-85479.75,-49871.295,-11870.055,-17307.36,6895.98,-61149.375,4.106039989715471,9.585415524234831,16.98602404314641,15.514495566288216,6.784984415094923,1.114499255237501,-0.4574573573292713,2.317902486183721,0.12676969500000002,-0.903134895,0.37609767,-24.09554,25.81992,-7.752079999999999,69.0
1774822891.9845293,1.5974044799804688e-05,2026-03-29T22:21:31.984,2026-03-29T18:21:31.984,-32504.94,-46022.715,-85507.605,-49884.84,-11891.564999999999,-17324.505,6912.719999999999,-61147.935,2.3842038312386404,5.293551200606373,8.305253184297488,8.531552168975901,3.132535575824299,-0.540429786537547,0.11117825448924916,0.7684997185791855,0.12676969500000002,-0.903134895,0.37609767,-24.09554,25.81992,-7.752079999999999,69.0
1774822891.996638,0.012108802795410156,2026-03-29T22:21:31.996,2026-03-29T18:21:31.996,-32512.545,-46042.515,-85540.23,-49915.034999999996,-11905.244999999999,-17322.93,6927.884999999999,-61151.265,-0.4835283972166907,-1.5109071862983416,-4.136747023882277,-2.278190824751908,-1.7220450754597045,-1.8124431118187128,0.5572369850773016,-1.106855725471994,0.12676969500000002,-0.903134895,0.37609767,-24.09554,25.81992,-7.752079999999999,69.0
1774822891.9966617,2.3603439331054688e-05,2026-03-29T22:21:31.996,2026-03-29T18:21:31.996,-32522.265,-46053.045,-85549.77,-49933.935,-11872.484999999999,-17296.92,6923.16,-61153.11,-3.2032218216143464,-7.64617163478534,-14.593962190806277,-11.83191261759697,-5.492042551554968,-2.145756553409245,0.7009135736939489,-2.5758588252865278,0.12676969500000002,-0.903134895,0.37609767,-24.09554,25.81992,-7.752079999999999,69.0
1774822891.9966826,2.09808349609375e-05,2026-03-29T22:21:31.996,2026-03-29T18:21:31.996,-32516.91,-46052.369999999995,-85547.11499999999,-49919.715,-11878.605,-17316.855,6908.3099999999995,-61152.165,-4.513689077744213,-10.229534759780194,-18.26821376437091,-15.721920818317486,-6.522423249898288,-1.459371137496913,0.5146844013104384,-3.059988073161295,0.12676969500000002,-0.903134895,0.37609767,-24.09554,25.81992,-7.752079999999999,69.0
1774822891.99669,7.3909759521484375e-06,2026-03-29T22:21:31.996,2026-03-29T18:21:31.996,-32505.344999999998,-46039.005,-85536.765,-49906.53,-11880.18,-17311.68,6904.035,-61153.424999999996,-3.77171351813031,-8.033976261659717,-13.51969298387716,-12.257782656492202,-4.5187378588045695,-0.14985332088607478,0.1175142639122779,-2.3547890091689974,0.12676969500000002,-0.903134895,0.37609767,-24.09554,25.81992,-7.752079999999999,69.0
1774822891.996699,9.059906005859375e-06,2026-03-29T22:21:31.996,2026-03-29T18:21:31.996,-32514.12,-46041.03,-85534.155,-49898.655,-11866.68,-17291.565,6910.695,-61166.34,-1.268006906201793,-2.070870806150762,-2.604648468498333,-3.200927073308594,-0.6020275290864986,1.126698278648696,-0.29179187663858935,-0.7096052181162715,0.11016817500000001,-0.906552855,0.37866114,-27.25436,21.684459999999998,-3.67766,69.0
1774822891.996706,6.9141387939453125e-06,2026-03-29T22:21:31.996,2026-03-29T18:21:31.996,-32524.829999999998,-46049.22,-85543.37999999999,-49907.205,-11870.234999999999,-17303.085,6916.7699999999995,-61167.96,1.8815710260953196,4.877854654648053,9.393773949913658,7.126441466685611,3.2984791937704165,1.7771691079887906,-0.5274425958526977,1.2603866561027062,0.11016817500000001,-0.906552855,0.37866114,-27.25436,21.684459999999998,-3.67766,69.0
1774822892.0005271,0.003821134567260742,2026-03-29T22:21:32.000,2026-03-29T18:21:32.000,-32507.64,-46021.95,-85507.56,-49901.49,-11884.904999999999,-17328.555,6906.33,-61158.24,4.232197410125167,9.560989598513057,16.935976567328638,13.908141294877922,5.392488779381563,1.54211959352042,-0.49517764637349276,2.798484479627137,0.11016817500000001,-0.906552855,0.37866114,-27.25436,21.684459999999998,-3.67766,69.0
1774822892.0005429,1.5735626220703125e-05,2026-03-29T22:21:32.000,2026-03-29T18:21:32.000,-32506.155,-46029.015,-85520.43,-49925.07,-11919.15,-17337.105,6901.469999999999,-61155.0,4.674068456409577,9.78284964674477,16.591176924405612,14.085778454050779,4.851539370183169,0.5932963649179114,-0.22631461686643012,3.2888077713092945,0.11016817500000001,-0.906552855,0.37866114,-27.25436,21.684459999999998,-3.67766,69.0
1774822892.0050757,0.004532814025878906,2026-03-29T22:21:32.005,2026-03-29T18:21:32.005,-32512.14,-46048.59,-85545.62999999999,-49933.619999999995,-11900.16,-17315.82,6897.33,-61159.634999999995,2.9587556479742068,5.435216118445771,8.606863058257648,7.740244540321616,2.1291074983984966,-0.5750840015562216,0.14267141702766975,2.496607052568405,0.11016817500000001,-0.906552855,0.37866114,-27.25436,21.684459999999998,-3.67766,69.0
1774822892.0050926,1.6927719116210938e-05,2026-03-29T22:21:32.005,2026-03-29T18:21:32.005,-32491.53,-46021.634999999995,-85499.145,-49882.32,-11829.779999999999,-17265.239999999998,6893.46,-61161.119999999995,-0.16280435914277058,-1.4495213108343445,-3.238897490104418,-2.021266409261159,-1.340987227191512,-1.3971603319093955,0.43360841833793734,0.6767843423795835,0.11016817500000001,-0.906552855,0.37866114,-27.25436,21.684459999999998,-3.67766,69.0
1774822892.0082583,0.003165721893310547,2026-03-29T22:21:32.008,2026-03-29T18:21:32.008,-32493.42,-46030.814999999995,-85501.305,-49869.45,-11838.645,-17266.364999999998,6892.605,-61179.884999999995,-3.26677730286602,-7.650317641511134,-13.421598905483712,-10.584242863171728,-3.8859905218071895,-1.5033822150863907,0.5061338557521995,-1.4978312173030703,0.11016817500000001,-0.906552855,0.37866114,-27.25436,21.684459999999998,-3.67766,69.0
1774822892.0082831,2.47955322265625e-05,2026-03-29T22:21:32.008,2026-03-29T18:21:32.008,-32520.735,-46059.659999999996,-85534.65,-49880.835,-11849.355,-17276.805,6897.33,-61211.07,-4.907013971198772,-10.26807150246805,-17.250026711163603,-14.009513698001768,-4.396869627687565,-0.881180140752368,0.32086020959797656,-3.1747975227927423,0.11016817500000001,-0.906552855,0.37866114,-27.25436,21.684459999999998,-3.67766,69.0
1774822892.013687,0.005403757095336914,2026-03-29T22:21:32.013,2026-03-29T18:21:32.013,-32539.23,-46065.33,-85540.31999999999,-49888.755,-11862.945,-17294.309999999998,6905.745,-61180.064999999995,-4.292265273881858,-8.085171934046636,-13.03601608274524,-10.84642549564842,-2.8085755890303186,0.13882420198418724,-0.04012398999104583,-3.649054100080145,0.11016817500000001,-0.906552855,0.37866114,-27.25436,21.684459999999998,-3.67766,69.0
1774822892.013712,2.5033950805664062e-05,2026-03-29T22:21:32.013,2026-03-29T18:21:32.013,-32509.664999999997,-46032.705,-85510.89,-49872.645,-11847.555,-17282.655,6913.125,-61133.085,-1.6713867707464152,-2.1348661584281383,-2.8474898622929303,-2.7419756413517486,-0.05189807690542444,1.0543634343452546,-0.40585898001440984,-2.6577261818234366,0.11016817500000001,-0.906552855,0.37866114,-27.25436,21.684459999999998,-3.67766,69.0
1774822892.016405,0.00269317626953125,2026-03-29T22:21:32.016,2026-03-29T18:21:32.016,-32507.145,-46037.97,-85526.055,-49906.17,-11877.75,-17310.69,6894.045,-61156.395,1.7626669514744808,4.787080168953923,8.49490900926478,6.406264464977737,2.4643504292239724,1.4333535145125158,-0.5915355699296896,-0.5207023402301499,0.10339329,-0.91637949,0.38824363500000003,-25.89622,20.57048,-1.17502,69.0
1774822892.016416,1.0967254638671875e-05,2026-03-29T22:21:32.016,2026-03-29T18:21:32.016,-32520.87,-46041.165,-85516.02,-49895.82,-11858.31,-17299.17,6933.78,-61165.395,4.416077451520187,9.438104174725524,15.695355000980033,12.321182472041656,3.5618461381510245,1.111764921336903,-0.48604383900827625,1.946514945302881,0.10339329,-0.91637949,0.38824363500000003,-25.89622,20.57048,-1.17502,69.0
1774822892.0202744,0.003858327865600586,2026-03-29T22:21:32.020,2026-03-29T18:21:32.020,-32528.655,-46054.979999999996,-85533.795,-49894.965,-11839.77,-17271.045,6955.5599999999995,-61150.32,5.037433671430744,9.652106393682754,15.460217974336139,12.343957868955698,2.8398974635717638,0.25953535936701244,-0.11306950678974574,3.734773671559159,0.10339329,-0.91637949,0.38824363500000003,-25.89622,20.57048,-1.17502,69.0
1774822892.020284,9.5367431640625e-06,2026-03-29T22:21:32.020,2026-03-29T18:21:32.020,-32526.449999999997,-46061.865,-85551.48,-49908.24,-11858.984999999999,-17280.54,6925.995,-61152.03,3.3128882836438667,5.353044541517052,8.014700157494769,6.62650713672891,0.8093690713014283,-0.7093494661212757,0.36622963820097454,4.052012183946055,0.10339329,-0.91637949,0.38824363500000003,-25.89622,20.57048,-1.17502,69.0
1774822892.0246377,0.004353761672973633,2026-03-29T22:21:32.024,2026-03-29T18:21:32.024,-32513.805,-46040.805,-85522.31999999999,-49912.424999999996,-11879.369999999999,-17292.42,6904.215,-61148.88,0.027836410232070112,-1.417434396803347,-3.0438944135612975,-2.0143191653711288,-1.4234397847234468,-1.3352404658754213,0.7177595266997885,2.6771922170851914,0.10339329,-0.91637949,0.38824363500000003,-25.89622,20.57048,-1.17502,69.0
1774822892.0246568,1.9073486328125e-05,2026-03-29T22:21:32.024,2026-03-29T18:21:32.024,-32519.295,-46051.38,-85544.595,-49935.33,-11886.57,-17298.495,6896.34,-61161.39,-3.289536056747592,-7.469055526691552,-12.47363855287105,-9.477488012895606,-2.7401845603279615,-1.3258136650372059,0.7435782419732437,0.09795764827317047,0.10339329,-0.91637949,0.38824363500000003,-25.89622,20.57048,-1.17502,69.0
1774822892.02897,0.004313230514526367,2026-03-29T22:21:32.028,2026-03-29T18:21:32.028,-32525.73,-46062.854999999996,-85552.065,-49938.39,-11878.244999999999,-17291.7,6897.825,-61168.77,-5.081868082581996,-9.969122727517185,-15.871158404734748,-12.319162419559692,-2.5602681936201503,-0.6871245911560989,0.3872027515349396,-2.6489289941930285,0.10339329,-0.91637949,0.38824363500000003,-25.89622,20.57048,-1.17502,69.0
1774822892.0289905,2.0503997802734375e-05,2026-03-29T22:21:32.028,2026-03-29T18:21:32.028,-32527.754999999997,-46059.255,-85533.56999999999,-49926.869999999995,-11874.6,-17293.05,6901.0199999999995,-61173.494999999995,-4.498996062568492,-7.773680339280822,-11.735047952107998,-9.337795543565072,-1.0907704251517247,0.28373203378095224,-0.2188012656335027,-4.39075813126474,0.10339329,-0.91637949,0.38824363500000003,-25.89622,20.57048,-1.17502,69.0
1774822892.0334744,0.004483938217163086,2026-03-29T22:21:32.033,2026-03-29T18:21:32.033,-32523.254999999997,-46052.189999999995,-85515.165,-49909.77,-11872.439999999999,-17292.96,6912.224999999999,-61167.825,-1.8064521581405117,-1.9559082138687494,-2.139570438183185,-2.0755292019138416,0.8278464730227837,1.1374749528384696,-0.7956485862643068,-4.323450134634419,0.10339329,-0.91637949,0.38824363500000003,-25.89622,20.57048,-1.17502,69.0
1774822892.0334988,2.4318695068359375e-05,2026-03-29T22:21:32.033,2026-03-29T18:21:32.033,-32514.21,-46041.345,-85494.915,-49888.53,-11860.92,-17278.515,6901.83,-61175.835,1.7326500329361627,4.714587446736108,8.28858104353925,5.969406370396813,2.180929235945275,1.4780520266403834,-1.0424731613986988,-2.388830263490066,0.10339329,-0.91637949,0.38824363500000003,-25.89622,20.57048,-1.17502,69.0
1774822892.036451,0.0029523372650146484,2026-03-29T22:21:32.036,2026-03-29T18:21:32.036,-32500.89,-46022.939999999995,-85473.94499999999,-49869.9,-11844.81,-17256.555,6881.49,-61204.725,4.451335744020977,9.090641743785623,14.592499332861465,11.020754348773034,2.300138043397875,1.1418707383201379,-0.7888751027657996,0.6551671148639246,0.10546848,-0.9227271300000001,0.396788535,-25.987779999999997,17.65582,2.1669199999999997,69.0
1774822892.0364747,2.3603439331054688e-05,2026-03-29T22:21:32.036,2026-03-29T18:21:32.036,-32506.245,-46029.869999999995,-85484.745,-49876.92,-11854.71,-17269.92,6888.014999999999,-61185.915,5.068490994945228,9.13647323981678,13.842567505184405,10.790659404142193,1.1840181857503767,0.2715819366492948,-0.10028619477308337,3.5252951691092824,0.10546848,-0.9227271300000001,0.396788535,-25.987779999999997,17.65582,2.1669199999999997,69.0
1774822892.0409985,0.004523754119873047,2026-03-29T22:21:32.040,2026-03-29T18:21:32.040,-32530.05,-46049.985,-85496.625,-49884.075,-11863.8,-17294.85,6922.08,-61154.64,3.2982975138903936,4.88053757908869,6.50736644201741,5.510982606055388,-0.5313173874293398,-0.7471122673688848,0.7254295750455986,4.957093448634165,0.10546848,-0.9227271300000001,0.396788535,-25.987779999999997,17.65582,2.1669199999999997,69.0
1774822892.0410292,3.075599670410156e-05,2026-03-29T22:21:32.041,2026-03-29T18:21:32.041,-32531.579999999998,-46055.34,-85515.705,-49908.104999999996,-11877.93,-17304.57,6906.69,-61151.49,-0.013254886516656038,-1.6163023582182845,-3.8079142391879532,-2.23283455305703,-1.9215477107832937,-1.456641529355354,1.28288624359606,4.270408666499499,0.10546848,-0.9227271300000001,0.396788535,-25.987779999999997,17.65582,2.1669199999999997,69.0
1774822892.0448885,0.003859281539916992,2026-03-29T22:21:32.044,2026-03-29T18:21:32.044,-32530.14,-46054.89,-85529.565,-49908.375,-11860.02,-17289.18,6909.929999999999,-61167.78,-3.2919362608787455,-7.255927181951138,-12.119112533662591,-8.76066639243564,-2.256369559601522,-1.5308221004118052,1.2558347325805976,1.699512508017672,0.10546848,-0.9227271300000001,0.396788535,-25.987779999999997,17.65582,2.1669199999999997,69.0
1774822892.0449305,4.1961669921875e-05,2026-03-29T22:21:32.044,2026-03-29T18:21:32.044,-32535.855,-46059.21,-85541.08499999999,-49922.235,-11859.255,-17284.995,6914.25,-61182.314999999995,-4.9866635587407275,-9.382093437968898,-14.465710445091801,-11.039317330118404,-1.3686060004560614,-0.9208782973657457,0.5913855627045456,-1.6755230419666534,0.10546848,-0.9227271300000001,0.396788535,-25.987779999999997,17.65582,2.1669199999999997,69.0
1774822892.0490427,0.00411224365234375,2026-03-29T22:21:32.049,2026-03-29T18:21:32.049,-32531.085,-46051.515,-85530.465,-49920.075,-11860.74,-17286.165,6911.82,-61184.024999999994,-4.308528382596731,-7.036563475940035,-9.80235512189533,-8.085828901376493,0.2711901010281552,0.11965752788485136,-0.4423451274451719,-4.3838610399259155,0.10546848,-0.9227271300000001,0.396788535,-25.987779999999997,17.65582,2.1669199999999997,69.0
1774822892.0490732,3.0517578125e-05,2026-03-29T22:21:32.049,2026-03-29T18:21:32.049,-32533.649999999998,-46058.22,-85528.98,-49913.28,-11868.885,-17278.605,6925.86,-61176.645,-1.602802391899193,-1.3958803093639878,-0.4736597859495319,-1.386043972200565,1.8042498389423962,1.1422437226176454,-1.3590605315364617,-5.213349179863893,0.10546848,-0.9227271300000001,0.396788535,-25.987779999999997,17.65582,2.1669199999999997,69.0
1774822892.055386,0.006312847137451172,2026-03-29T22:21:32.055,2026-03-29T18:21:32.055,-32532.39,-46054.305,-85507.065,-49890.375,-11879.505,-17284.005,6923.07,-61177.905,1.8237723027519024,4.812722290727908,8.948131129300881,5.846998387881716,2.4252098581269617,1.6966532313850502,-1.6818171243805675,-3.7637107769801905,0.10546848,-0.9227271300000001,0.396788535,-25.987779999999997,17.65582,2.1669199999999997,69.0
1774822892.0554187,3.266334533691406e-05,2026-03-29T22:21:32.055,2026-03-29T18:21:32.055,-32529.375,-46050.615,-85499.81999999999,-49888.619999999995,-11848.904999999999,-17274.105,6910.695,-61176.96,4.335157208222389,8.62876075995717,13.893063022543851,10.207217620945496,1.7917713657269425,1.5270337390578597,-1.1897116688365976,-0.6460253953118306,0.10546848,-0.9227271300000001,0.396788535,-25.987779999999997,17.65582,2.1669199999999997,69.0
1774822892.0554512,3.24249267578125e-05,2026-03-29T22:21:32.055,2026-03-29T18:21:32.055,-32522.399999999998,-46043.145,-85500.98999999999,-49893.255,-11843.279999999999,-17279.774999999998,6898.905,-61173.405,4.751097789725032,8.27323446560939,12.007709948886076,9.6926466876434,0.19876895275423098,0.6861597827009998,-0.056755098327008875,2.7736055035778135,0.11047335,-0.925961985,0.400938915,-26.41506,11.46026,5.7988,69.0
1774822892.055462,1.0728836059570312e-05,2026-03-29T22:21:32.055,2026-03-29T18:21:32.055,-32518.98,-46035.854999999996,-85490.81999999999,-49882.32,-11846.609999999999,-17278.38,6906.915,-61172.729999999996,2.9063374736802468,3.983020168772597,4.281271918445773,4.619656553303696,-1.567088088752734,-0.4817665771717751,1.2003532292240517,4.979600158773349,0.11047335,-0.925961985,0.400938915,-26.41506,11.46026,5.7988,69.0
1774822892.0988631,0.043401241302490234,2026-03-29T22:21:32.098,2026-03-29T18:21:32.098,-32523.39,-46044.72,-85503.105,-49887.494999999995,-11853.404999999999,-17296.29,6912.315,-61180.965,-0.2832266273890251,-2.128908217518892,-5.458579738719903,-2.561078288186604,-2.617132275422643,-1.483428190236744,1.9566283107815503,4.990046738838286,0.11047335,-0.925961985,0.400938915,-26.41506,11.46026,5.7988,69.0
