unix_time_s,dt_s,UTC,LOCAL,EMG1_Raw,EMG2_Raw,EMG3_Raw,EMG4_Raw,EMG5_Raw,EMG6_Raw,EMG7_Raw,EMG8_Raw,EMG1_Filtered,EMG2_Filtered,EMG3_Filtered,EMG4_Filtered,EMG5_Filtered,EMG6_Filtered,EMG7_Filtered,EMG8_Filtered,Accel1_Raw,Accel2_Raw,Accel3_Raw,Gyro1_Raw,Gyro2_Raw,Gyro3_Raw,Battery
1774823454.0590496,,2026-03-29T22:30:54.059,2026-03-29T18:30:54.059,-22461.704999999998,-43079.85,-77391.0,-48818.475,-9064.08,-16291.8,7584.21,-62418.06,-0.013225674485859922,-0.1867661930192852,-0.7160793803967199,-0.6324448349590182,-0.3478781239389939,-0.04986243986981963,-1.2970137326222988,0.21578392379297165,0.38745018000000003,-0.881040225,0.37817286,1.35814,14.0392,6.89752,68.0
1774823454.059065,1.5497207641601562e-05,2026-03-29T22:30:54.059,2026-03-29T18:30:54.059,-22459.995,-43078.365,-77396.895,-48820.5,-9067.005,-16295.039999999999,7583.355,-62416.259999999995,5.3245235162475035,2.9419058222154595,0.7168355675566896,1.0165784411857848,0.9264473211340221,2.190251088400206,1.2197420366895995,5.77057640552624,0.38745018000000003,-0.881040225,0.37817286,1.35814,14.0392,6.89752,68.0
1774823454.059085,1.9788742065429688e-05,2026-03-29T22:30:54.059,2026-03-29T18:30:54.059,-22447.395,-43071.795,-77390.19,-48815.28,-9066.42,-16297.109999999999,7582.41,-62403.704999999994,8.255557346160005,4.834236459787954,2.029281944203308,2.5428805755210395,2.1111688448964854,3.708840643815396,3.5314722336960354,8.633498948038142,0.379576665,-0.868833225,0.381041505,-4.3491,13.00152,10.193679999999999,68.0
1774823454.0590892,4.291534423828125e-06,2026-03-29T22:30:54.059,2026-03-29T18:30:54.059,-22444.065,-43071.615,-77387.31,-48812.354999999996,-9066.869999999999,-16302.195,7571.61,-62401.14,7.384533923813614,4.606796306341546,2.65097867690949,3.2742365906404522,2.6816203642658434,3.824986450986952,4.793455662974499,7.450747221414908,0.379576665,-0.868833225,0.381041505,-4.3491,13.00152,10.193679999999999,68.0
1774823454.059095,5.7220458984375e-06,2026-03-29T22:30:54.059,2026-03-29T18:30:54.059,-22469.129999999997,-43060.275,-77358.465,-48779.64,-9036.09,-16275.555,7548.344999999999,-62442.72,3.0790889168580913,2.3079965168071985,2.2136789779981365,2.721818417625244,2.2219748182780883,2.358254217874968,4.390574816857076,2.779312192947458,0.379576665,-0.868833225,0.381041505,-4.3491,13.00152,10.193679999999999,68.0
1774823454.0590985,3.5762786865234375e-06,2026-03-29T22:30:54.059,2026-03-29T18:30:54.059,-22481.19,-43060.635,-77354.64,-48774.24,-9028.035,-16267.545,7542.2699999999995,-62464.005,-2.6788883686163056,-1.0743215498235106,0.7617735146669886,0.8776560985694778,0.688121798036356,-0.23164984240893205,2.212711294242089,-3.1753241242453383,0.379576665,-0.868833225,0.381041505,-4.3491,13.00152,10.193679999999999,68.0
1774823454.0591047,6.198883056640625e-06,2026-03-29T22:30:54.059,2026-03-29T18:30:54.059,-22484.7,-43086.24,-77391.18,-48811.5,-9062.55,-16298.865,7536.42,-62456.805,-7.207897215763261,-4.034630766256428,-1.1911826792208429,-1.6537222666984792,-1.448284279325759,-2.955161829918602,-1.1755141751078795,-7.6070625453916545,0.379576665,-0.868833225,0.381041505,-4.3491,13.00152,10.193679999999999,68.0
1774823454.0591087,4.0531158447265625e-06,2026-03-29T22:30:54.059,2026-03-29T18:30:54.059,-22479.57,-43094.385,-77404.545,-48828.15,-9077.13,-16311.24,7588.844999999999,-62438.354999999996,-8.384348841323192,-5.222548472899872,-2.8243842020065477,-3.8134164473927488,-3.301677433842328,-4.650651089788444,-4.596061202509721,-8.441524776572907,0.379576665,-0.868833225,0.381041505,-4.3491,13.00152,10.193679999999999,68.0
1774823454.0591133,4.5299530029296875e-06,2026-03-29T22:30:54.059,2026-03-29T18:30:54.059,-22468.094999999998,-43086.015,-77397.03,-48821.939999999995,-9070.02,-16305.84,7631.91,-62419.77,-5.649524582218739,-4.065195601911287,-3.3522879190659056,-4.523395873104691,-3.931035284370897,-4.472900158442138,-6.612483518548191,-5.315691295062951,0.379576665,-0.868833225,0.381041505,-4.3491,13.00152,10.193679999999999,68.0
1774823454.0591164,3.0994415283203125e-06,2026-03-29T22:30:54.059,2026-03-29T18:30:54.059,-22464.809999999998,-43076.7,-77389.92,-48822.975,-9065.52,-16297.425,7605.134999999999,-62425.395,-0.2837595657074205,-1.0495883142835989,-2.4066459468187964,-3.2248530859026934,-2.815146419630692,-2.311028329190957,-6.10774902637154,0.261544515198281,0.379576665,-0.868833225,0.381041505,-4.3491,13.00152,10.193679999999999,68.0
1774823454.059121,4.5299530029296875e-06,2026-03-29T22:30:54.059,2026-03-29T18:30:54.059,-22457.745,-43070.895,-77384.52,-48821.939999999995,-9062.145,-16283.34,7606.304999999999,-62420.715,5.190218442996382,2.476607016553705,-0.27060006802640935,-0.2507906044345276,-0.2056182366043378,1.0694025773015772,-2.8670226503541545,5.639852550828059,0.379576665,-0.868833225,0.381041505,-4.3491,13.00152,10.193679999999999,68.0
1774823454.0591245,3.5762786865234375e-06,2026-03-29T22:30:54.059,2026-03-29T18:30:54.059,-22461.254999999997,-43081.064999999995,-77395.77,-48824.28,-9067.095,-16286.894999999999,7602.165,-62420.759999999995,8.197884988844171,4.907756972860498,2.1763598612131068,3.196621403346374,2.8608261257204086,4.2691286395005825,2.126212115058016,8.293970928035256,0.379576665,-0.868833225,0.381041505,-4.3491,13.00152,10.193679999999999,68.0
1774823454.0591292,4.76837158203125e-06,2026-03-29T22:30:54.059,2026-03-29T18:30:54.059,-22459.364999999998,-43082.595,-77397.39,-48822.03,-9067.815,-16294.005,7594.0199999999995,-62416.979999999996,7.333581398001238,5.117006122109176,3.815126876382838,5.518936917791749,4.960006990497751,5.824208084063152,6.9049488370324,7.017647792493666,0.37390041,-0.86315697,0.3869619,-9.5375,12.71158,13.0473,68.0
1774823454.0591323,3.0994415283203125e-06,2026-03-29T22:30:54.059,2026-03-29T18:30:54.059,-22458.015,-43078.005,-77388.03,-48808.845,-9058.455,-16288.875,7592.849999999999,-62417.07,3.0283299239360244,2.9866878686969582,3.804183794693114,5.466597164573697,4.9440647581064985,4.875968056064785,9.258409657647615,2.476920926780163,0.37390041,-0.86315697,0.3869619,-9.5375,12.71158,13.0473,68.0
1774823454.0591369,4.5299530029296875e-06,2026-03-29T22:30:54.059,2026-03-29T18:30:54.059,-22461.57,-43073.189999999995,-77377.77,-48795.345,-9043.065,-16275.195,7596.585,-62425.619999999995,-2.6570312763163484,-0.5207815687949958,2.016003259702021,2.807333869222349,2.5609793515375143,1.6353446574670265,7.739793600552131,-3.132976065428,0.37390041,-0.86315697,0.3869619,-9.5375,12.71158,13.0473,68.0
1774823454.0591404,3.5762786865234375e-06,2026-03-29T22:30:54.059,2026-03-29T18:30:54.059,-22461.344999999998,-43076.97,-77385.465,-48803.22,-9048.33,-16279.47,7592.804999999999,-62427.015,-7.017168568813663,-3.795129518704741,-0.8352137826072075,-1.438105738786426,-1.301514139251878,-2.6059264803614575,2.4898039024215692,-7.151527707378578,0.37390041,-0.86315697,0.3869619,-9.5375,12.71158,13.0473,68.0
1774823454.0591445,4.0531158447265625e-06,2026-03-29T22:30:54.059,2026-03-29T18:30:54.059,-22464.36,-43081.02,-77391.45,-48821.715,-9068.039999999999,-16297.38,7579.799999999999,-62427.329999999994,-7.995245826634548,-5.320885023482363,-3.469367463852491,-5.366829192042453,-4.923811977332568,-5.975150679865122,-4.572255697800388,-7.72047851651316,0.37390041,-0.86315697,0.3869619,-9.5375,12.71158,13.0473,68.0
1774823454.059148,3.5762786865234375e-06,2026-03-29T22:30:54.059,2026-03-29T18:30:54.059,-22476.329999999998,-43089.39,-77397.12,-48832.38,-9079.83,-16306.83,7568.549999999999,-62432.505,-5.163122859880947,-4.386575739971691,-4.61916300281738,-7.04957980024237,-6.521731915830536,-6.845090251756301,-10.397031873981339,-4.648491091319446,0.37390041,-0.86315697,0.3869619,-9.5375,12.71158,13.0473,68.0
1774823454.061686,0.002537965774536133,2026-03-29T22:30:54.061,2026-03-29T18:30:54.061,-22464.899999999998,-43071.255,-77380.73999999999,-48815.595,-9065.835,-16295.894999999999,7554.375,-62431.695,0.08255579958407078,-1.4251537296480086,-3.648455687569193,-5.485479696127143,-5.13020731183156,-4.622753234706534,-12.107656104976108,0.5314980459973409,0.37390041,-0.86315697,0.3869619,-9.5375,12.71158,13.0473,68.0
1774823454.0617087,2.2649765014648438e-05,2026-03-29T22:30:54.061,2026-03-29T18:30:54.061,-22453.379999999997,-43064.64,-77375.565,-48800.79,-9050.805,-16285.23,7562.205,-62425.799999999996,5.202153383991696,2.1810381773690586,-0.9048467614078,-1.1799682074221207,-1.163328362272027,-0.11673083452250008,-8.40803876347422,5.324614815286539,0.37390041,-0.86315697,0.3869619,-9.5375,12.71158,13.0473,68.0
1774823454.0658395,0.004130840301513672,2026-03-29T22:30:54.065,2026-03-29T18:30:54.065,-22464.989999999998,-43080.57,-77390.415,-48808.979999999996,-9058.23,-16291.305,7567.2,-62435.655,7.7424094316949965,4.745578784725473,2.388618440990633,3.98106945496152,3.6660847848650318,4.732844133698644,-0.4120817496215883,7.477454763768599,0.37390041,-0.86315697,0.3869619,-9.5375,12.71158,13.0473,68.0
1774823454.0658572,1.7642974853515625e-05,2026-03-29T22:30:54.065,2026-03-29T18:30:54.065,-22466.25,-43080.975,-77390.415,-48811.5,-9059.58,-16292.609999999999,7574.219999999999,-62438.579999999994,6.518091028484338,5.072312612724043,4.679870070069723,7.556846745614371,7.08475732370872,7.686836245070581,8.596322468275384,6.041045668122131,0.37390041,-0.86315697,0.3869619,-9.5375,12.71158,13.0473,68.0
1774823454.0749571,0.009099960327148438,2026-03-29T22:30:54.074,2026-03-29T18:30:54.074,-22450.5,-43063.02,-77375.52,-48802.77,-9047.475,-16279.019999999999,7594.11,-62426.07,2.1740864549166234,3.022007242633464,4.827884102088339,7.716104630464046,7.3377922889027145,7.24666012820796,14.490840529204323,1.7905451421203633,0.36828519,-0.8671852800000001,0.39758199,-11.03298,16.61814,16.74022,68.0
1774823454.0750191,6.198883056640625e-05,2026-03-29T22:30:54.075,2026-03-29T18:30:54.075,-22440.825,-43053.119999999995,-77361.75,-48799.125,-9043.695,-16275.96,7589.025,-62418.645,-3.142530147133359,-0.4210533094458418,2.6796792260317863,4.180195149952826,4.09184897887296,3.41546650218088,14.193874503608342,-3.1840631964718473,0.36828519,-0.8671852800000001,0.39758199,-11.03298,16.61814,16.74022,68.0
1774823454.075058,3.886222839355469e-05,2026-03-29T22:30:54.075,2026-03-29T18:30:54.075,-22449.6,-43062.479999999996,-77375.06999999999,-48812.354999999996,-9057.42,-16293.375,7567.695,-62429.939999999995,-6.837764423500319,-3.6178900694383387,-0.8110824412320321,-1.5431043207973962,-1.3034211806193656,-2.206353848922894,7.264195967566115,-6.502951591090432,0.36828519,-0.8671852800000001,0.39758199,-11.03298,16.61814,16.74022,68.0
1774823454.0750768,1.8835067749023438e-05,2026-03-29T22:30:54.075,2026-03-29T18:30:54.075,-22473.719999999998,-43089.885,-77406.39,-48837.195,-9081.0,-16315.019999999999,7551.36,-62446.59,-7.136663764413467,-5.0572528699838415,-4.005233372034642,-6.79723895206095,-6.370448079052268,-7.083090742412489,-3.6316869502232083,-6.635090714982969,0.36828519,-0.8671852800000001,0.39758199,-11.03298,16.61814,16.74022,68.0
1774823454.0775197,0.0024428367614746094,2026-03-29T22:30:54.077,2026-03-29T18:30:54.077,-22468.364999999998,-43087.68,-77400.72,-48828.869999999995,-9069.615,-16297.019999999999,7591.86,-62432.82,-3.94166347747988,-4.076974158760362,-5.354245276119392,-9.019418952355489,-8.650592220218428,-8.893144615045033,-13.708657710875237,-3.6056470911956215,0.36828519,-0.8671852800000001,0.39758199,-11.03298,16.61814,16.74022,68.0
1774823454.077532,1.239776611328125e-05,2026-03-29T22:30:54.077,2026-03-29T18:30:54.077,-22455.945,-43077.15,-77389.69499999999,-48825.494999999995,-9069.029999999999,-16294.5,7606.44,-62417.475,1.1343399077885394,-1.1767176751346866,-4.160905055012118,-7.0023518492375025,-6.90744441011712,-6.642201877136979,-18.168290279721276,1.054830292599858,0.36828519,-0.8671852800000001,0.39758199,-11.03298,16.61814,16.74022,68.0
1774823454.0814648,0.0039327144622802734,2026-03-29T22:30:54.081,2026-03-29T18:30:54.081,-22447.844999999998,-43076.43,-77393.61,-48828.915,-9072.404999999999,-16298.01,7611.48,-62403.795,5.572813979332085,2.229343876948071,-0.9465282784215877,-1.5485853599848745,-1.792710982216886,-1.2025156747593422,-14.493054418358767,5.077480391586028,0.36828519,-0.8671852800000001,0.39758199,-11.03298,16.61814,16.74022,68.0
1774823454.081486,2.1219253540039062e-05,2026-03-29T22:30:54.081,2026-03-29T18:30:54.081,-22454.82,-43077.689999999995,-77391.855,-48823.47,-9065.925,-16295.175,7596.405,-62418.015,7.194017797762621,4.500265364158151,2.7710773742396126,4.836336546926513,4.382258159438198,5.011663494160238,-3.827656809709869,6.555997148545519,0.36828519,-0.8671852800000001,0.39758199,-11.03298,16.61814,16.74022,68.0
1774823454.0855637,0.0040776729583740234,2026-03-29T22:30:54.085,2026-03-29T18:30:54.085,-22448.52,-43068.195,-77379.75,-48813.57,-9058.859999999999,-16293.555,7585.469999999999,-62418.689999999995,5.227746703267884,4.562471561805587,5.197317669569498,9.102040915736778,8.698582211086213,9.119797293844586,9.297171750888356,4.848447170351761,0.36828519,-0.8671852800000001,0.39758199,-11.03298,16.61814,16.74022,68.0
1774823454.085584,2.0265579223632812e-05,2026-03-29T22:30:54.085,2026-03-29T18:30:54.085,-22471.605,-43073.865,-77376.69,-48811.32,-9057.15,-16292.564999999999,7595.865,-62448.795,0.6839209912005454,2.4240997571486793,5.135355358225165,9.123981469691095,9.022934642005724,9.12064067538278,18.88901671091071,0.8542568584762311,0.36828519,-0.8671852800000001,0.39758199,-11.03298,16.61814,16.74022,68.0
1774823454.0898716,0.0042877197265625,2026-03-29T22:30:54.089,2026-03-29T18:30:54.089,-22475.25,-43078.86,-77383.215,-48818.52,-9061.965,-16299.314999999999,7597.035,-62448.615,-4.157402963464897,-0.8400726295766849,2.5855312654721114,4.77117555384558,5.070254668483436,4.874102302647973,20.250441473549937,-3.451794876994403,0.363707565,-0.87072531,0.40954485,-8.83554,20.05164,18.861359999999998,68.0
1774823454.0898993,2.765655517578125e-05,2026-03-29T22:30:54.089,2026-03-29T18:30:54.089,-22474.665,-43086.869999999995,-77392.845,-48826.53,-9069.48,-16310.07,7575.255,-62444.97,-6.882176383011889,-3.623500040230914,-1.2342956009970736,-1.9699128907480956,-1.3972866128853545,-1.7657510922447845,12.290184745314482,-5.989660483191037,0.363707565,-0.87072531,0.40954485,-8.83554,20.05164,18.861359999999998,68.0
1774823454.0942543,0.004354953765869141,2026-03-29T22:30:54.094,2026-03-29T18:30:54.094,-22461.704999999998,-43078.994999999995,-77385.23999999999,-48821.85,-9066.33,-16302.465,7575.48,-62435.43,-6.141177301984031,-4.578160966963071,-4.469767670703826,-7.905812519324389,-7.360866675277519,-7.76186525677847,-1.7541008655782246,-5.573885097810754,0.363707565,-0.87072531,0.40954485,-8.83554,20.05164,18.861359999999998,68.0
1774823454.094294,3.981590270996094e-05,2026-03-29T22:30:54.094,2026-03-29T18:30:54.094,-22457.79,-43076.34,-77388.84,-48827.79,-9070.065,-16299.99,7576.74,-62432.28,-2.317575540044666,-3.2712069908221357,-5.535153647181257,-10.161558577080818,-9.967999928216985,-10.29398382014153,-15.621413929970204,-2.4646591498751684,0.363707565,-0.87072531,0.40954485,-8.83554,20.05164,18.861359999999998,68.0
1774823454.097799,0.0035049915313720703,2026-03-29T22:30:54.097,2026-03-29T18:30:54.097,-22459.86,-43076.655,-77388.345,-48826.665,-9068.31,-16299.585,7560.045,-62437.185,2.6672078472040073,-0.38610339716783676,-3.8982810913250336,-7.5863710910112,-7.9103982573598595,-8.096711812319201,-22.842239304867093,1.7846318833059234,0.363707565,-0.87072531,0.40954485,-8.83554,20.05164,18.861359999999998,68.0
1774823454.0978153,1.621246337890625e-05,2026-03-29T22:30:54.097,2026-03-29T18:30:54.097,-22461.03,-43075.26,-77386.185,-48828.15,-9071.145,-16305.48,7546.23,-62441.1,6.312508738814259,2.627604363596578,-0.3532966196534728,-1.3459593022227807,-2.084653027905618,-2.0953919747805245,-19.78635126239469,5.097267153650238,0.363707565,-0.87072531,0.40954485,-8.83554,20.05164,18.861359999999998,68.0
1774823454.102049,0.004233837127685547,2026-03-29T22:30:54.102,2026-03-29T18:30:54.102,-22461.165,-43076.115,-77386.095,-48828.15,-9069.93,-16305.119999999999,7539.255,-62444.024999999994,6.785855595892006,4.278924126014644,3.3611259587598,5.605595962464465,4.799930090665246,4.981524224224238,-7.4936432125984815,5.881140168698628,0.363707565,-0.87072531,0.40954485,-8.83554,20.05164,18.861359999999998,68.0
1774823454.1020634,1.430511474609375e-05,2026-03-29T22:30:54.102,2026-03-29T18:30:54.102,-22463.415,-43075.53,-77377.59,-48812.67,-9051.795,-16285.05,7548.615,-62447.715,3.838754797102825,3.7731821800997776,5.415686782759251,9.934854018316946,9.494116864628388,9.852528438131166,8.639072339578101,3.7883460978472363,0.363707565,-0.87072531,0.40954485,-8.83554,20.05164,18.861359999999998,68.0
1774823454.1079676,0.005904197692871094,2026-03-29T22:30:54.107,2026-03-29T18:30:54.107,-22457.879999999997,-43064.505,-77359.86,-48794.22,-9035.1,-16263.494999999999,7585.83,-62446.229999999996,-1.0652788748388502,1.3972983706166784,4.796077791365157,9.541605548255713,9.75799799109012,10.21819515364618,21.24786115665148,-0.13355792620999732,0.363707565,-0.87072531,0.40954485,-8.83554,20.05164,18.861359999999998,68.0
1774823454.1079805,1.2874603271484375e-05,2026-03-29T22:30:54.107,2026-03-29T18:30:54.107,-22456.665,-43070.31,-77373.675,-48807.9,-9046.35,-16272.494999999999,7643.61,-62435.43,-5.475785615674382,-1.6357314020917553,1.8096338496720794,4.588114521612165,5.440410550821845,5.856684005070371,24.400587998366113,-3.962635076001287,0.363707565,-0.87072531,0.40954485,-8.83554,20.05164,18.861359999999998,68.0
1774823454.1094809,0.0015003681182861328,2026-03-29T22:30:54.109,2026-03-29T18:30:54.109,-22470.254999999997,-43090.695,-77401.08,-48829.77,-9065.699999999999,-16293.914999999999,7622.1449999999995,-62441.145,-7.174854225138066,-3.801310549581534,-2.0625078898398668,-2.564248290405873,-1.4367675639223176,-1.247207082859282,16.41843339296423,-5.837980064076624,0.36096099,-0.877011915,0.422545305,-1.0834599999999999,24.35496,22.64584,68.0
1774823454.1094923,1.1444091796875e-05,2026-03-29T22:30:54.109,2026-03-29T18:30:54.109,-22474.89,-43093.935,-77405.04,-48837.6,-9075.869999999999,-16306.244999999999,7571.07,-62449.92,-5.285626546985623,-4.026894031900179,-4.898225270209571,-8.488335121307648,-7.635665549055736,-7.812636956634445,0.7633503385384733,-4.856730678136351,0.36096099,-0.877011915,0.422545305,-1.0834599999999999,24.35496,22.64584,68.0
1774823454.116376,0.0068836212158203125,2026-03-29T22:30:54.116,2026-03-29T18:30:54.116,-22470.795,-43086.825,-77398.33499999999,-48836.115,-9077.58,-16311.689999999999,7502.94,-62455.274999999994,-0.7178277943238152,-2.2228563947349413,-5.289769103539849,-10.346742945244563,-10.24289567895179,-10.791700504978825,-15.475968779867975,-1.5032942192049996,0.36096099,-0.877011915,0.422545305,-1.0834599999999999,24.35496,22.64584,68.0
1774823454.1163924,1.6450881958007812e-05,2026-03-29T22:30:54.116,2026-03-29T18:30:54.116,-22456.44,-43069.994999999995,-77379.25499999999,-48816.405,-9063.539999999999,-16305.255,7453.125,-62452.17,4.273885945110802,0.6824769071170594,-3.0457820992863587,-7.263296616540982,-8.052855575949653,-8.797616472316491,-24.831889660669066,2.5910063894468367,0.36096099,-0.877011915,0.422545305,-1.0834599999999999,24.35496,22.64584,68.0
1774823454.1221216,0.005729198455810547,2026-03-29T22:30:54.122,2026-03-29T18:30:54.122,-22448.879999999997,-43063.515,-77374.53,-48809.7,-9055.98,-16296.885,7492.905,-62445.689999999995,7.20297670187609,3.2171106516130004,0.7116183211602373,-0.7415893397981246,-2.130291185297945,-2.7564891603217068,-22.933499435969285,5.4381944286831665,0.36096099,-0.877011915,0.422545305,-1.0834599999999999,24.35496,22.64584,68.0
1774823454.1221316,1.0013580322265625e-05,2026-03-29T22:30:54.122,2026-03-29T18:30:54.122,-22445.37,-43058.159999999996,-77370.03,-48796.604999999996,-9038.609999999999,-16275.96,7547.804999999999,-62443.439999999995,6.585626990287624,4.107763329578291,4.105196656050444,6.071910770588477,4.712873742796902,4.526736611334687,-10.572748171086987,5.652369851962255,0.36096099,-0.877011915,0.422545305,-1.0834599999999999,24.35496,22.64584,68.0
1774823454.1221414,9.775161743164062e-06,2026-03-29T22:30:54.122,2026-03-29T18:30:54.122,-22463.91,-43087.049999999996,-77398.56,-48813.615,-9052.74,-16281.449999999999,7633.035,-62435.52,2.684904745868949,2.9168244485485535,5.439163846720569,9.917127198215999,9.266847758026032,9.6829051412179,6.627072474168536,3.1171833762388235,0.36096099,-0.877011915,0.422545305,-1.0834599999999999,24.35496,22.64584,68.0
1774823454.1221457,4.291534423828125e-06,2026-03-29T22:30:54.122,2026-03-29T18:30:54.122,-22478.895,-43110.945,-77418.45,-48836.52,-9077.895,-16299.539999999999,7666.29,-62432.549999999996,-2.6064124148359933,0.2558585358627849,4.046639361548703,8.99327389854376,9.445226764406465,10.351904402289593,20.801361588767005,-0.9566402585420442,0.36096099,-0.877011915,0.422545305,-1.0834599999999999,24.35496,22.64584,68.0
1774823454.1280065,0.005860805511474609,2026-03-29T22:30:54.128,2026-03-29T18:30:54.128,-22454.82,-43076.79,-77379.39,-48817.53,-9062.595,-16280.73,7674.344999999999,-62416.305,-6.689936307134407,-2.528109574454401,0.6240924841410436,3.810218321738176,5.249742781150049,6.2728628027238305,25.484834720800276,-4.610351513259707,0.36096099,-0.877011915,0.422545305,-1.0834599999999999,24.35496,22.64584,68.0
1774823454.128022,1.5497207641601562e-05,2026-03-29T22:30:54.128,2026-03-29T18:30:54.128,-22452.57,-43065.314999999995,-77366.565,-48810.825,-9057.69,-16278.48,7647.4349999999995,-62421.795,-7.539114890276472,-4.032679599922318,-3.11537964574191,-3.0880486226855637,-1.271857486053154,-0.6171072292280546,18.59649927318661,-6.075686844296839,0.36096099,-0.877011915,0.422545305,-1.0834599999999999,24.35496,22.64584,68.0
1774823454.137126,0.009104013442993164,2026-03-29T22:30:54.137,2026-03-29T18:30:54.137,-22465.89,-43082.055,-77388.885,-48830.985,-9077.22,-16300.349999999999,7610.985,-62432.235,-4.700952027652015,-3.5035589165925405,-5.297620120395393,-8.379602341598424,-7.0348179495665,-7.111337021413101,3.373972766599492,-4.624564749014804,0.35790924,-0.896909325,0.43408092,11.10928,31.06936,22.813699999999997,68.0
1774823454.137153,2.6941299438476562e-05,2026-03-29T22:30:54.137,2026-03-29T18:30:54.137,-22463.82,-43083.72,-77392.665,-48828.825,-9075.69,-16302.375,7607.205,-62431.829999999994,0.4721464850325479,-1.209332306045184,-4.82475674755374,-9.576464160713602,-9.391732510232327,-10.24029378031742,-13.166762191229603,-0.9239968171564097,0.35790924,-0.896909325,0.43408092,11.10928,31.06936,22.813699999999997,68.0
1774823454.1371775,2.4557113647460938e-05,2026-03-29T22:30:54.137,2026-03-29T18:30:54.137,-22459.725,-43077.33,-77383.44,-48813.615,-9059.58,-16288.244999999999,7602.21,-62430.165,5.475976850259042,1.6976061027651277,-1.9258450017945599,-6.204199990525399,-7.360475659225607,-8.641888323996776,-23.5046592540093,3.274405936469327,0.35790924,-0.896909325,0.43408092,11.10928,31.06936,22.813699999999997,68.0
1774823454.1371884,1.0967254638671875e-05,2026-03-29T22:30:54.137,2026-03-29T18:30:54.137,-22449.375,-43063.38,-77362.69499999999,-48792.825,-9041.355,-16269.3,7586.28,-62423.189999999995,7.873955476635568,3.7609750082733555,1.9548627519904453,0.014739170192476574,-2.0306046944812137,-3.1571341635335766,-23.074223148381208,5.964399643210635,0.35790924,-0.896909325,0.43408092,11.10928,31.06936,22.813699999999997,68.0
1774823454.1372008,1.239776611328125e-05,2026-03-29T22:30:54.137,2026-03-29T18:30:54.137,-22440.015,-43054.515,-77352.97499999999,-48789.54,-9042.48,-16270.965,7584.75,-62413.424999999996,6.485330351107091,3.9489398339180393,4.8770197006163265,6.042040117798652,4.018235432559066,3.610625931170982,-12.30215721739046,5.841081296341269,0.35790924,-0.896909325,0.43408092,11.10928,31.06936,22.813699999999997,68.0
1774823454.13721,9.059906005859375e-06,2026-03-29T22:30:54.137,2026-03-29T18:30:54.137,-22449.645,-43069.5,-77369.895,-48800.744999999995,-9055.215,-16289.82,7587.2699999999995,-62418.375,1.961543782569507,2.1667834866615308,5.372371003726824,9.01750064835454,7.976585003970393,8.542581528971937,3.6977259289444113,2.928380497495659,0.35790924,-0.896909325,0.43408092,11.10928,31.06936,22.813699999999997,68.0
1774823454.1417768,0.00456690788269043,2026-03-29T22:30:54.141,2026-03-29T18:30:54.141,-22466.43,-43091.325,-77388.12,-48812.58,-9070.92,-16307.505,7590.87,-62424.854999999996,-3.5290320277957883,-0.6997207492662516,3.1792712351359977,7.626776020666623,8.12310354063059,9.455087492685738,17.5778795120342,-1.4217717336051494,0.35790924,-0.896909325,0.43408092,11.10928,31.06936,22.813699999999997,68.0
1774823454.141808,3.123283386230469e-05,2026-03-29T22:30:54.141,2026-03-29T18:30:54.141,-22460.76,-43084.35,-77387.625,-48816.09,-9067.545,-16299.359999999999,7573.86,-62421.479999999996,-7.351510672429001,-3.228278623377927,-0.6229104507760413,2.68386458513241,4.575881962597274,6.073113063280479,23.169585221833728,-5.161138206361025,0.35790924,-0.896909325,0.43408092,11.10928,31.06936,22.813699999999997,68.0
1774823454.1459012,0.004093170166015625,2026-03-29T22:30:54.145,2026-03-29T18:30:54.145,-22455.719999999998,-43073.955,-77381.145,-48825.405,-9070.244999999999,-16294.185,7561.215,-62423.055,-7.676482952465855,-4.1672802867209295,-4.147113191534727,-3.3306557370129823,-0.8519316297888425,0.0894634230532527,18.252019168416982,-6.5110324199090535,0.35790924,-0.896909325,0.43408092,11.10928,31.06936,22.813699999999997,68.0
1774823454.1459389,3.7670135498046875e-05,2026-03-29T22:30:54.145,2026-03-29T18:30:54.145,-22460.265,-43075.485,-77383.395,-48828.375,-9081.404999999999,-16315.289999999999,7568.054999999999,-62430.119999999995,-4.356034162394482,-3.0538042129947605,-5.6349939219039715,-7.519074038379768,-5.5814775381973885,-5.68571868470176,5.422435973289926,-4.806264724032558,0.35790924,-0.896909325,0.43408092,11.10928,31.06936,22.813699999999997,68.0
1774823454.1551807,0.009241819381713867,2026-03-29T22:30:54.155,2026-03-29T18:30:54.155,-22455.495,-43076.34,-77388.66,-48831.75,-9083.88,-16322.939999999999,7584.255,-62424.63,1.016269940115222,-0.437724784959989,-4.331446624759667,-7.97209533682825,-7.505018646598653,-8.656405391573923,-9.265940403959675,-0.8173476068401114,0.342711525,-0.8844581850000001,0.435118515,20.40262,29.863819999999997,21.45556,68.0
1774823454.1552,1.9311904907226562e-05,2026-03-29T22:30:54.155,2026-03-29T18:30:54.155,-22435.829999999998,-43077.465,-77399.64,-48840.075,-9083.205,-16309.89,7592.04,-62394.795,5.882137751561574,2.394907253931456,-0.8631070955739235,-4.644259437827268,-5.931865947594707,-7.616919106020672,-19.186807567056405,3.603315111438224,0.342711525,-0.8844581850000001,0.435118515,20.40262,29.863819999999997,21.45556,68.0
1774823454.155218,1.7881393432617188e-05,2026-03-29T22:30:54.155,2026-03-29T18:30:54.155,-22422.69,-43077.555,-77399.37,-48832.965,-9069.525,-16282.845,7584.03,-62377.47,7.948449201116143,4.057971769273786,3.067129735316883,0.7045141513399843,-1.815934706837049,-3.2357686601873477,-20.15905187070155,6.386626773501964,0.342711525,-0.8844581850000001,0.435118515,20.40262,29.863819999999997,21.45556,68.0
1774823454.1552253,7.3909759521484375e-06,2026-03-29T22:30:54.155,2026-03-29T18:30:54.155,-22431.105,-43079.174999999996,-77388.61499999999,-48821.265,-9066.51,-16284.914999999999,7595.009999999999,-62380.979999999996,6.273883015711504,3.7445326670158954,5.518734715591919,5.435212144267086,2.797132685543321,2.343849043291497,-12.21262123672534,6.217237100047045,0.342711525,-0.8844581850000001,0.435118515,20.40262,29.863819999999997,21.45556,68.0
1774823454.1579373,0.0027120113372802734,2026-03-29T22:30:54.157,2026-03-29T18:30:54.157,-22467.51,-43079.49,-77369.67,-48797.955,-9050.895,-16278.164999999999,7605.945,-62421.84,1.6945558525248767,1.6158901391333151,5.27101392272218,7.337944768706305,5.791895193667814,6.558130028850073,0.6442886044891522,3.153048355934676,0.342711525,-0.8844581850000001,0.435118515,20.40262,29.863819999999997,21.45556,68.0
1774823454.1579487,1.1444091796875e-05,2026-03-29T22:30:54.157,2026-03-29T18:30:54.157,-22472.864999999998,-43069.229999999996,-77358.23999999999,-48785.174999999996,-9033.39,-16261.92,7605.9,-62433.494999999995,-3.60233834288123,-1.2860745661416848,2.4270115707100217,5.67065807218157,5.961294223367857,7.610369928099924,12.446635890399019,-1.3974412785803108,0.342711525,-0.8844581850000001,0.435118515,20.40262,29.863819999999997,21.45556,68.0
1774823454.1640935,0.00614476203918457,2026-03-29T22:30:54.164,2026-03-29T18:30:54.164,-22472.82,-43081.2,-77385.23999999999,-48803.445,-9042.21,-16268.31,7597.62,-62433.09,-7.13615062913614,-3.5539963896858517,-1.6334785725618275,1.4371495968321817,3.4852003653584056,5.2377620592566085,18.06230260563651,-5.329388452802126,0.342711525,-0.8844581850000001,0.435118515,20.40262,29.863819999999997,21.45556,68.0
1774823454.1641212,2.765655517578125e-05,2026-03-29T22:30:54.164,2026-03-29T18:30:54.164,-22476.105,-43083.99,-77382.675,-48798.405,-9038.25,-16265.564999999999,7596.945,-62439.299999999996,-7.304640869844213,-4.100695936979113,-4.928188431508278,-3.192903767942947,-0.27560814798534095,0.7300172339617338,15.435589278463135,-6.820730622125446,0.342711525,-0.8844581850000001,0.435118515,20.40262,29.863819999999997,21.45556,68.0
1774823454.1655753,0.0014541149139404297,2026-03-29T22:30:54.165,2026-03-29T18:30:54.165,-22465.53,-43073.865,-77361.84,-48795.165,-9045.765,-16274.97,7595.775,-62430.119999999995,-4.111955736588523,-2.680005791819486,-5.842245399741993,-5.995555079763783,-3.5154421334404398,-3.7607030251615305,6.299273292693702,-5.178265461112434,0.342711525,-0.8844581850000001,0.435118515,20.40262,29.863819999999997,21.45556,68.0
1774823454.1655886,1.33514404296875e-05,2026-03-29T22:30:54.165,2026-03-29T18:30:54.165,-22460.67,-43070.13,-77359.95,-48803.715,-9057.06,-16283.564999999999,7587.99,-62425.395,0.878633658011949,0.006524968309911087,-3.9180263289517057,-5.76622228943092,-4.856094052201191,-6.25340732948514,-4.8663744982913215,-1.1568350031954964,0.342711525,-0.8844581850000001,0.435118515,20.40262,29.863819999999997,21.45556,68.0
1774823454.1697817,0.00419306755065918,2026-03-29T22:30:54.169,2026-03-29T18:30:54.169,-22460.67,-43072.064999999995,-77361.12,-48801.869999999995,-9056.565,-16282.439999999999,7585.2,-62425.979999999996,5.320751805637904,2.6610156201459096,-0.07924408927617944,-2.834519563980981,-3.9318127293994936,-5.816358519889156,-13.033044015250503,3.394279657785941,0.328307265,-0.84533475,0.43279918500000003,-0.03052,24.507559999999998,22.52376,68.0
1774823454.1698003,1.8596649169921875e-05,2026-03-29T22:30:54.169,2026-03-29T18:30:54.169,-22462.92,-43077.24,-77372.775,-48807.405,-9061.154999999999,-16285.005,7585.155,-62426.655,7.200098731935632,4.020615756971279,3.8184254128482324,1.1979204290935577,-1.4397110095184866,-2.898746864753594,-14.90102497950319,6.3893650216006135,0.328307265,-0.84533475,0.43279918500000003,-0.03052,24.507559999999998,22.52376,68.0
1774823454.1813838,0.011583566665649414,2026-03-29T22:30:54.181,2026-03-29T18:30:54.181,-22459.364999999998,-43075.305,-77371.605,-48801.104999999996,-9055.664999999999,-16281.09,7586.955,-62423.595,5.753474090750633,3.459831081412414,5.888940185925429,4.320850769636317,1.3112742496291363,0.9920800023113464,-10.217480006906191,6.467289696093622,0.328307265,-0.84533475,0.43279918500000003,-0.03052,24.507559999999998,22.52376,68.0
1774823454.181412,2.8133392333984375e-05,2026-03-29T22:30:54.181,2026-03-29T18:30:54.181,-22463.774999999998,-43080.93,-77381.145,-48806.955,-9057.69,-16283.43,7582.23,-62427.195,1.7699253917388336,1.2759705700155857,5.129627540269015,5.118964118477919,3.0820672729080187,4.0641842307171965,-1.61931759949749,3.610355994636364,0.328307265,-0.84533475,0.43279918500000003,-0.03052,24.507559999999998,22.52376,68.0
1774823454.1814427,3.075599670410156e-05,2026-03-29T22:30:54.181,2026-03-29T18:30:54.181,-22468.05,-43085.295,-77388.3,-48818.564999999995,-9066.69,-16289.955,7582.905,-62430.93,-2.839537962964499,-1.4711993926907525,1.9038617966593028,3.41380730663194,3.2629980304686574,5.070340202528391,6.8011589234790994,-0.8606291626225316,0.328307265,-0.84533475,0.43279918500000003,-0.03052,24.507559999999998,22.52376,68.0
1774823454.1814597,1.6927719116210938e-05,2026-03-29T22:30:54.181,2026-03-29T18:30:54.181,-22467.825,-43089.795,-77408.055,-48841.38,-9078.39,-16298.865,7586.235,-62433.945,-5.9694687284767625,-3.4781369534027196,-2.238408343680393,0.25289884739467566,2.0581610681136375,3.807653826026394,11.444810366496128,-4.904789891684057,0.328307265,-0.84533475,0.43279918500000003,-0.03052,24.507559999999998,22.52376,68.0
1774823454.1814792,1.9550323486328125e-05,2026-03-29T22:30:54.181,2026-03-29T18:30:54.181,-22460.85,-43087.14,-77407.73999999999,-48841.604999999996,-9077.355,-16300.845,7585.29,-62428.994999999995,-6.289916944670032,-3.8187331018941615,-5.311209015862745,-2.702512852960235,0.25574196664451593,1.0914965138303157,10.740410664218885,-6.700218872148583,0.328307265,-0.84533475,0.43279918500000003,-0.03052,24.507559999999998,22.52376,68.0
1774823454.1814952,1.5974044799804688e-05,2026-03-29T22:30:54.181,2026-03-29T18:30:54.181,-22456.125,-43083.09,-77400.18,-48835.845,-9073.44,-16301.025,7574.355,-62427.509999999995,-3.808356655253474,-2.3709133111326763,-5.84815953993453,-4.04414425307403,-1.2448534286605961,-1.728454801037626,5.614511850033339,-5.468226933906157,0.328307265,-0.84533475,0.43279918500000003,-0.03052,24.507559999999998,22.52376,68.0
1774823454.185833,0.004337787628173828,2026-03-29T22:30:54.185,2026-03-29T18:30:54.185,-22456.079999999998,-43078.905,-77392.8,-48827.655,-9072.945,-16301.34,7559.505,-62431.965,0.21166874558718526,0.14724914850489296,-3.6018425035990087,-3.288008621675706,-1.8788803574354762,-3.4361912311355747,-1.2040190539729716,-1.8083006685407943,0.328307265,-0.84533475,0.43279918500000003,-0.03052,24.507559999999998,22.52376,68.0
1774823454.1858945,6.151199340820312e-05,2026-03-29T22:30:54.185,2026-03-29T18:30:54.185,-22456.079999999998,-43078.229999999996,-77387.715,-48825.63,-9074.295,-16305.57,7554.96,-62433.27,3.898161205210897,2.537018321292128,0.3463516410693099,-1.0302725859585253,-1.6153375633705187,-3.4718268996537627,-6.602514755237246,2.598932325306289,0.328307265,-0.84533475,0.43279918500000003,-0.03052,24.507559999999998,22.52376,68.0
1774823454.1902728,0.004378318786621094,2026-03-29T22:30:54.190,2026-03-29T18:30:54.190,-22448.879999999997,-43074.225,-77380.02,-48828.375,-9078.93,-16312.994999999999,7561.53,-62424.854999999996,5.650950502139955,3.6926016733160627,4.112493098173666,1.4501091027194117,-0.847646821606523,-2.085510461557927,-8.501073098795796,5.771533007921534,0.321349275,-0.82287387,0.431944695,-12.116439999999999,25.59102,22.89,68.0
1774823454.1903076,3.4809112548828125e-05,2026-03-29T22:30:54.190,2026-03-29T18:30:54.190,-22437.27,-43064.369999999995,-77364.98999999999,-48820.185,-9078.435,-16315.425,7566.525,-62406.27,4.836970038264261,3.1130984612471377,5.913865362677941,2.8974551008896903,-0.08579867787434535,-0.10051695987210323,-6.625375782759306,6.323457182244799,0.321349275,-0.82287387,0.431944695,-12.116439999999999,25.59102,22.89,68.0
1774823454.1939175,0.003609895706176758,2026-03-29T22:30:54.193,2026-03-29T18:30:54.193,-22436.504999999997,-43063.02,-77361.25499999999,-48814.83,-9073.44,-16298.82,7563.599999999999,-62401.274999999994,1.9985773778176195,1.115874297294748,4.9145703578565705,2.7110621658399876,0.3483981301114471,1.5489004686877534,-2.3661152905473273,4.0703053024379665,0.321349275,-0.82287387,0.431944695,-12.116439999999999,25.59102,22.89,68.0
1774823454.1939385,2.09808349609375e-05,2026-03-29T22:30:54.193,2026-03-29T18:30:54.193,-22456.754999999997,-43068.284999999996,-77368.5,-48809.025,-9054.494999999999,-16273.755,7585.245,-62439.075,-1.4804739139228271,-1.3372039360583095,1.6112527356367303,1.186277032770617,0.45110182332004856,2.254337612681535,2.089446110559339,0.07888483020961005,0.321349275,-0.82287387,0.431944695,-12.116439999999999,25.59102,22.89,68.0
1774823454.197646,0.003707408905029297,2026-03-29T22:30:54.197,2026-03-29T18:30:54.197,-22453.245,-43063.244999999995,-77361.39,-48797.64,-9041.625,-16267.365,7604.1449999999995,-62433.63,-4.054826326305374,-3.1055554632670033,-2.4178125186294146,-0.7267922802730177,0.4426604708006675,1.941948869330424,4.854152428275498,-3.8443874339907627,0.321349275,-0.82287387,0.431944695,-12.116439999999999,25.59102,22.89,68.0
1774823454.1976657,1.9788742065429688e-05,2026-03-29T22:30:54.197,2026-03-29T18:30:54.197,-22449.149999999998,-43070.58,-77375.205,-48810.645,-9056.88,-16287.795,7596.8099999999995,-62426.34,-4.706895315935013,-3.40092715489005,-5.271747460926376,-1.982351224337344,0.5407386571884892,0.991418037654192,5.12624517735756,-5.978158960488358,0.321349275,-0.82287387,0.431944695,-12.116439999999999,25.59102,22.89,68.0
1774823454.2023563,0.004690647125244141,2026-03-29T22:30:54.202,2026-03-29T18:30:54.202,-22449.329999999998,-43076.52,-77385.555,-48819.465,-9065.97,-16297.605,7601.625,-62425.439999999995,-3.337259917140146,-2.1362381368455146,-5.626981551155826,-1.9980790725633752,0.7645070346522549,-0.04382834846729498,3.3449885357990468,-5.44420121960052,0.321349275,-0.82287387,0.431944695,-12.116439999999999,25.59102,22.89,68.0
1774823454.2023983,4.1961669921875e-05,2026-03-29T22:30:54.202,2026-03-29T18:30:54.202,-22454.774999999998,-43067.97,-77377.00499999999,-48801.915,-9047.789999999999,-16284.779999999999,7598.969999999999,-62432.415,-0.7135549194834906,0.060566685430596914,-3.350758897365989,-0.9200045078680668,0.903333589725632,-0.7389411615768587,0.7434898711362685,-2.563822184070114,0.321349275,-0.82287387,0.431944695,-12.116439999999999,25.59102,22.89,68.0
1774823454.2061558,0.003757476806640625,2026-03-29T22:30:54.206,2026-03-29T18:30:54.206,-22460.219999999998,-43074.18,-77386.31999999999,-48804.93,-9047.43,-16279.605,7596.495,-62442.045,1.9510911400578044,2.159827624497156,0.45570911362857014,0.5246896979089738,0.6714159687164774,-0.9638966121972229,-1.387912200177308,1.329156672851221,0.321349275,-0.82287387,0.431944695,-12.116439999999999,25.59102,22.89,68.0
1774823454.2061822,2.6464462280273438e-05,2026-03-29T22:30:54.206,2026-03-29T18:30:54.206,-22464.27,-43077.06,-77382.765,-48817.89,-9058.545,-16279.47,7593.525,-62443.439999999995,3.5618147214795752,3.2135178261979718,3.9939625545596673,1.4772226095399272,-0.053723632113880274,-0.853586285652343,-2.319785879170331,4.512615265912134,0.321349275,-0.82287387,0.431944695,-12.116439999999999,25.59102,22.89,68.0
1774823454.2108529,0.004670619964599609,2026-03-29T22:30:54.210,2026-03-29T18:30:54.210,-22451.445,-43065.81,-77375.11499999999,-48822.84,-9064.8,-16290.09,7595.82,-62434.35,3.5848473489931014,2.781398506042643,5.621473120253791,1.434528925982965,-1.0709450763444925,-0.6387131592549131,-2.0963743048637777,5.642518870047642,0.31542888,-0.82018833,0.44225961,-7.79786,24.156579999999998,16.72496,68.0
1774823454.2108848,3.1948089599609375e-05,2026-03-29T22:30:54.210,2026-03-29T18:30:54.210,-22437.315,-43056.765,-77368.31999999999,-48814.424999999996,-9058.815,-16288.695,7589.5199999999995,-62422.11,2.194678531353234,1.1096211207721511,4.615056595315531,0.5058507196173759,-1.8949605342519937,-0.46415955304208245,-1.3059829272412402,4.318384134378914,0.31542888,-0.82018833,0.44225961,-7.79786,24.156579999999998,16.72496,68.0
1774823454.2139812,0.003096342086791992,2026-03-29T22:30:54.213,2026-03-29T18:30:54.213,-22458.239999999998,-43082.415,-77386.995,-48822.705,-9064.8,-16286.535,7557.12,-62437.365,0.1054604048798844,-1.0073954150232944,1.4895321378838207,-0.6887520922888025,-1.9984011416727536,-0.31024362847740344,-0.6083501786218675,1.2111724761576481,0.31542888,-0.82018833,0.44225961,-7.79786,24.156579999999998,16.72496,68.0
1774823454.214002,2.0742416381835938e-05,2026-03-29T22:30:54.214,2026-03-29T18:30:54.214,-22468.77,-43093.89,-77398.92,-48837.24,-9078.345,-16297.92,7576.469999999999,-62445.915,-1.792977013159384,-2.6050596517916533,-2.267083644132554,-1.4024545587219497,-1.1311448001496622,-0.054412136129848576,-0.32053928647842367,-2.278314407381262,0.31542888,-0.82018833,0.44225961,-7.79786,24.156579999999998,16.72496,68.0
1774823454.2193928,0.00539088249206543,2026-03-29T22:30:54.219,2026-03-29T18:30:54.219,-22463.82,-43087.905,-77395.31999999999,-48830.625,-9068.13,-16290.18,7619.085,-62441.774999999994,-2.810079266932491,-2.986358629945982,-4.90494061667484,-1.2006718195707244,0.46985583909981743,0.3828152146931799,-0.29137962868415695,-4.656032414493695,0.31542888,-0.82018833,0.44225961,-7.79786,24.156579999999998,16.72496,68.0
1774823454.2194116,1.8835067749023438e-05,2026-03-29T22:30:54.219,2026-03-29T18:30:54.219,-22460.265,-43086.24,-77401.89,-48835.305,-9072.09,-16296.48,7604.775,-62439.075,-2.6850388239895664,-2.0215841258345124,-5.228857165167941,-0.20641719178755055,2.121734022003844,0.9170028483414084,-0.10416212070671828,-4.974705272206703,0.31542888,-0.82018833,0.44225961,-7.79786,24.156579999999998,16.72496,68.0
1774823454.22225,0.0028383731842041016,2026-03-29T22:30:54.222,2026-03-29T18:30:54.222,-22453.559999999998,-43076.655,-77389.605,-48822.84,-9061.92,-16290.314999999999,7595.6849999999995,-62436.465,-1.6091808459363195,-0.18370807266327344,-3.1385086175776755,0.9802046697265442,2.997372899713378,1.2960497135316282,0.5487880637783878,-3.203168664965581,0.31542888,-0.82018833,0.44225961,-7.79786,24.156579999999998,16.72496,68.0
1774823454.222276,2.5987625122070312e-05,2026-03-29T22:30:54.222,2026-03-29T18:30:54.222,-22459.41,-43080.21,-77386.815,-48816.405,-9058.725,-16289.64,7586.1449999999995,-62441.325,-0.07677116351977568,1.6838336676287153,0.3508512727390037,1.6352097189645722,2.5488088391829176,1.2299503046892062,1.5699936302893904,-0.18569625495127914,0.31542888,-0.82018833,0.44225961,-7.79786,24.156579999999998,16.72496,68.0
1774823454.2302015,0.00792551040649414,2026-03-29T22:30:54.230,2026-03-29T18:30:54.230,-22468.41,-43082.46,-77382.72,-48815.415,-9058.005,-16292.474999999999,7570.3949999999995,-62447.49,1.3387389161687846,2.7526432169792168,3.603198208913864,1.3326401244055803,0.8319148906146205,0.5828135818540537,2.4349610791017966,2.7634685882823753,0.31542888,-0.82018833,0.44225961,-7.79786,24.156579999999998,16.72496,68.0
1774823454.2302213,1.9788742065429688e-05,2026-03-29T22:30:54.230,2026-03-29T18:30:54.230,-22462.695,-43074.494999999995,-77375.06999999999,-48822.884999999995,-9064.529999999999,-16295.13,7581.0599999999995,-62440.649999999994,2.183488919363905,2.572753048322259,5.130058985712051,0.19644337672276793,-1.4535627365135346,-0.4911311127888853,2.4735070360005182,4.4342916924536455,0.31542888,-0.82018833,0.44225961,-7.79786,24.156579999999998,16.72496,68.0
1774823454.2302432,2.193450927734375e-05,2026-03-29T22:30:54.230,2026-03-29T18:30:54.230,-22462.02,-43078.229999999996,-77377.635,-48824.055,-9066.465,-16291.755,7588.844999999999,-62439.39,2.238258348908144,1.2568015903978422,4.2710509893095,-1.1587230510498039,-3.2559509287724286,-1.5630290479060898,1.29971925177721,4.21231689086798,0.304747755,-0.82970979,0.442320645,0.6714399999999999,27.605339999999998,12.391119999999999,68.0
1774823454.2302475,4.291534423828125e-06,2026-03-29T22:30:54.230,2026-03-29T18:30:54.230,-22457.925,-43073.415,-77367.015,-48810.869999999995,-9055.89,-16284.42,7587.224999999999,-62442.09,1.5421887718397778,-0.5872272741342545,1.4761207603076085,-1.9648928199222244,-3.6697445247381237,-2.1102222105260062,-0.8617492660647449,2.290692644568461,0.304747755,-0.82970979,0.442320645,0.6714399999999999,27.605339999999998,12.391119999999999,68.0
1774823454.2385292,0.008281707763671875,2026-03-29T22:30:54.238,2026-03-29T18:30:54.238,-22459.77,-43079.67,-77381.28,-48824.145,-9072.9,-16303.59,7570.62,-62447.04,0.3499512708040776,-2.1356713184847327,-1.9290345423522692,-1.72970970819877,-2.397358465326351,-1.7805787787252658,-3.162595219416456,-0.4618271510001845,0.304747755,-0.82970979,0.442320645,0.6714399999999999,27.605339999999998,12.391119999999999,68.0
1774823454.2385488,1.9550323486328125e-05,2026-03-29T22:30:54.238,2026-03-29T18:30:54.238,-22461.39,-43083.765,-77394.465,-48835.485,-9084.869999999999,-16319.205,7554.0599999999995,-62447.85,-0.948663679872023,-2.7132228253756168,-4.372409800859488,-0.5200181245287328,0.06359787952901863,-0.6028014856602827,-4.47808372702327,-2.895490471752041,0.304747755,-0.82970979,0.442320645,0.6714399999999999,27.605339999999998,12.391119999999999,68.0
1774823454.2385647,1.5974044799804688e-05,2026-03-29T22:30:54.238,2026-03-29T18:30:54.238,-22460.085,-43079.985,-77394.23999999999,-48825.494999999995,-9069.66,-16302.644999999999,7547.67,-62452.89,-1.9301523381340924,-2.082591315408647,-4.760884277690056,1.05725777461012,2.6174674266152347,0.9775041607399825,-3.964239275287485,-4.056738021175894,0.304747755,-0.82970979,0.442320645,0.6714399999999999,27.605339999999998,12.391119999999999,68.0
1774823454.2385716,6.9141387939453125e-06,2026-03-29T22:30:54.238,2026-03-29T18:30:54.238,-22455.629999999997,-43075.305,-77380.37999999999,-48809.52,-9052.605,-16281.449999999999,7555.32,-62451.27,-2.251880030653482,-0.5383556472726088,-2.96711981231778,2.1697278775839,4.07199314378808,2.272102276714818,-1.5466392162144833,-3.551815510605752,0.304747755,-0.82970979,0.442320645,0.6714399999999999,27.605339999999998,12.391119999999999,68.0
1774823454.2422335,0.0036618709564208984,2026-03-29T22:30:54.242,2026-03-29T18:30:54.242,-22453.739999999998,-43079.49,-77382.405,-48817.665,-9063.27,-16289.73,7567.65,-62441.865,-1.764769611219384,1.2298884011129416,0.13731374581892128,2.2023797171321324,3.7078296629846568,2.6625457617801245,1.9259047557317797,-1.6640210512661773,0.304747755,-0.82970979,0.442320645,0.6714399999999999,27.605339999999998,12.391119999999999,68.0
1774823454.2422462,1.2636184692382812e-05,2026-03-29T22:30:54.242,2026-03-29T18:30:54.242,-22450.41,-43086.689999999995,-77394.465,-48831.345,-9075.869999999999,-16301.744999999999,7593.75,-62425.845,-0.5907660622708168,2.4418842762980817,3.105020572265466,1.0918963036793239,1.6382858031646133,1.9026738182098344,4.978037638705038,0.7998384230328398,0.304747755,-0.82970979,0.442320645,0.6714399999999999,27.605339999999998,12.391119999999999,68.0
1774823454.246442,0.0041959285736083984,2026-03-29T22:30:54.246,2026-03-29T18:30:54.246,-22449.645,-43093.305,-77408.45999999999,-48850.604999999996,-9089.414999999999,-16314.39,7605.36,-62423.055,0.8787718152236597,2.566281448167052,4.586873743941334,-0.6268722605176978,-1.2220453929118158,0.2603284530136102,6.149918189140362,2.852452844182624,0.304747755,-0.82970979,0.442320645,0.6714399999999999,27.605339999999998,12.391119999999999,68.0
1774823454.2464566,1.4543533325195312e-05,2026-03-29T22:30:54.246,2026-03-29T18:30:54.246,-22450.004999999997,-43094.655,-77412.285,-48853.665,-9095.039999999999,-16322.039999999999,7573.545,-62431.74,2.092100578983747,1.550358512885977,3.943734211594816,-2.089011934199463,-3.5727048457539223,-1.5789624380867286,4.698264531915798,3.7137984758168434,0.304747755,-0.82970979,0.442320645,0.6714399999999999,27.605339999999998,12.391119999999999,68.0
1774823454.2504292,0.003972530364990234,2026-03-29T22:30:54.250,2026-03-29T18:30:54.250,-22468.094999999998,-43084.26,-77386.995,-48827.34,-9070.74,-16298.73,7559.009999999999,-62471.384999999995,2.537805100564748,-0.15755505510754275,1.51951966577744,-2.5430331942265507,-4.332376507653398,-2.8094175074330456,1.0194260257557577,3.0960164019520384,0.29919357,-0.823179045,0.42529188,7.90468,28.87192,8.30144,68.0
1774823454.2505124,8.320808410644531e-05,2026-03-29T22:30:54.250,2026-03-29T18:30:54.250,-22460.265,-43071.57,-77370.97499999999,-48808.395,-9052.109999999999,-16281.269999999999,7571.835,-62474.265,1.967688858837018,-1.8025831816683224,-1.5394775120686428,-1.7389621602600212,-3.1455288122178646,-2.8684371753448215,-3.431400586192116,1.2881748220493583,0.29919357,-0.823179045,0.42529188,7.90468,28.87192,8.30144,68.0
1774823454.2541492,0.0036368370056152344,2026-03-29T22:30:54.254,2026-03-29T18:30:54.254,-22447.844999999998,-43079.13,-77385.33,-48818.61,-9058.005,-16284.96,7600.7699999999995,-62443.755,0.5406675933332916,-2.6523422192760444,-3.8253912685927514,-0.06011139372110957,-0.5492903404825507,-1.6971818472428521,-6.7242946096248355,-0.9768348097085922,0.29919357,-0.823179045,0.42529188,7.90468,28.87192,8.30144,68.0
1774823454.2541678,1.8596649169921875e-05,2026-03-29T22:30:54.254,2026-03-29T18:30:54.254,-22450.77,-43082.685,-77389.37999999999,-48825.63,-9065.025,-16289.82,7611.255,-62430.39,-1.1971564478360215,-2.319815072618512,-4.315336285679487,1.6684060933763176,2.2775379785743928,0.2235913237794312,-7.302987541461794,-2.81300749076858,0.29919357,-0.823179045,0.42529188,7.90468,28.87192,8.30144,68.0
1774823454.2582035,0.0040357112884521484,2026-03-29T22:30:54.258,2026-03-29T18:30:54.258,-22458.149999999998,-43068.465,-77377.455,-48811.86,-9053.055,-16280.234999999999,7604.594999999999,-62443.619999999995,-2.514585292402936,-0.939585844285366,-2.82777944437158,2.594536273726503,4.061897896358894,2.079942769190888,-4.720097170319691,-3.518039608323326,0.29919357,-0.823179045,0.42529188,7.90468,28.87192,8.30144,68.0
1774823454.2582383,3.4809112548828125e-05,2026-03-29T22:30:54.258,2026-03-29T18:30:54.258,-22459.59,-43068.735,-77376.19499999999,-48806.685,-9051.39,-16281.945,7598.384999999999,-62453.25,-2.8086993335648276,0.8828127722054478,-0.08601283497839599,2.2647971689314166,4.020179716781795,3.0796110486940624,0.08702954695143326,-2.8339740798011133,0.29919357,-0.823179045,0.42529188,7.90468,28.87192,8.30144,68.0
1774823454.26481,0.006571769714355469,2026-03-29T22:30:54.264,2026-03-29T18:30:54.264,-22472.594999999998,-43087.185,-77384.34,-48820.005,-9068.22,-16300.619999999999,7583.535,-62459.505,-1.8919806605327842,2.3319409056306952,2.631313705867897,0.8457416288111923,2.205822015079369,2.795552513295996,5.132878696789504,-1.0395296032892234,0.29919357,-0.823179045,0.42529188,7.90468,28.87192,8.30144,68.0
1774823454.264826,1.5974044799804688e-05,2026-03-29T22:30:54.264,2026-03-29T18:30:54.264,-22472.145,-43091.595,-77390.37,-48832.56,-9080.73,-16309.529999999999,7595.325,-62454.78,-0.11112418089226817,2.744188860428815,4.084947817128193,-0.9661113111895382,-0.5345753459984333,1.3468435374896899,8.212985014240681,1.158040252175383,0.29919357,-0.823179045,0.42529188,7.90468,28.87192,8.30144,68.0
1774823454.2671711,0.0023450851440429688,2026-03-29T22:30:54.267,2026-03-29T18:30:54.267,-22463.145,-43092.9,-77398.605,-48835.125,-9085.095,-16316.055,7589.429999999999,-62446.95,1.7763665869172827,1.9116674172133674,3.6395139544432658,-2.2944617674192322,-2.965193205519315,-0.658277295521275,7.875708665103411,2.8928901133023737,0.29919357,-0.823179045,0.42529188,7.90468,28.87192,8.30144,68.0
1774823454.2671835,1.239776611328125e-05,2026-03-29T22:30:54.267,2026-03-29T18:30:54.267,-22448.655,-43085.97,-77391.27,-48816.945,-9070.83,-16306.65,7582.7699999999995,-62433.045,2.9285074149484562,0.18916406455085633,1.541213719578705,-2.5136099958216884,-4.027834006777664,-2.3861275745269332,4.105396689303635,3.474552677830997,0.29919357,-0.823179045,0.42529188,7.90468,28.87192,8.30144,68.0
1774823454.2703571,0.0031735897064208984,2026-03-29T22:30:54.270,2026-03-29T18:30:54.270,-22438.53,-43087.14,-77400.27,-48821.445,-9073.35,-16309.935,7575.12,-62420.445,2.805144117142014,-1.6519019543204507,-1.212601226066715,-1.5447750240970866,-3.3071405798420677,-3.1292431070444615,-1.6033569982627147,2.661243207998782,0.298400115,-0.811826535,0.402831,2.99096,19.807479999999998,1.9075,68.0
1774823454.2703788,2.1696090698242188e-05,2026-03-29T22:30:54.270,2026-03-29T18:30:54.270,-22455.09,-43086.869999999995,-77390.73,-48823.155,-9075.33,-16315.875,7572.509999999999,-62444.97,1.4315898769290172,-2.765715905978688,-3.345188086192824,0.12232843089663797,-1.1878699751360122,-2.595265902105481,-6.840509547136116,0.7650399891642231,0.298400115,-0.811826535,0.402831,2.99096,19.807479999999998,1.9075,68.0
1774823454.2742827,0.0039038658142089844,2026-03-29T22:30:54.274,2026-03-29T18:30:54.274,-22460.94,-43088.13,-77395.275,-48837.104999999996,-9086.715,-16330.724999999999,7566.48,-62452.17,-0.5937765853728102,-2.6207505183635322,-3.8917811704379055,1.6829833470821602,1.351719979789633,-1.0161437744168857,-9.306885067448436,-1.4593638897877217,0.298400115,-0.811826535,0.402831,2.99096,19.807479999999998,1.9075,68.0
1774823454.274309,2.6226043701171875e-05,2026-03-29T22:30:54.274,2026-03-29T18:30:54.274,-22474.665,-43101.314999999995,-77411.655,-48844.71,-9085.05,-16319.88,7572.375,-62460.134999999995,-2.362564712440367,-1.2564317682141994,-2.637278081936204,2.411983359846436,3.198552409338186,0.9590269684634021,-7.8318246176020025,-3.108011719299398,0.298400115,-0.811826535,0.402831,2.99096,19.807479999999998,1.9075,68.0
1774823454.2777855,0.0034766197204589844,2026-03-29T22:30:54.277,2026-03-29T18:30:54.277,-22486.86,-43088.67,-77390.955,-48827.115,-9055.484999999999,-16274.699999999999,7587.764999999999,-62482.274999999994,-3.073003241560979,0.717633808953036,-0.20120004228586358,2.0028919750938634,3.5968998214978796,2.5345755286790688,-2.9290317401798576,-3.493165613640598,0.298400115,-0.811826535,0.402831,2.99096,19.807479999999998,1.9075,68.0
1774823454.277806,2.0503997802734375e-05,2026-03-29T22:30:54.277,2026-03-29T18:30:54.277,-22470.57,-43081.604999999996,-77383.395,-48831.705,-9062.91,-16281.09,7591.32,-62467.784999999996,-2.4043324947658484,2.390253885827836,2.2641898838864702,0.6925183736203278,2.4545636778967554,3.0874988379975554,3.3730070224950817,-2.4341505630287985,0.298400115,-0.811826535,0.402831,2.99096,19.807479999999998,1.9075,68.0
1774823454.288814,0.011008024215698242,2026-03-29T22:30:54.288,2026-03-29T18:30:54.288,-22464.27,-43086.015,-77388.39,-48833.685,-9072.9,-16296.615,7584.929999999999,-62460.0,-0.6688005952056766,2.969158471718228,3.617608288502153,-0.8768940455983442,0.3413479599521421,2.4084847498335367,8.375392030678519,-0.3484188677448907,0.298400115,-0.811826535,0.402831,2.99096,19.807479999999998,1.9075,68.0
1774823454.2888353,2.1219253540039062e-05,2026-03-29T22:30:54.288,2026-03-29T18:30:54.288,-22461.885,-43087.005,-77390.055,-48828.509999999995,-9073.44,-16303.814999999999,7570.349999999999,-62455.545,1.3340426477548057,2.1597148493521985,3.2587421488812898,-1.977237313248297,-1.7973577531701201,0.7752243739214263,9.874909768781377,1.9056803563605935,0.298400115,-0.811826535,0.402831,2.99096,19.807479999999998,1.9075,68.0
1774823454.288856,2.0742416381835938e-05,2026-03-29T22:30:54.288,2026-03-29T18:30:54.288,-22461.165,-43089.84,-77395.36499999999,-48839.67,-9088.47,-16323.705,7547.985,-62451.27,2.6925145070789376,0.31925536084462247,1.397842520331189,-2.1344360220355147,-3.066536732083474,-1.1634040487041384,7.144274301722765,3.3795319168832094,0.298400115,-0.811826535,0.402831,2.99096,19.807479999999998,1.9075,68.0
1774823454.2888637,7.62939453125e-06,2026-03-29T22:30:54.288,2026-03-29T18:30:54.288,-22468.815,-43094.159999999996,-77402.025,-48845.295,-9088.47,-16323.074999999999,7561.304999999999,-62461.979999999996,2.8078678276704263,-1.6957178003876539,-1.0578927493435488,-1.3290507318692422,-2.9936871625851396,-2.6425701052027653,1.2865568408120296,3.436479625732451,0.298400115,-0.811826535,0.402831,2.99096,19.807479999999998,1.9075,68.0
1774823454.2888727,9.059906005859375e-06,2026-03-29T22:30:54.288,2026-03-29T18:30:54.288,-22468.274999999998,-43084.125,-77389.37999999999,-48823.515,-9061.695,-16292.789999999999,7590.105,-62467.064999999995,1.6660986174397523,-2.9272033548123932,-2.9432666296815126,0.024847593496777395,-1.6942285412134273,-3.077466629735314,-5.209622119521814,2.0335215908630473,0.301696005,-0.81078894,0.37866114,-10.2242,6.9433,5.14262,68.0
1774823454.2888799,7.152557373046875e-06,2026-03-29T22:30:54.288,2026-03-29T18:30:54.288,-22472.73,-43100.01,-77398.92,-48822.975,-9065.835,-16297.154999999999,7549.74,-62466.615,-0.17078016088453235,-2.774415157020123,-3.388807867076484,1.2955078870668264,0.22070971375403936,-2.2894188973415,-9.535832255886799,-0.2454720645411013,0.301696005,-0.81078894,0.37866114,-10.2242,6.9433,5.14262,68.0
1774823454.2939515,0.0050716400146484375,2026-03-29T22:30:54.293,2026-03-29T18:30:54.293,-22479.84,-43101.81,-77389.11,-48811.634999999995,-9067.14,-16311.105,7500.599999999999,-62482.454999999994,-1.843966734424799,-1.2925509198308682,-2.22605098370784,1.9299610384675885,1.932216009064835,-0.5783194155708157,-9.791010483493517,-2.4290859805997753,0.301696005,-0.81078894,0.37866114,-10.2242,6.9433,5.14262,68.0
1774823454.2939675,1.5974044799804688e-05,2026-03-29T22:30:54.293,2026-03-29T18:30:54.293,-22469.579999999998,-43076.655,-77366.52,-48795.659999999996,-9050.625,-16302.42,7517.745,-62483.759999999995,-2.6073676668067423,0.8195005093267027,-0.053506183243762766,1.6910433159280596,2.761065307332958,1.3870236194152357,-5.828487556832559,-3.574101621627298,0.301696005,-0.81078894,0.37866114,-10.2242,6.9433,5.14262,68.0
1774823454.298237,0.004269599914550781,2026-03-29T22:30:54.298,2026-03-29T18:30:54.298,-22440.51,-43048.755,-77348.79,-48808.259999999995,-9054.18,-16298.505,7580.61,-62449.829999999994,-2.168185282705888,2.546204878194546,2.06441558246102,0.7355925448183331,2.4290343375679404,2.823227817154036,0.6596483091480201,-3.1788785710280854,0.301696005,-0.81078894,0.37866114,-10.2242,6.9433,5.14262,68.0
1774823454.2982552,1.811981201171875e-05,2026-03-29T22:30:54.298,2026-03-29T18:30:54.298,-22454.594999999998,-43070.354999999996,-77370.885,-48821.67,-9064.395,-16293.105,7645.094999999999,-62449.695,-0.7992302891708392,3.045659878303802,3.1171789907039003,-0.4845745028681391,1.138851840128397,3.139221336050225,6.869275800921691,-1.4102743476506838,0.301696005,-0.81078894,0.37866114,-10.2242,6.9433,5.14262,68.0
1774823454.302099,0.0038437843322753906,2026-03-29T22:30:54.302,2026-03-29T18:30:54.302,-22468.184999999998,-43087.68,-77381.45999999999,-48818.115,-9059.76,-16280.414999999999,7635.509999999999,-62461.935,0.8201761510565708,2.065696804476943,2.6338284759259536,-1.4378483259241892,-0.5407289259073257,2.1791767385980196,10.108637971061594,0.9619123099144254,0.301696005,-0.81078894,0.37866114,-10.2242,6.9433,5.14262,68.0
1774823454.3021116,1.2636184692382812e-05,2026-03-29T22:30:54.302,2026-03-29T18:30:54.302,-22464.27,-43085.43,-77377.00499999999,-48813.345,-9056.97,-16282.529999999999,7609.275,-62462.115,1.945030210274376,0.07773471332260268,0.8997554798492525,-1.740689357445441,-1.9219871776345177,0.3023830530500759,8.980572389914418,2.8998729350631405,0.301696005,-0.81078894,0.37866114,-10.2242,6.9433,5.14262,68.0
1774823454.3058252,0.0037136077880859375,2026-03-29T22:30:54.305,2026-03-29T18:30:54.305,-22457.43,-43077.645,-77367.645,-48804.659999999996,-9048.24,-16278.39,7606.755,-62456.49,2.1143118482237706,-1.9452547534162579,-1.198287052648675,-1.3025870074867645,-2.472001071894683,-1.7418927773716415,3.9964633950478534,3.5564184921331417,0.301696005,-0.81078894,0.37866114,-10.2242,6.9433,5.14262,68.0
1774823454.305837,1.1682510375976562e-05,2026-03-29T22:30:54.305,2026-03-29T18:30:54.305,-22461.93,-43084.979999999996,-77377.68,-48816.674999999996,-9058.455,-16285.23,7591.094999999999,-62459.28,1.3420212499338198,-3.0044568959255122,-2.6194506720997364,-0.33931838578228746,-2.0089692113955784,-3.1069985695351225,-2.653265096862514,2.6524054900515166,0.301696005,-0.81078894,0.37866114,-10.2242,6.9433,5.14262,68.0
1774823454.3102577,0.004420757293701172,2026-03-29T22:30:54.310,2026-03-29T18:30:54.310,-22456.079999999998,-43085.52,-77386.31999999999,-48825.18,-9068.625,-16297.695,7585.245,-62454.645,0.06931538129254002,-2.5723463227244117,-2.6854722035846965,0.7351708520492521,-0.7547770788378296,-3.198966508134008,-8.070453372641294,0.6014402905518372,0.3100578,-0.835630185,0.35546784,-24.00398,-4.97476,9.55276,68.0
1774823454.310269,1.1444091796875e-05,2026-03-29T22:30:54.310,2026-03-29T18:30:54.310,-22451.579999999998,-43090.2,-77402.97,-48839.985,-9079.065,-16307.099999999999,7591.32,-62444.204999999994,-1.081046883354844,-0.8621579048457026,-1.4103267457396822,1.4830076998107515,0.7662771585710263,-1.9402111709817151,-9.928016765439697,-1.6767684808751027,0.3100578,-0.835630185,0.35546784,-24.00398,-4.97476,9.55276,68.0
1774823454.3141289,0.0038597583770751953,2026-03-29T22:30:54.314,2026-03-29T18:30:54.314,-22460.085,-43090.83,-77404.995,-48843.99,-9078.255,-16305.795,7572.87,-62457.119999999995,-1.6133746236057154,1.27071584289768,0.5199640155233494,1.6113622549337243,1.9384657875803153,0.17250626344144276,-7.484972332084473,-3.1712933500222027,0.3100578,-0.835630185,0.35546784,-24.00398,-4.97476,9.55276,68.0
1774823454.3141384,9.5367431640625e-06,2026-03-29T22:30:54.314,2026-03-29T18:30:54.314,-22457.61,-43086.24,-77398.065,-48830.4,-9067.32,-16300.17,7554.915,-62467.335,-1.3759565892099264,2.7528809355568256,2.105010956050964,1.076755194908007,2.2952008655473732,2.25569648687451,-1.887733463750185,-3.234755326917601,0.3100578,-0.835630185,0.35546784,-24.00398,-4.97476,9.55276,68.0
1774823454.3179255,0.0037870407104492188,2026-03-29T22:30:54.317,2026-03-29T18:30:54.317,-22446.855,-43074.09,-77381.595,-48806.505,-9045.585,-16281.09,7576.92,-62457.975,-0.589617368403561,2.833880430943158,2.543135611402085,0.09437282226715651,1.7005443578910355,3.4067883717500647,4.368090115311833,-1.8704648147444385,0.3100578,-0.835630185,0.35546784,-24.00398,-4.97476,9.55276,68.0
1774823454.317947,2.1457672119140625e-05,2026-03-29T22:30:54.317,2026-03-29T18:30:54.317,-22455.09,-43073.415,-77375.565,-48810.509999999995,-9046.08,-16275.914999999999,7612.38,-62461.305,0.30657625244089404,1.4709846279151537,1.638928521990669,-0.9450265133031355,0.4037499948928174,3.1002667039352367,8.562657022242066,0.27868674223795054,0.3100578,-0.835630185,0.35546784,-24.00398,-4.97476,9.55276,68.0
1774823454.3223588,0.004411935806274414,2026-03-29T22:30:54.322,2026-03-29T18:30:54.322,-22466.07,-43082.145,-77385.915,-48832.784999999996,-9066.285,-16292.25,7594.155,-62469.63,0.8960223105123909,-0.6413853431465972,-0.1027027751915212,-1.6205277765723753,-1.05664754889366,1.436231628912896,8.951058283337314,2.2323707684512324,0.3100578,-0.835630185,0.35546784,-24.00398,-4.97476,9.55276,68.0
1774823454.3223815,2.2649765014648438e-05,2026-03-29T22:30:54.322,2026-03-29T18:30:54.322,-22470.885,-43091.909999999996,-77393.97,-48835.08,-9071.82,-16298.865,7597.9349999999995,-62468.865,0.981254242664589,-2.4191918530251404,-1.7445869200846866,-1.640876069224097,-2.0672840018555667,-0.8800019114421643,5.500234601808982,3.1242225336740606,0.3100578,-0.835630185,0.35546784,-24.00398,-4.97476,9.55276,68.0
1774823454.3350132,0.012631654739379883,2026-03-29T22:30:54.335,2026-03-29T18:30:54.335,-22469.175,-43093.26,-77388.435,-48824.46,-9066.734999999999,-16296.345,7598.61,-62466.299999999996,0.6422841000210713,-2.941798421250266,-2.4100989955796384,-0.9645790863373852,-2.1929399286100386,-2.8330383942003095,-0.15311486102747807,2.592622065843055,0.3100578,-0.835630185,0.35546784,-24.00398,-4.97476,9.55276,68.0
1774823454.335029,1.5735626220703125e-05,2026-03-29T22:30:54.335,2026-03-29T18:30:54.335,-22467.015,-43092.54,-77387.31,-48822.165,-9065.52,-16296.84,7594.155,-62466.524999999994,0.14435377398588667,-1.9295325736474638,-1.7458847881296207,0.16606897900554946,-1.3664263831715615,-3.5460880220372246,-5.481777705894284,0.9314039885524966,0.3100578,-0.835630185,0.35546784,-24.00398,-4.97476,9.55276,68.0
1774823454.3350425,1.3589859008789062e-05,2026-03-29T22:30:54.335,2026-03-29T18:30:54.335,-22459.95,-43087.86,-77384.745,-48824.865,-9069.795,-16305.119999999999,7586.28,-62461.439999999995,-0.23617816651890308,0.10229373276736693,-0.11228315465098118,1.2997012791927607,0.06863455261078857,-2.683417118219362,-8.211969916811897,-1.0646204067640892,0.32495034,-0.874448445,0.33618078,-26.49136,-8.57612,9.17126,68.0
1774823454.3350475,5.0067901611328125e-06,2026-03-29T22:30:54.335,2026-03-29T18:30:54.335,-22460.219999999998,-43082.729999999996,-77377.635,-48826.08,-9073.08,-16307.55,7576.514999999999,-62459.505,-0.3624175410163321,2.0990820734825975,1.6021130747654633,1.9445228897140658,1.4908109334043729,-0.6177876989161161,-7.307627242520441,-2.4807406607219704,0.32495034,-0.874448445,0.33618078,-26.49136,-8.57612,9.17126,68.0
1774823454.3350527,5.245208740234375e-06,2026-03-29T22:30:54.335,2026-03-29T18:30:54.335,-22458.555,-43080.705,-77376.95999999999,-48818.79,-9060.074999999999,-16292.789999999999,7583.759999999999,-62461.215,-0.28288886201990054,3.008060336360659,2.4500296688272702,1.7749974049709312,2.263925543423829,1.724479092282702,-3.36215048478017,-2.706769189567893,0.32495034,-0.874448445,0.33618078,-26.49136,-8.57612,9.17126,68.0
1774823454.3350565,3.814697265625e-06,2026-03-29T22:30:54.335,2026-03-29T18:30:54.335,-22463.415,-43085.97,-77380.065,-48823.965,-9063.18,-16295.805,7584.57,-62466.479999999996,-0.1593988736728176,2.329381292306286,1.936039695716846,0.7933749275132702,2.0220403719620816,3.2797283182013994,1.7501712237133809,-1.7053088516060921,0.32495034,-0.874448445,0.33618078,-26.49136,-8.57612,9.17126,68.0
1774823454.3397086,0.0046520233154296875,2026-03-29T22:30:54.339,2026-03-29T18:30:54.339,-22464.45,-43084.439999999995,-77374.395,-48825.045,-9070.289999999999,-16301.385,7579.98,-62463.869999999995,-0.133649729579914,0.3900684954287176,0.2974893684407257,-0.6330956154750622,0.8484429114805591,3.337093800366059,5.769926771458491,-0.003124446045128478,0.32495034,-0.874448445,0.33618078,-26.49136,-8.57612,9.17126,68.0
1774823454.339728,1.9550323486328125e-05,2026-03-29T22:30:54.339,2026-03-29T18:30:54.339,-22462.515,-43085.744999999995,-77380.37999999999,-48827.744999999995,-9070.065,-16298.82,7585.155,-62463.6,-0.22218800557576482,-1.8088619143870566,-1.6003930657924748,-1.8959377631717154,-0.7414845912945753,1.8733551791172425,7.064797541739435,1.580594518454694,0.32495034,-0.874448445,0.33618078,-26.49136,-8.57612,9.17126,68.0
1774823454.342876,0.0031478404998779297,2026-03-29T22:30:54.342,2026-03-29T18:30:54.342,-22463.415,-43092.945,-77391.36,-48831.39,-9068.67,-16295.805,7590.915,-62464.545,-0.307094145397746,-3.102751389750463,-2.711328936899189,-2.397403347195413,-2.0193447362353014,-0.4296978027031637,5.298257742168768,2.330690219809971,0.32495034,-0.874448445,0.33618078,-26.49136,-8.57612,9.17126,68.0
1774823454.342904,2.8133392333984375e-05,2026-03-29T22:30:54.342,2026-03-29T18:30:54.342,-22458.015,-43092.045,-77391.315,-48830.805,-9071.955,-16304.265,7580.88,-62461.89,-0.2273542847328245,-2.7731528041318305,-2.36969095968886,-1.830531935400677,-2.3753468805423252,-2.500109166560719,1.4776425432641898,1.9640739810103194,0.32495034,-0.874448445,0.33618078,-26.49136,-8.57612,9.17126,68.0
1774823454.3461893,0.0032851696014404297,2026-03-29T22:30:54.346,2026-03-29T18:30:54.346,-22458.105,-43094.88,-77399.055,-48833.145,-9073.619999999999,-16313.67,7569.134999999999,-62464.274999999994,0.0891525942807457,-0.9402136028836537,-0.6707836860589359,-0.35720268114794174,-1.6122495545447264,-3.378445032964666,-2.596141148359094,0.7362137829376191,0.32495034,-0.874448445,0.33618078,-26.49136,-8.57612,9.17126,68.0
1774823454.3462107,2.1457672119140625e-05,2026-03-29T22:30:54.346,2026-03-29T18:30:54.346,-22459.184999999998,-43100.729999999996,-77404.59,-48839.534999999996,-9081.18,-16323.345,7574.264999999999,-62459.549999999996,0.5416544180186535,1.4744213086679863,1.541393934523411,1.4159557484554877,-0.05835782829914338,-2.6706758806681794,-5.1844829173828195,-0.7142103529771553,0.32495034,-0.874448445,0.33618078,-26.49136,-8.57612,9.17126,68.0
1774823454.35003,0.0038192272186279297,2026-03-29T22:30:54.350,2026-03-29T18:30:54.350,-22457.655,-43097.67,-77400.765,-48841.92,-9084.51,-16318.89,7570.259999999999,-62460.27,0.8832672571717165,3.2074810433173417,3.08974711588728,2.67868478818464,1.566088335129121,-0.7336449050056415,-5.362359618019319,-1.6943133625536144,0.33776769,-0.90221937,0.32220376500000003,-21.5166,-13.505099999999999,7.2332399999999994,68.0
1774823454.3500512,2.1219253540039062e-05,2026-03-29T22:30:54.350,2026-03-29T18:30:54.350,-22454.864999999998,-43094.475,-77402.97,-48840.03,-9078.48,-16307.144999999999,7570.17,-62458.695,0.8550113731513019,3.3085182435444427,3.079907244781428,2.784510065085562,2.478931371870746,1.49811870594185,-3.3356995755270393,-1.791065109045578,0.33776769,-0.90221937,0.32220376500000003,-21.5166,-13.505099999999999,7.2332399999999994,68.0
1774823454.354949,0.0048978328704833984,2026-03-29T22:30:54.354,2026-03-29T18:30:54.354,-22479.75,-43100.189999999995,-77398.515,-48836.205,-9070.83,-16298.73,7567.965,-62487.99,0.3547758499793655,1.6520235801430476,1.3977818116724707,1.5790914242126157,2.212792763913401,2.96255677740057,-0.22299963161549216,-1.047558641327723,0.33776769,-0.90221937,0.32220376500000003,-21.5166,-13.505099999999999,7.2332399999999994,68.0
1774823454.3549798,3.075599670410156e-05,2026-03-29T22:30:54.354,2026-03-29T18:30:54.354,-22475.52,-43100.865,-77403.33,-48847.905,-9084.15,-16311.914999999999,7548.4349999999995,-62491.454999999994,-0.46106439150402817,-0.9656615278215139,-1.1816112003524024,-0.47663513769244875,0.8565209977770758,2.9802292497198373,2.544348640035416,0.09523719949186653,0.33776769,-0.90221937,0.32220376500000003,-21.5166,-13.505099999999999,7.2332399999999994,68.0
1774823454.36072,0.005740165710449219,2026-03-29T22:30:54.360,2026-03-29T18:30:54.360,-22443.795,-43092.945,-77403.555,-48847.14,-9085.005,-16315.199999999999,7542.134999999999,-62459.595,-1.2164435968557978,-3.2090887102627907,-3.3515884101997466,-2.471459370301416,-0.9644504732383364,1.5770239445166105,3.8873100441112403,1.0474939425161098,0.33776769,-0.90221937,0.32220376500000003,-21.5166,-13.505099999999999,7.2332399999999994,68.0
1774823454.360741,2.09808349609375e-05,2026-03-29T22:30:54.360,2026-03-29T18:30:54.360,-22426.379999999997,-43085.475,-77393.655,-48844.575,-9081.359999999999,-16312.23,7571.07,-62432.28,-1.4922075261009426,-3.8822236432196147,-3.932775731893071,-3.4451316498067257,-2.3724581152985937,-0.5372518962628299,3.4973276103920785,1.3737010633159468,0.33776769,-0.90221937,0.32220376500000003,-21.5166,-13.505099999999999,7.2332399999999994,68.0
1774823454.360765,2.4080276489257812e-05,2026-03-29T22:30:54.360,2026-03-29T18:30:54.360,-22452.84,-43089.975,-77390.595,-48839.985,-9077.265,-16311.734999999999,7598.295,-62445.735,-1.056284120629614,-2.5588032670892105,-2.5022760604309684,-2.8505589271460585,-2.659115979127455,-2.322744798174136,1.8463209240354417,0.994121187630608,0.33776769,-0.90221937,0.32220376500000003,-21.5166,-13.505099999999999,7.2332399999999994,68.0
1774823454.3607757,1.0728836059570312e-05,2026-03-29T22:30:54.360,2026-03-29T18:30:54.360,-22470.03,-43083.45,-77379.61499999999,-48828.33,-9068.22,-16302.96,7597.485,-62474.085,-0.02223021828941623,0.1653310014611218,0.33862785160506187,-0.854123981414926,-1.6416796139116805,-2.9210061852674567,-0.1591006968324223,0.18976428343469423,0.33776769,-0.90221937,0.32220376500000003,-21.5166,-13.505099999999999,7.2332399999999994,68.0
1774823454.368092,0.0073163509368896484,2026-03-29T22:30:54.368,2026-03-29T18:30:54.368,-22464.675,-43079.4,-77374.98,-48822.435,-9062.505,-16293.015,7591.455,-62475.479999999996,1.1624888451649844,2.941832075512793,3.2167299682475194,1.688516996516177,0.22551850982884647,-2.0719351166814373,-1.6624780378106885,-0.5772031364521932,0.33776769,-0.90221937,0.32220376500000003,-21.5166,-13.505099999999999,7.2332399999999994,68.0
1774823454.3681064,1.430511474609375e-05,2026-03-29T22:30:54.368,2026-03-29T18:30:54.368,-22450.905,-43083.765,-77390.595,-48836.564999999995,-9071.055,-16295.49,7591.005,-62461.259999999995,1.9123625243042268,4.3390692917629305,4.654047054745376,3.5962078395619805,2.0507008819702834,-0.2316287348104677,-2.226265560837339,-0.9207902740259024,0.33776769,-0.90221937,0.32220376500000003,-21.5166,-13.505099999999999,7.2332399999999994,68.0
1774823454.3719523,0.0038459300994873047,2026-03-29T22:30:54.371,2026-03-29T18:30:54.371,-22457.565,-43089.705,-77392.75499999999,-48837.6,-9071.1,-16297.515,7588.98,-62465.895,1.7972354232005412,3.5779403945059527,3.824321985351479,3.912811102769701,2.929287809381499,1.664554153625383,-1.9238979285825806,-0.7254732545512503,0.349791585,-0.916196385,0.309752625,-14.00868,-16.862299999999998,7.73682,68.0
1774823454.371964,1.1682510375976562e-05,2026-03-29T22:30:54.371,2026-03-29T18:30:54.371,-22472.64,-43089.705,-77382.9,-48824.145,-9059.265,-16294.859999999999,7585.0199999999995,-62483.895,0.7847663565046773,0.9566579416215714,1.0123033880380443,2.386861266732898,2.3915107234163684,2.673169093894801,-1.16006548244221,-0.17897603199027115,0.349791585,-0.916196385,0.309752625,-14.00868,-16.862299999999998,7.73682,68.0
1774823454.3752978,0.0033338069915771484,2026-03-29T22:30:54.375,2026-03-29T18:30:54.375,-22472.235,-43090.56,-77385.825,-48830.13,-9068.895,-16309.17,7581.78,-62485.47,-0.7027798042681687,-2.2639676236422375,-2.4743897821379823,-0.36095445930552966,0.6511949704298385,2.3118564928543575,-0.3667849742713734,0.36213294974600696,0.349791585,-0.916196385,0.309752625,-14.00868,-16.862299999999998,7.73682,68.0
1774823454.3753111,1.33514404296875e-05,2026-03-29T22:30:54.375,2026-03-29T18:30:54.375,-22468.454999999998,-43096.185,-77395.5,-48839.13,-9077.265,-16312.68,7574.04,-62479.845,-1.9644001698425815,-4.47220883698999,-4.920012234061515,-3.085598010287181,-1.4755562611370876,0.7928214128689851,0.23163765353331428,0.5884698538000727,0.349791585,-0.916196385,0.309752625,-14.00868,-16.862299999999998,7.73682,68.0
1774823454.37903,0.003718852996826172,2026-03-29T22:30:54.379,2026-03-29T18:30:54.379,-22457.969999999998,-43090.65,-77390.45999999999,-48829.59,-9063.09,-16288.289999999999,7575.929999999999,-62468.865,-2.356025077081034,-4.515167373452872,-5.050333202102802,-4.484846918700201,-2.9532682515553086,-1.0937607603425334,0.659553633714512,0.409833086106299,0.349791585,-0.916196385,0.309752625,-14.00868,-16.862299999999998,7.73682,68.0
1774823454.379048,1.811981201171875e-05,2026-03-29T22:30:54.379,2026-03-29T18:30:54.379,-22473.719999999998,-43091.549999999996,-77385.23999999999,-48822.884999999995,-9056.205,-16283.835,7578.134999999999,-62492.49,-1.623135214003925,-2.2982514869478465,-2.69404116420609,-3.826087902282424,-3.031694782190994,-2.3848145733253,1.0454605417373888,-0.011267123809226579,0.349791585,-0.916196385,0.309752625,-14.00868,-16.862299999999998,7.73682,68.0
1774823454.3821583,0.003110170364379883,2026-03-29T22:30:54.382,2026-03-29T18:30:54.382,-22480.065,-43085.205,-77374.53,-48819.195,-9055.484999999999,-16290.404999999999,7568.73,-62507.52,-0.05729357132331673,1.1367620533683822,1.0868584574520128,-1.3287416062334634,-1.6255247913807798,-2.432087801691345,1.4184350138034219,-0.37611096505526126,0.349791585,-0.916196385,0.309752625,-14.00868,-16.862299999999998,7.73682,68.0
1774823454.3821712,1.2874603271484375e-05,2026-03-29T22:30:54.382,2026-03-29T18:30:54.382,-22467.465,-43081.965,-77374.485,-48820.545,-9057.015,-16291.17,7566.4349999999995,-62493.975,1.61623186215545,4.107604455545429,4.48244252264748,1.8973299157294845,0.6230669709227854,-1.226549206770283,1.604310325851319,-0.4412869338541053,0.349791585,-0.916196385,0.309752625,-14.00868,-16.862299999999998,7.73682,68.0
1774823454.3906333,0.008462190628051758,2026-03-29T22:30:54.390,2026-03-29T18:30:54.390,-22470.48,-43085.79,-77375.43,-48820.005,-9054.315,-16283.34,7580.835,-62495.235,2.5787294106692076,5.122786860129449,5.8115365605117,4.348304617657884,2.6393365574500933,0.6028000977296875,1.3098951930798106,-0.1690355939498814,0.349791585,-0.916196385,0.309752625,-14.00868,-16.862299999999998,7.73682,68.0
1774823454.3906631,2.9802322387695312e-05,2026-03-29T22:30:54.390,2026-03-29T18:30:54.390,-22478.805,-43095.104999999996,-77381.01,-48826.259999999995,-9062.1,-16292.88,7603.74,-62495.189999999995,2.324821978296627,3.634385458273306,4.360666921355159,4.834393101695173,3.4322611416880098,2.112968390296373,0.353806838369264,0.2528196851140918,0.349791585,-0.916196385,0.309752625,-14.00868,-16.862299999999998,7.73682,68.0
1774823454.3961408,0.0054776668548583984,2026-03-29T22:30:54.396,2026-03-29T18:30:54.396,-22471.965,-43093.125,-77381.145,-48826.799999999996,-9064.935,-16298.46,7595.009999999999,-62489.159999999996,0.931251617424103,0.33050150522955385,0.7636094259789952,3.062709553893044,2.582773093292231,2.528275772115585,-1.1067904479479156,0.5318477537846775,0.35485749,-0.906552855,0.290953845,-12.78788,-28.44464,10.1479,68.0
1774823454.396166,2.5272369384765625e-05,2026-03-29T22:30:54.396,2026-03-29T18:30:54.396,-22461.165,-43083.99,-77369.67,-48814.965,-9054.315,-16285.14,7589.835,-62475.119999999995,-0.9562738365092661,-3.1878255300193947,-3.2795195953532823,-0.1932458078861415,0.4624235413776517,1.6346810143410728,-2.5234454434923217,0.4588384281445152,0.35485749,-0.906552855,0.290953845,-12.78788,-28.44464,10.1479,68.0
1774823454.3961883,2.2172927856445312e-05,2026-03-29T22:30:54.396,2026-03-29T18:30:54.396,-22458.555,-43080.525,-77360.48999999999,-48808.979999999996,-9053.055,-16284.195,7592.085,-62468.685,-2.4242379484554513,-5.191660655136423,-5.817673598412027,-3.433470438148965,-1.9310173406731423,-0.1121763930073131,-3.158216873011928,0.04751564803578328,0.35485749,-0.906552855,0.290953845,-12.78788,-28.44464,10.1479,68.0
1774823454.396195,6.67572021484375e-06,2026-03-29T22:30:54.396,2026-03-29T18:30:54.396,-22463.504999999997,-43085.564999999995,-77367.78,-48813.479999999996,-9052.605,-16285.769999999999,7586.37,-62481.195,-2.7392912952968995,-4.682467601872072,-5.602736508757901,-5.130689734761604,-3.4476294545643884,-1.8191338777168422,-2.4683458485038394,-0.4616564264514492,0.35485749,-0.906552855,0.290953845,-12.78788,-28.44464,10.1479,68.0
1774823454.397996,0.0018010139465332031,2026-03-29T22:30:54.397,2026-03-29T18:30:54.397,-22465.62,-43087.68,-77374.44,-48819.915,-9055.08,-16289.685,7581.105,-62488.35,-1.7210490220176697,-1.8938385781829565,-2.710095923738511,-4.459279299935356,-3.3417716849795442,-2.609631651658475,-0.47376982617490204,-0.7410189424970737,0.35485749,-0.906552855,0.290953845,-12.78788,-28.44464,10.1479,68.0
1774823454.3980076,1.1682510375976562e-05,2026-03-29T22:30:54.398,2026-03-29T18:30:54.398,-22459.32,-43082.729999999996,-77376.19499999999,-48823.65,-9056.699999999999,-16290.585,7581.105,-62485.38,0.15218425508934516,1.817415077722645,1.4858498524316823,-1.7016825047232689,-1.639588355820169,-2.069640729927271,2.117322674119667,-0.578900773104472,0.35485749,-0.906552855,0.290953845,-12.78788,-28.44464,10.1479,68.0
1774823454.4025002,0.004492521286010742,2026-03-29T22:30:54.402,2026-03-29T18:30:54.402,-22449.51,-43073.055,-77363.81999999999,-48816.81,-9058.095,-16295.039999999999,7577.235,-62478.045,1.9669283770021297,4.639544177659349,4.97491191817928,1.8702073805045845,0.8643641518069332,-0.45978829741595323,4.144493424635047,-0.024303485921592347,0.35485749,-0.906552855,0.290953845,-12.78788,-28.44464,10.1479,68.0
1774823454.4025204,2.0265579223632812e-05,2026-03-29T22:30:54.402,2026-03-29T18:30:54.402,-22441.004999999997,-43063.695,-77352.56999999999,-48809.295,-9056.789999999999,-16298.82,7571.384999999999,-62475.57,2.823395248153012,5.201111618449172,6.088874752781092,4.589399595054144,2.983369688096496,1.4135444942948905,4.523211425892938,0.6198626805556359,0.35485749,-0.906552855,0.290953845,-12.78788,-28.44464,10.1479,68.0
1774823454.4060023,0.0034818649291992188,2026-03-29T22:30:54.406,2026-03-29T18:30:54.406,-22435.335,-43058.295,-77347.62,-48798.854999999996,-9038.744999999999,-16275.779999999999,7589.384999999999,-62471.475,2.287771307033121,3.2462963658037807,4.311883760970295,5.182781343476036,3.7072184066062515,2.6032296932489776,2.8212769342510025,0.9614506452215285,0.35485749,-0.906552855,0.290953845,-12.78788,-28.44464,10.1479,68.0
1774823454.4060175,1.52587890625e-05,2026-03-29T22:30:54.406,2026-03-29T18:30:54.406,-22446.495,-43074.81,-77360.805,-48794.805,-9030.734999999999,-16264.305,7597.9349999999995,-62473.454999999994,0.6182186770723651,-0.24615906607912377,0.5240318130896127,3.3762260856709174,2.6879070286049993,2.4985657768637273,-0.42081774053482335,0.7529348358751317,0.35485749,-0.906552855,0.290953845,-12.78788,-28.44464,10.1479,68.0
1774823454.410394,0.004376411437988281,2026-03-29T22:30:54.410,2026-03-29T18:30:54.410,-22478.04,-43117.47,-77412.42,-48830.85,-9065.565,-16297.38,7580.429999999999,-62491.5,-1.355309313750667,-3.5569596586751935,-3.4393278959572045,0.02387785192015038,0.4067796570676646,1.1346270196785417,-3.8306764506642943,0.05785586215320216,0.361998585,-0.900449355,0.28112721,-10.86512,-34.38078,14.0392,68.0
1774823454.4104216,2.765655517578125e-05,2026-03-29T22:30:54.410,2026-03-29T18:30:54.410,-22477.23,-43114.68,-77418.405,-48848.67,-9081.045,-16310.115,7590.014999999999,-62491.994999999995,-2.643248927776759,-5.082398581202064,-5.690148128492191,-3.300864728767745,-2.057371274035803,-0.8215854389590624,-5.789788084025104,-0.7562895427407559,0.361998585,-0.900449355,0.28112721,-10.86512,-34.38078,14.0392,68.0
1774823454.4147687,0.004347085952758789,2026-03-29T22:30:54.414,2026-03-29T18:30:54.414,-22467.69,-43100.82,-77403.15,-48843.854999999996,-9076.32,-16307.01,7586.415,-62487.134999999995,-2.595947078650379,-4.122267319267436,-5.20269194993908,-5.054660144613029,-3.5456441241335095,-2.4013080028942118,-5.2121256487897885,-1.2092589428344451,0.361998585,-0.900449355,0.28112721,-10.86512,-34.38078,14.0392,68.0
1774823454.414785,1.621246337890625e-05,2026-03-29T22:30:54.414,2026-03-29T18:30:54.414,-22472.73,-43104.195,-77397.93,-48839.58,-9075.465,-16310.97,7579.3949999999995,-62490.465,-1.2370610802529527,-1.2076536006743488,-2.2906298860535728,-4.452091645853824,-3.3705414875080564,-2.8154375166546597,-2.136839095906028,-0.9852453691946648,0.361998585,-0.900449355,0.28112721,-10.86512,-34.38078,14.0392,68.0
1774823454.4182725,0.0034875869750976562,2026-03-29T22:30:54.418,2026-03-29T18:30:54.418,-22472.684999999998,-43102.665,-77396.94,-48845.43,-9078.975,-16311.689999999999,7581.42,-62491.32,0.7422864962438882,2.187799203168953,1.5803188378024229,-1.823463931786635,-1.636193269905666,-1.8471818710660801,2.1843253639517823,-0.1389826026123572,0.361998585,-0.900449355,0.28112721,-10.86512,-34.38078,14.0392,68.0
1774823454.418298,2.5510787963867188e-05,2026-03-29T22:30:54.418,2026-03-29T18:30:54.418,-22466.745,-43095.015,-77391.855,-48841.92,-9076.185,-16309.035,7579.755,-62491.365,2.3307900002683266,4.398111212845516,4.537156966955631,1.5635007817511324,0.8231790662898374,0.038986493933751684,5.79455771198289,0.8975541844848581,0.361998585,-0.900449355,0.28112721,-10.86512,-34.38078,14.0392,68.0
1774823454.4223464,0.004048347473144531,2026-03-29T22:30:54.422,2026-03-29T18:30:54.422,-22458.195,-43088.49,-77382.72,-48826.395,-9062.414999999999,-16299.135,7582.049999999999,-62486.235,2.712539626595439,4.3926338285759075,5.220533238318875,4.122945778191769,2.8506618432945134,1.9252231205324886,6.929776737024724,1.5302553087575252,0.361998585,-0.900449355,0.28112721,-10.86512,-34.38078,14.0392,68.0
1774823454.422366,1.9550323486328125e-05,2026-03-29T22:30:54.422,2026-03-29T18:30:54.422,-22459.635,-43094.295,-77386.68,-48827.115,-9070.154999999999,-16314.525,7579.035,-62486.1,1.6883321639889655,2.2656213054522616,3.4226503319915826,4.705157678831064,3.518303214589285,2.89111338603681,4.889565747130418,1.334767811694128,0.361998585,-0.900449355,0.28112721,-10.86512,-34.38078,14.0392,68.0
1774823454.426299,0.0039331912994384766,2026-03-29T22:30:54.426,2026-03-29T18:30:54.426,-22460.129999999997,-43092.99,-77383.305,-48822.57,-9062.234999999999,-16302.869999999999,7575.255,-62486.46,-0.21557914738430026,-0.8488568207691761,0.1367744881765232,3.1217189202825955,2.5566358233809017,2.4642087361458462,0.44781629228467923,0.32313900189196454,0.361998585,-0.900449355,0.28112721,-10.86512,-34.38078,14.0392,68.0
1774823454.4263167,1.7642974853515625e-05,2026-03-29T22:30:54.426,2026-03-29T18:30:54.426,-22463.19,-43090.424999999996,-77385.42,-48829.95,-9058.994999999999,-16288.38,7570.844999999999,-62487.765,-2.011955309757332,-3.3781422417491482,-2.9842678162844667,0.19751581920421887,0.46106896726418095,0.8491481292996764,-4.429628771602067,-1.0153233406530922,0.361998585,-0.900449355,0.28112721,-10.86512,-34.38078,14.0392,68.0
1774823454.4303925,0.004075765609741211,2026-03-29T22:30:54.430,2026-03-29T18:30:54.430,-22472.145,-43099.875,-77402.295,-48853.575,-9082.395,-16312.23,7547.13,-62500.409999999996,-2.759233267313173,-4.1108307552010075,-4.468151548984243,-2.6589515730227813,-1.7653871601604414,-1.1749085162796995,-7.46355020818684,-1.9441977446077678,0.35974029,-0.896054835,0.28601001,-3.57084,-31.511899999999997,15.443119999999999,68.0
1774823454.43041,1.7404556274414062e-05,2026-03-29T22:30:54.430,2026-03-29T18:30:54.430,-22473.945,-43106.939999999995,-77409.54,-48854.7,-9088.065,-16322.085,7543.575,-62505.09,-2.0520008839478305,-2.7859782675479825,-3.731033089808954,-4.143038816904637,-3.0986103935158527,-2.6352280852679204,-7.13941653064178,-1.8755442419504307,0.35974029,-0.896054835,0.28601001,-3.57084,-31.511899999999997,15.443119999999999,68.0
1774823454.4344165,0.004006624221801758,2026-03-29T22:30:54.434,2026-03-29T18:30:54.434,-22457.565,-43088.715,-77387.08499999999,-48832.515,-9066.645,-16301.88,7582.905,-62492.265,-0.24086296965960918,-0.18116666581830476,-1.3069473422424793,-3.6596121269597237,-2.970260120021933,-2.8364126820662783,-3.4693537969839707,-0.7218148871922931,0.35974029,-0.896054835,0.28601001,-3.57084,-31.511899999999997,15.443119999999999,68.0
1774823454.43443,1.33514404296875e-05,2026-03-29T22:30:54.434,2026-03-29T18:30:54.434,-22458.87,-43086.555,-77380.065,-48826.215,-9064.125,-16301.07,7613.054999999999,-62485.064999999995,1.7371388257631994,2.327370118327701,1.4914287916198015,-1.5612112319646718,-1.5104356020715233,-1.6918808320047973,1.947367958179593,0.9992675746210429,0.35974029,-0.896054835,0.28601001,-3.57084,-31.511899999999997,15.443119999999999,68.0
1774823454.4382353,0.003805398941040039,2026-03-29T22:30:54.438,2026-03-29T18:30:54.438,-22466.295,-43092.405,-77386.545,-48828.645,-9066.824999999999,-16306.83,7586.594999999999,-62494.064999999995,2.836859716193522,3.489322953571066,3.2788603515597776,1.0762008132106509,0.5473943936929293,0.24207858482943687,6.624907024883792,2.389676581623875,0.35974029,-0.896054835,0.28601001,-3.57084,-31.511899999999997,15.443119999999999,68.0
1774823454.4382465,1.1205673217773438e-05,2026-03-29T22:30:54.438,2026-03-29T18:30:54.438,-22465.53,-43091.46,-77386.31999999999,-48820.725,-9054.404999999999,-16290.269999999999,7571.384999999999,-62494.47,2.449909962993186,2.8088499331775725,3.292384123759196,3.0064940051502846,2.237589922383747,2.041044338747704,8.343592341191682,2.6317233964934563,0.35974029,-0.896054835,0.28601001,-3.57084,-31.511899999999997,15.443119999999999,68.0
1774823454.444435,0.006188392639160156,2026-03-29T22:30:54.444,2026-03-29T18:30:54.444,-22463.415,-43090.604999999996,-77385.42,-48821.939999999995,-9056.52,-16289.955,7577.099999999999,-62490.375,0.734423007561121,0.7587398571098993,1.7223466441555386,3.4103075196243946,2.8205559920585452,2.858369584811316,6.2147480630827285,1.450740409770966,0.35974029,-0.896054835,0.28601001,-3.57084,-31.511899999999997,15.443119999999999,68.0
1774823454.444454,1.9073486328125e-05,2026-03-29T22:30:54.444,2026-03-29T18:30:54.444,-22456.53,-43087.994999999995,-77383.395,-48825.405,-9059.265,-16290.539999999999,7596.2699999999995,-62482.95,-1.4464685845213892,-1.5134472541444524,-0.46668242279028166,2.246041277438815,2.108315905969646,2.3254560382725105,1.1419230134730043,-0.6756630103844284,0.35974029,-0.896054835,0.28601001,-3.57084,-31.511899999999997,15.443119999999999,68.0
1774823454.4466815,0.0022275447845458984,2026-03-29T22:30:54.446,2026-03-29T18:30:54.446,-22465.215,-43096.095,-77391.315,-48833.729999999996,-9068.039999999999,-16299.314999999999,7593.4349999999995,-62490.06,-2.9550407521065742,-2.814733048428989,-2.099196815323832,0.20317218618363705,0.5135375171223339,0.7165788508921717,-4.560953029825613,-2.7002974815705993,0.35974029,-0.896054835,0.28601001,-3.57084,-31.511899999999997,15.443119999999999,68.0
1774823454.4466944,1.2874603271484375e-05,2026-03-29T22:30:54.446,2026-03-29T18:30:54.446,-22468.14,-43095.24,-77385.42,-48830.715,-9070.244999999999,-16304.445,7566.929999999999,-62494.92,-2.9645960836451164,-2.5308467354653,-2.4171017663727237,-1.6897588548567688,-1.1823988007873978,-1.1943862260391112,-8.233611772514688,-3.5172531204520205,0.35974029,-0.896054835,0.28601001,-3.57084,-31.511899999999997,15.443119999999999,68.0
1774823454.4505515,0.003857135772705078,2026-03-29T22:30:54.450,2026-03-29T18:30:54.450,-22466.295,-43092.99,-77385.51,-48829.095,-9067.904999999999,-16306.83,7551.99,-62497.034999999996,-1.4013109490943871,-0.9191566773215419,-1.438138357261249,-2.5850126227275676,-2.2142684445967453,-2.509499437675415,-8.122148008033955,-2.553266192769939,0.349181235,-0.87585225,0.289000725,-6.2566,-31.939179999999997,16.22138,68.0
1774823454.4505737,2.2172927856445312e-05,2026-03-29T22:30:54.450,2026-03-29T18:30:54.450,-22466.43,-43094.7,-77392.035,-48830.49,-9065.07,-16303.949999999999,7563.599999999999,-62499.104999999996,0.9900262267532994,1.0706194984967858,0.12809103027883698,-2.199582916401744,-2.180274409002735,-2.6308395622209955,-4.225191914502118,-0.1276594527185971,0.349181235,-0.87585225,0.289000725,-6.2566,-31.939179999999997,16.22138,68.0
1774823454.4541621,0.003588438034057617,2026-03-29T22:30:54.454,2026-03-29T18:30:54.454,-22464.18,-43093.395,-77395.545,-48836.295,-9067.68,-16300.574999999999,7595.505,-62493.795,3.001211666139307,2.3354948654582004,1.3320450293716048,-0.88748197808628,-1.193492649123147,-1.5320953189233313,1.6781026885052817,2.632255044865479,0.349181235,-0.87585225,0.289000725,-6.2566,-31.939179999999997,16.22138,68.0
1774823454.4541936,3.147125244140625e-05,2026-03-29T22:30:54.454,2026-03-29T18:30:54.454,-22465.844999999998,-43095.42,-77393.295,-48834.405,-9064.619999999999,-16291.98,7614.945,-62490.42,3.566733729989164,2.218935012125865,1.5342460982841242,0.6060524910148634,0.21617094814657273,0.2451345369308777,6.844755654720501,4.312800292397397,0.349181235,-0.87585225,0.289000725,-6.2566,-31.939179999999997,16.22138,68.0
1774823454.4587677,0.0045740604400634766,2026-03-29T22:30:54.458,2026-03-29T18:30:54.458,-22463.954999999998,-43092.45,-77389.69499999999,-48835.665,-9069.615,-16299.675,7600.995,-62490.869999999995,2.3177909689395264,0.8490107525253208,0.743360049542812,1.5554261367877082,1.3819192744830238,1.8598515842956302,8.851921032618966,3.931995127535187,0.349181235,-0.87585225,0.289000725,-6.2566,-31.939179999999997,16.22138,68.0
1774823454.4587932,2.5510787963867188e-05,2026-03-29T22:30:54.458,2026-03-29T18:30:54.458,-22460.715,-43089.57,-77389.47,-48830.67,-9065.43,-16298.099999999999,7589.924999999999,-62491.095,-0.2004060613745291,-0.9584376911814642,-0.4360373160565843,1.6082681742136649,1.815478689670225,2.5710204039107536,6.742575400008776,1.491100841061835,0.349181235,-0.87585225,0.289000725,-6.2566,-31.939179999999997,16.22138,68.0
1774823454.463644,0.004850864410400391,2026-03-29T22:30:54.463,2026-03-29T18:30:54.463,-22457.16,-43088.58,-77389.47,-48824.415,-9059.895,-16295.445,7580.384999999999,-62490.42,-2.769168443572947,-2.167471283977967,-1.198661150035834,0.9089456698831223,1.4089025734053038,2.077629280356477,1.4870338104260625,-1.9426390255199977,0.349181235,-0.87585225,0.289000725,-6.2566,-31.939179999999997,16.22138,68.0
1774823454.4636564,1.239776611328125e-05,2026-03-29T22:30:54.463,2026-03-29T18:30:54.463,-22456.395,-43090.83,-77389.02,-48824.865,-9060.57,-16298.64,7573.86,-62491.005,-4.087076977752288,-2.098583951901107,-1.036834420162371,-0.04652825849449684,0.44137923753152997,0.6438229622258179,-4.464062756346862,-4.700619967778282,0.349181235,-0.87585225,0.289000725,-6.2566,-31.939179999999997,16.22138,68.0
1774823454.4695654,0.005908966064453125,2026-03-29T22:30:54.469,2026-03-29T18:30:54.469,-22451.579999999998,-43091.775,-77390.45999999999,-48834.81,-9067.59,-16302.06,7581.42,-62485.155,-3.423596935590994,-0.7989202618916881,-0.04915934523436629,-0.7197235975380776,-0.5912071032583469,-1.0411739238202529,-8.328469658428613,-5.323599285146964,0.349181235,-0.87585225,0.289000725,-6.2566,-31.939179999999997,16.22138,68.0
1774823454.4695868,2.1457672119140625e-05,2026-03-29T22:30:54.469,2026-03-29T18:30:54.469,-22453.649999999998,-43095.555,-77397.12,-48838.545,-9072.18,-16306.425,7580.295,-62489.34,-1.008946050834371,0.9917900873909481,1.1193306295509347,-0.8222986159756339,-1.2257901351450442,-2.194300623230287,-8.301143216095342,-3.32410725500657,0.349181235,-0.87585225,0.289000725,-6.2566,-31.939179999999997,16.22138,68.0
1774823454.4725163,0.0029294490814208984,2026-03-29T22:30:54.472,2026-03-29T18:30:54.472,-22448.385,-43080.299999999996,-77380.065,-48824.369999999995,-9057.42,-16291.755,7578.179999999999,-62494.515,2.042837105176269,2.255663489624711,1.6697397682343227,-0.4365428111843667,-1.236869897657512,-2.3018710778218945,-4.403712430285786,0.4946682794226189,0.338683215,-0.86742942,0.285582765,-15.76358,-32.29016,20.188979999999997,68.0
1774823454.472537,2.0742416381835938e-05,2026-03-29T22:30:54.472,2026-03-29T18:30:54.472,-22434.75,-43063.29,-77359.31999999999,-48805.02,-9040.275,-16276.275,7592.085,-62483.22,4.253074243942913,2.2617052073958086,1.1451729619455018,0.08453432632789795,-0.7078075529205526,-1.3469183706355918,1.5277132757389205,4.355625641627766,0.338683215,-0.86742942,0.285582765,-15.76358,-32.29016,20.188979999999997,68.0
1774823454.475047,0.00251007080078125,2026-03-29T22:30:54.475,2026-03-29T18:30:54.475,-22446.225,-43073.28,-77368.095,-48810.915,-9048.645,-16286.265,7584.4349999999995,-62489.34,4.4951867547678175,0.9723265330608608,-0.26245109316069387,0.3610380132853786,0.04760629895242211,0.1987030723920027,6.710087710131141,6.338587360447476,0.338683215,-0.86742942,0.285582765,-15.76358,-32.29016,20.188979999999997,68.0
1774823454.4750624,1.52587890625e-05,2026-03-29T22:30:54.475,2026-03-29T18:30:54.475,-22452.614999999998,-43099.38,-77404.995,-48847.59,-9082.305,-16317.539999999999,7577.19,-62486.595,2.560904920061693,-0.9295687691330634,-1.7827405650197756,0.2230320000199449,0.6583903944320221,1.6058219282419968,8.724704707738951,5.334741756133443,0.338683215,-0.86742942,0.285582765,-15.76358,-32.29016,20.188979999999997,68.0
1774823454.4833016,0.008239269256591797,2026-03-29T22:30:54.483,2026-03-29T18:30:54.483,-22465.485,-43109.189999999995,-77415.84,-48858.255,-9087.795,-16319.744999999999,7590.78,-62500.545,-0.7059410403668076,-2.407210650043159,-2.488328021354591,-0.19660553590840327,0.8727447568172609,2.230022434085054,6.651605594906906,1.6498506377278748,0.338683215,-0.86742942,0.285582765,-15.76358,-32.29016,20.188979999999997,68.0
1774823454.4833283,2.6702880859375e-05,2026-03-29T22:30:54.483,2026-03-29T18:30:54.483,-22497.48,-43105.095,-77387.04,-48824.685,-9054.045,-16290.09,7594.11,-62545.905,-3.7842743327983195,-2.6317352176849544,-1.8372135398175018,-0.5604522541319312,0.6563224815122704,1.8048584602686841,1.4926254394651144,-3.06626029306649,0.338683215,-0.86742942,0.285582765,-15.76358,-32.29016,20.188979999999997,68.0
1774823454.4833546,2.6226043701171875e-05,2026-03-29T22:30:54.483,2026-03-29T18:30:54.483,-22482.945,-43095.915,-77378.48999999999,-48828.24,-9061.605,-16296.615,7590.0599999999995,-62536.005,-5.189237182108223,-1.435804442088751,-0.02696163635760718,-0.5506380867987928,0.1777204728825463,0.5540994238741275,-4.312421425713051,-6.563589362970648,0.338683215,-0.86742942,0.285582765,-15.76358,-32.29016,20.188979999999997,68.0
1774823454.4833653,1.0728836059570312e-05,2026-03-29T22:30:54.483,2026-03-29T18:30:54.483,-22471.875,-43091.64,-77381.28,-48831.345,-9066.824999999999,-16301.25,7582.634999999999,-62522.64,-4.186911978831608,0.5855381679901366,2.053853977905042,-0.08203092087819944,-0.29725375251749664,-0.9231136513684198,-8.042338316280139,-7.071283116513337,0.338683215,-0.86742942,0.285582765,-15.76358,-32.29016,20.188979999999997,68.0
1774823454.4878716,0.004506349563598633,2026-03-29T22:30:54.487,2026-03-29T18:30:54.487,-22467.555,-43089.39,-77381.955,-48828.42,-9064.08,-16297.695,7579.53,-62516.07,-1.1665225514914974,2.3819442541473754,3.272510792360993,0.6239632562672413,-0.5422316235374383,-1.9362072542871234,-7.973962195867424,-4.191618643042923,0.338683215,-0.86742942,0.285582765,-15.76358,-32.29016,20.188979999999997,68.0
1774823454.4879055,3.3855438232421875e-05,2026-03-29T22:30:54.487,2026-03-29T18:30:54.487,-22469.805,-43093.305,-77385.69,-48824.955,-9059.805,-16294.59,7582.634999999999,-62521.604999999996,2.514658603247872,2.9999622323953905,2.8681273204999975,1.152011325106617,-0.4714420581280795,-2.023071823077018,-4.180993943628201,0.8421514035870888,0.338683215,-0.86742942,0.285582765,-15.76358,-32.29016,20.188979999999997,68.0
1774823454.4976876,0.009782075881958008,2026-03-29T22:30:54.497,2026-03-29T18:30:54.497,-22468.86,-43096.5,-77382.09,-48821.759999999995,-9060.029999999999,-16296.39,7583.58,-62522.145,5.149240501668564,2.0874933236287516,0.9022182096998346,1.1310950027179556,-0.16356869758893525,-1.1593415760782377,1.5191414031536117,5.69754625216194,0.33227454,-0.87487569,0.27929616,-17.12172,-32.41224,23.1952,68.0
1774823454.4977136,2.5987625122070312e-05,2026-03-29T22:30:54.497,2026-03-29T18:30:54.497,-22464.809999999998,-43101.09,-77386.72499999999,-48831.57,-9071.1,-16305.164999999999,7578.674999999999,-62510.265,5.475219288771878,0.08391034185814894,-1.71464499534404,0.4639573662231457,0.19360572902854858,0.2367191024159387,6.436738487492185,8.03321167026611,0.33227454,-0.87487569,0.27929616,-17.12172,-32.41224,23.1952,68.0
1774823454.497735,2.1457672119140625e-05,2026-03-29T22:30:54.497,2026-03-29T18:30:54.497,-22464.765,-43104.195,-77395.00499999999,-48837.15,-9075.24,-16309.755,7575.57,-62505.81,3.2766126496613115,-2.003560984711428,-3.6571316197325734,-0.5852999158880403,0.4041612161553533,1.5033233468661389,8.280966215281673,6.633627596977441,0.33227454,-0.87487569,0.27929616,-17.12172,-32.41224,23.1952,68.0
1774823454.4977448,9.775161743164062e-06,2026-03-29T22:30:54.497,2026-03-29T18:30:54.497,-22469.579999999998,-43105.77,-77400.45,-48841.695,-9077.22,-16312.68,7570.304999999999,-62516.97,-0.4951296711128162,-3.1184863463505663,-3.8675752346122882,-1.502827722392582,0.3604875247920929,2.045016622053452,6.228807686530732,2.0353579572814358,0.33227454,-0.87487569,0.27929616,-17.12172,-32.41224,23.1952,68.0
1774823454.4996135,0.0018687248229980469,2026-03-29T22:30:54.499,2026-03-29T18:30:54.499,-22484.79,-43095.555,-77384.745,-48815.325,-9049.275,-16287.029999999999,7585.875,-62544.869999999995,-4.141200158015842,-2.696886941637703,-2.1306029895715968,-1.7844385415303465,0.09188631441125128,1.610100127828729,1.2921910256364282,-3.6757555824428305,0.33227454,-0.87487569,0.27929616,-17.12172,-32.41224,23.1952,68.0
1774823454.4996245,1.0967254638671875e-05,2026-03-29T22:30:54.499,2026-03-29T18:30:54.499,-22477.094999999998,-43086.689999999995,-77375.565,-48811.994999999995,-9044.685,-16283.564999999999,7589.205,-62539.829999999994,-5.987316448258192,-0.9511987912319716,0.7715904557317592,-1.2085650742994316,-0.25372212996772026,0.40766774469133915,-4.1801137695551445,-7.821356346378673,0.33227454,-0.87487569,0.27929616,-17.12172,-32.41224,23.1952,68.0
1774823454.5022354,0.002610921859741211,2026-03-29T22:30:54.502,2026-03-29T18:30:54.502,-22465.89,-43081.92,-77369.265,-48817.17,-9050.355,-16289.234999999999,7577.505,-62531.415,-5.153542464270258,1.2461514230238453,3.4218869094379896,0.023494691872117654,-0.48399265513560763,-0.9901655949706613,-7.620652614019951,-8.397476143876915,0.33227454,-0.87487569,0.27929616,-17.12172,-32.41224,23.1952,68.0
1774823454.5022476,1.2159347534179688e-05,2026-03-29T22:30:54.502,2026-03-29T18:30:54.502,-22462.379999999997,-43082.055,-77370.48,-48820.59,-9057.914999999999,-16296.795,7573.679999999999,-62526.869999999995,-1.967695562808579,2.8125053326113716,4.475696373436025,1.3605082079632822,-0.45766741698935975,-1.9164404060124967,-7.448561569191561,-5.047242023924927,0.33227454,-0.87487569,0.27929616,-17.12172,-32.41224,23.1952,68.0
1774823454.5078316,0.005584001541137695,2026-03-29T22:30:54.507,2026-03-29T18:30:54.507,-22470.03,-43091.909999999996,-77383.08,-48834.99,-9071.955,-16313.355,7576.245,-62534.88,2.1692484165016817,3.0007516783715578,3.353376871185953,2.158463043618697,-0.15818604433574635,-1.9241737227071474,-3.7956839988864313,0.7348187093978732,0.33227454,-0.87487569,0.27929616,-17.12172,-32.41224,23.1952,68.0
1774823454.50785,1.8358230590820312e-05,2026-03-29T22:30:54.507,2026-03-29T18:30:54.507,-22468.545,-43089.93,-77378.44499999999,-48827.835,-9063.9,-16309.71,7579.215,-62533.215,5.407033860598747,1.7608118074400627,0.5568971629483002,1.9969252062828273,0.2888630171569495,-1.000808111444705,1.5797734566414094,6.278731609092491,0.33227454,-0.87487569,0.27929616,-17.12172,-32.41224,23.1952,68.0
1774823454.5102675,0.0024175643920898438,2026-03-29T22:30:54.510,2026-03-29T18:30:54.510,-22464.629999999997,-43085.744999999995,-77369.58,-48821.715,-9055.89,-16295.22,7580.295,-62528.895,6.277791587878499,-0.26038686735599864,-2.5612747207373374,0.8965980751908803,0.6655403199166077,0.42012043013671374,6.1395534216841074,8.985240083673384,0.33129798,-0.882993345,0.271910925,-18.29674,-32.824259999999995,26.033559999999998,68.0
1774823454.510288,2.0503997802734375e-05,2026-03-29T22:30:54.510,2026-03-29T18:30:54.510,-22467.195,-43095.6,-77381.01,-48828.24,-9055.664999999999,-16283.519999999999,7591.23,-62527.32,4.359955630703946,-2.06665002462456,-4.4673415293787455,-0.6729069258788641,0.7606697828798914,1.6591797247946154,7.763946162765906,7.5544615670486355,0.33129798,-0.882993345,0.271910925,-18.29674,-32.824259999999995,26.033559999999998,68.0
1774823454.5145757,0.0042877197265625,2026-03-29T22:30:54.514,2026-03-29T18:30:54.514,-22466.07,-43100.775,-77391.765,-48832.965,-9061.74,-16293.195,7593.12,-62527.545,0.4751154665506651,-2.8174847770991427,-4.215637424277481,-2.003102990583374,0.4765463628297434,2.1123943692372946,5.736450897039865,2.6116188868592256,0.33129798,-0.882993345,0.271910925,-18.29674,-32.824259999999995,26.033559999999998,68.0
1774823454.5145912,1.5497207641601562e-05,2026-03-29T22:30:54.514,2026-03-29T18:30:54.514,-22465.44,-43098.39,-77396.04,-48840.525,-9069.345,-16301.789999999999,7585.245,-62535.329999999994,-3.670960333396768,-2.2285900226957116,-1.9259424210413403,-2.4755096546832913,-0.1065646387058691,1.5433969431289578,1.057404569304357,-3.5721903453492607,0.33129798,-0.882993345,0.271910925,-18.29674,-32.824259999999995,26.033559999999998,68.0
1774823454.5190713,0.004480123519897461,2026-03-29T22:30:54.519,2026-03-29T18:30:54.519,-22465.485,-43098.03,-77394.51,-48838.68,-9066.15,-16302.105,7564.679999999999,-62542.215,-6.2428487342423145,-0.6728399091888403,1.275597281033033,-1.852528370984657,-0.7445651331821896,0.20591528748460514,-4.049349175882461,-8.136611343550403,0.33129798,-0.882993345,0.271910925,-18.29674,-32.824259999999995,26.033559999999998,68.0
1774823454.519089,1.7642974853515625e-05,2026-03-29T22:30:54.519,2026-03-29T18:30:54.519,-22465.62,-43096.365,-77388.93,-48833.369999999995,-9063.494999999999,-16303.275,7546.634999999999,-62545.59,-6.089436454766821,1.049776652058843,3.821661101921282,-0.39225114625855384,-1.1264686761147615,-1.2667757604510437,-7.1933778724699415,-8.968480587835932,0.33129798,-0.882993345,0.271910925,-18.29674,-32.824259999999995,26.033559999999998,68.0
1774823454.5246277,0.0055387020111083984,2026-03-29T22:30:54.524,2026-03-29T18:30:54.524,-22472.1,-43099.695,-77388.61499999999,-48834.134999999995,-9065.654999999999,-16306.199999999999,7556.67,-62547.03,-3.2560878118957106,2.1344312750508854,4.48632792929377,1.266069610944865,-1.0189674385280305,-2.158880877913691,-6.935677942147118,-5.687570888944048,0.33129798,-0.882993345,0.271910925,-18.29674,-32.824259999999995,26.033559999999998,68.0
1774823454.5246468,1.9073486328125e-05,2026-03-29T22:30:54.524,2026-03-29T18:30:54.524,-22471.875,-43097.31,-77389.245,-48832.38,-9062.414999999999,-16299.81,7586.28,-62543.79,1.0311251245529294,2.159001582316393,2.9875713634285326,2.3907907685180403,-0.3946332206501138,-2.017701081548562,-3.4452459371032695,0.1816178036049509,0.33129798,-0.882993345,0.271910925,-18.29674,-32.824259999999995,26.033559999999998,68.0
1774823454.5262773,0.001630544662475586,2026-03-29T22:30:54.526,2026-03-29T18:30:54.526,-22463.504999999997,-43095.645,-77390.01,-48825.945,-9053.64,-16291.08,7610.535,-62537.85,4.901336861521517,1.2451988250759851,0.10825518053835587,2.4860492009735964,0.522381550596512,-0.8818786192945609,1.604318751653589,5.928713136694344,0.33129798,-0.882993345,0.271910925,-18.29674,-32.824259999999995,26.033559999999998,68.0
1774823454.5262878,1.049041748046875e-05,2026-03-29T22:30:54.526,2026-03-29T18:30:54.526,-22460.94,-43097.13,-77390.055,-48818.835,-9050.895,-16291.08,7599.735,-62534.34,6.658367798976654,-0.06617878592531266,-2.716666353234111,1.5098068706868366,1.3288047071934537,0.7224587627626677,5.837513783910485,8.923322530615653,0.33129798,-0.882993345,0.271910925,-18.29674,-32.824259999999995,26.033559999999998,68.0
1774823454.5304408,0.004153013229370117,2026-03-29T22:30:54.530,2026-03-29T18:30:54.530,-22458.69,-43103.564999999995,-77402.295,-48822.93,-9054.27,-16296.029999999999,7590.509999999999,-62536.77,5.523836159463303,-1.1324671101597215,-4.127239553367628,-0.11331515730347491,1.614983164642848,2.023518034798739,7.29372602970107,7.83025218390883,0.3308097,-0.89831313,0.265441215,-19.136039999999998,-33.068419999999996,28.307299999999998,68.0
1774823454.5304625,2.1696090698242188e-05,2026-03-29T22:30:54.530,2026-03-29T18:30:54.530,-22464.09,-43110.63,-77411.205,-48837.06,-9060.93,-16301.789999999999,7580.07,-62541.63,1.9789359423970594,-1.5345979126832687,-3.5061451091215914,-1.6842355618240061,1.1666818469776008,2.3736500826428393,5.33338335934127,3.207527568028847,0.3308097,-0.89831313,0.265441215,-19.136039999999998,-33.068419999999996,28.307299999999998,68.0
1774823454.539015,0.00855255126953125,2026-03-29T22:30:54.539,2026-03-29T18:30:54.539,-22469.85,-43093.215,-77379.165,-48822.615,-9045.765,-16285.545,7588.9349999999995,-62545.545,-2.443539778677416,-1.2417108081402677,-1.253342522175592,-2.535766221684573,0.0990393138374626,1.5706413385427718,0.9156306296210179,-2.78180347937613,0.3308097,-0.89831313,0.265441215,-19.136039999999998,-33.068419999999996,28.307299999999998,68.0
1774823454.5390408,2.574920654296875e-05,2026-03-29T22:30:54.539,2026-03-29T18:30:54.539,-22471.605,-43085.924999999996,-77370.12,-48835.845,-9061.605,-16297.47,7579.53,-62554.905,-5.825263904199972,-0.5504628508004973,1.4564162855168263,-2.3164126653342128,-1.1544586696835692,-0.028644354498456565,-3.8712564110119976,-7.394037764593015,0.3308097,-0.89831313,0.265441215,-19.136039999999998,-33.068419999999996,28.307299999999998,68.0
1774823454.5390654,2.4557113647460938e-05,2026-03-29T22:30:54.539,2026-03-29T18:30:54.539,-22468.95,-43088.939999999995,-77377.14,-48836.07,-9069.164999999999,-16308.135,7565.804999999999,-62555.354999999996,-6.695962608813166,0.13573628925538508,3.2909952535906397,-1.1312325868974549,-2.012920004150753,-1.665240974036627,-6.796652593645147,-8.574786450055583,0.3308097,-0.89831313,0.265441215,-19.136039999999998,-33.068419999999996,28.307299999999998,68.0
1774823454.539076,1.0728836059570312e-05,2026-03-29T22:30:54.539,2026-03-29T18:30:54.539,-22468.004999999997,-43087.994999999995,-77372.81999999999,-48824.64,-9061.965,-16302.914999999999,7574.13,-62550.585,-4.67213619966317,0.5416496125123292,3.426403290473708,0.5136756825824008,-2.014907324854806,-2.5378339064172706,-6.525467374331151,-5.88080990040553,0.3308097,-0.89831313,0.265441215,-19.136039999999998,-33.068419999999996,28.307299999999998,68.0
1774823454.5450149,0.00593876838684082,2026-03-29T22:30:54.545,2026-03-29T18:30:54.545,-22465.844999999998,-43088.939999999995,-77372.955,-48821.534999999996,-9055.44,-16293.015,7598.565,-62543.52,-0.6240525631377093,0.6333577317479743,1.9231120916061208,1.9313464916796517,-1.05997390499797,-2.195149586027962,-3.2250617852269046,-0.6370584014244137,0.3308097,-0.89831313,0.265441215,-19.136039999999998,-33.068419999999996,28.307299999999998,68.0
1774823454.5450344,1.9550323486328125e-05,2026-03-29T22:30:54.545,2026-03-29T18:30:54.545,-22462.829999999998,-43091.189999999995,-77381.19,-48827.52,-9054.945,-16291.305,7608.509999999999,-62541.674999999996,3.7007894097523057,0.5617068734265047,-0.36154130078391994,2.540928527010223,0.4993196518050592,-0.7687349535005386,1.53341177845481,4.7209924511626165,0.3308097,-0.89831313,0.265441215,-19.136039999999998,-33.068419999999996,28.307299999999998,68.0
1774823454.5450492,1.4781951904296875e-05,2026-03-29T22:30:54.545,2026-03-29T18:30:54.545,-22463.19,-43096.635,-77394.825,-48840.57,-9064.935,-16299.99,7591.139999999999,-62548.56,6.434042702247255,0.4971475781251798,-2.25454656224128,2.102014784496632,1.9789834810840727,1.0739606405625977,5.522865902151844,7.79072232831481,0.3308097,-0.89831313,0.265441215,-19.136039999999998,-33.068419999999996,28.307299999999998,68.0
1774823454.5450535,4.291534423828125e-06,2026-03-29T22:30:54.545,2026-03-29T18:30:54.545,-22464.675,-43100.865,-77395.59,-48843.63,-9071.775,-16306.019999999999,7578.2699999999995,-62549.1,6.394920505450594,0.4804582520694429,-2.8744761472584113,0.8045420045780923,2.6626368402335268,2.44206726952316,6.901486211105606,7.2892217046875984,0.3308097,-0.89831313,0.265441215,-19.136039999999998,-33.068419999999996,28.307299999999998,68.0
1774823454.5527694,0.007715940475463867,2026-03-29T22:30:54.552,2026-03-29T18:30:54.552,-22454.325,-43089.885,-77380.37999999999,-48836.159999999996,-9066.465,-16299.765,7586.594999999999,-62538.39,3.6006946539169298,0.394978237257464,-2.0479715316755276,-0.8158057753803865,2.1482955948499467,2.653286102647645,5.0612063349037175,3.5877181381699255,0.331847295,-0.91943124,0.257506665,-19.34968,-32.06126,28.82614,68.0
1774823454.55279,2.0503997802734375e-05,2026-03-29T22:30:54.552,2026-03-29T18:30:54.552,-22458.059999999998,-43093.665,-77389.47,-48846.24,-9072.359999999999,-16304.13,7588.575,-62543.34,-0.7414387833130205,0.07906799043616868,-0.3358187867966638,-2.0975790918024337,0.5751087474255098,1.5754224143293767,0.8936259682939337,-1.5278232973624777,0.331847295,-0.91943124,0.257506665,-19.34968,-32.06126,28.82614,68.0
1774823454.5528097,1.9788742065429688e-05,2026-03-29T22:30:54.552,2026-03-29T18:30:54.552,-22469.355,-43096.005,-77385.105,-48836.97,-9064.619999999999,-16297.56,7590.105,-62559.045,-4.757267696853992,-0.5015849678507892,1.316808427885651,-2.519530144138004,-1.3947126400867738,-0.29418551486684974,-3.6416971004167396,-5.725895363473377,0.331847295,-0.91943124,0.257506665,-19.34968,-32.06126,28.82614,68.0
1774823454.552814,4.291534423828125e-06,2026-03-29T22:30:54.552,2026-03-29T18:30:54.552,-22476.105,-43099.02,-77379.56999999999,-48825.045,-9058.545,-16292.07,7588.53,-62564.354999999996,-6.716540663392499,-1.149978079223114,2.0973604959541463,-1.9085649360988428,-2.852895014949098,-2.058040447583078,-6.437778881645859,-7.20215781709067,0.331847295,-0.91943124,0.257506665,-19.34968,-32.06126,28.82614,68.0
1774823454.5623963,0.009582281112670898,2026-03-29T22:30:54.562,2026-03-29T18:30:54.562,-22473.989999999998,-43101.54,-77386.14,-48826.979999999996,-9061.515,-16296.345,7580.384999999999,-62562.24,-5.7806218313900875,-1.494196025712722,1.7287408180574897,-0.5097398681784655,-3.066726159164987,-2.8513035650872927,-6.217729147877071,-5.457615786276487,0.331847295,-0.91943124,0.257506665,-19.34968,-32.06126,28.82614,68.0
1774823454.562416,1.9788742065429688e-05,2026-03-29T22:30:54.562,2026-03-29T18:30:54.562,-22461.57,-43107.84,-77408.86499999999,-48839.13,-9071.82,-16309.394999999999,7574.445,-62547.93,-2.363006825118022,-1.1952465881564562,0.5565160649708742,1.1089703078209545,-1.8485968414512648,-2.2686510675393263,-3.1165767222110823,-1.4457026698466517,0.331847295,-0.91943124,0.257506665,-19.34968,-32.06126,28.82614,68.0
1774823454.562456,3.981590270996094e-05,2026-03-29T22:30:54.562,2026-03-29T18:30:54.562,-22451.265,-43111.08,-77415.525,-48837.465,-9070.244999999999,-16310.205,7570.17,-62533.17,2.0530566519045013,-0.19191206287963122,-0.699319259090555,2.281938022610412,0.3135634030326983,-0.5732511108522074,1.3970062693512557,2.9409484364680356,0.331847295,-0.91943124,0.257506665,-19.34968,-32.06126,28.82614,68.0
1774823454.5624633,7.3909759521484375e-06,2026-03-29T22:30:54.562,2026-03-29T18:30:54.562,-22441.23,-43100.145,-77400.9,-48834.0,-9067.23,-16306.965,7566.615,-62527.005,5.559838275582105,1.1747973398205542,-1.3675783322071309,2.5154230919378078,2.4473364470765406,1.4208125700180674,5.215444707843092,5.770712246769162,0.331847295,-0.91943124,0.257506665,-19.34968,-32.06126,28.82614,68.0
1774823454.5665407,0.004077434539794922,2026-03-29T22:30:54.566,2026-03-29T18:30:54.566,-22461.84,-43085.295,-77369.08499999999,-48816.314999999995,-9045.315,-16283.295,7583.58,-62564.31,6.652254554391411,2.262593076112477,-1.1815770495536269,1.6953498268208262,3.536615830288505,2.7411364914249594,6.575405346058019,5.928740383554885,0.331847295,-0.91943124,0.257506665,-19.34968,-32.06126,28.82614,68.0
1774823454.5665555,1.4781951904296875e-05,2026-03-29T22:30:54.566,2026-03-29T18:30:54.566,-22485.555,-43089.885,-77372.235,-48823.38,-9049.545,-16285.545,7583.085,-62594.009999999995,4.877149585481198,2.4343934062152663,-0.37950330350519107,0.14656403802944573,3.011160927944025,2.7347769955499452,4.8713866269470465,3.5469799467896554,0.331847295,-0.91943124,0.257506665,-19.34968,-32.06126,28.82614,68.0
1774823454.5732536,0.006698131561279297,2026-03-29T22:30:54.573,2026-03-29T18:30:54.573,-22476.105,-43099.38,-77393.79,-48846.869999999995,-9074.475,-16308.63,7584.795,-62573.715,1.0231498388871938,1.421841249058708,0.4845148365854211,-1.4883585949885976,1.0466481600170938,1.3949881326409919,0.9247897581077822,-0.15195592721590395,0.341124615,-0.943784205,0.24890073000000001,-14.4207,-33.86194,28.337819999999997,68.0
1774823454.5732665,1.2874603271484375e-05,2026-03-29T22:30:54.573,2026-03-29T18:30:54.573,-22475.385,-43102.305,-77390.055,-48850.604999999996,-9080.369999999999,-16311.42,7597.71,-62567.774999999994,-3.229557524085973,-0.4582306030949189,0.8898501129833899,-2.5103587508474696,-1.483333684544712,-0.628286514865041,-3.4109288050823476,-3.480004909478758,0.341124615,-0.943784205,0.24890073000000001,-14.4207,-33.86194,28.337819999999997,68.0
1774823454.5732768,1.0251998901367188e-05,2026-03-29T22:30:54.573,2026-03-29T18:30:54.573,-22490.145,-43106.445,-77386.77,-48840.345,-9070.47,-16304.625,7574.4,-62589.869999999995,-6.044339937325895,-2.3806578033303527,0.6493688756794395,-2.4626604854976946,-3.3981122176490914,-2.3440615154229714,-6.11989847688146,-5.0590687326619825,0.341124615,-0.943784205,0.24890073000000001,-14.4207,-33.86194,28.337819999999997,68.0
1774823454.573281,4.291534423828125e-06,2026-03-29T22:30:54.573,2026-03-29T18:30:54.573,-22502.34,-43113.06,-77385.33,-48840.479999999996,-9078.119999999999,-16313.22,7558.155,-62600.625,-6.225569913952026,-3.3794309332909247,-0.008562438440077052,-1.3401724626120046,-3.7680938281345364,-2.908858493276162,-5.960785494203641,-4.388275136078429,0.341124615,-0.943784205,0.24890073000000001,-14.4207,-33.86194,28.337819999999997,68.0
1774823454.5792687,0.005987644195556641,2026-03-29T22:30:54.579,2026-03-29T18:30:54.579,-22489.11,-43102.755,-77376.87,-48834.945,-9078.255,-16317.135,7562.969999999999,-62590.905,-3.730313373392166,-2.839548436815628,-0.6098907249294536,0.38859839608955454,-2.373389225995081,-2.0460615553563057,-3.035780231752261,-1.9718084136390706,0.341124615,-0.943784205,0.24890073000000001,-14.4207,-33.86194,28.337819999999997,68.0
1774823454.5792885,1.9788742065429688e-05,2026-03-29T22:30:54.579,2026-03-29T18:30:54.579,-22475.295,-43096.095,-77381.86499999999,-48833.64,-9065.88,-16304.175,7583.3099999999995,-62584.649999999994,0.3266151222182554,-0.8599111602083137,-0.7428290477080263,1.9696837463863008,0.1665028837918836,-0.18559079200245746,1.269359128475486,1.0039978791061355,0.341124615,-0.943784205,0.24890073000000001,-14.4207,-33.86194,28.337819999999997,68.0
1774823454.5860083,0.006719827651977539,2026-03-29T22:30:54.586,2026-03-29T18:30:54.586,-22462.335,-43089.075,-77379.885,-48827.43,-9048.51,-16274.654999999999,7612.83,-62570.564999999995,4.171588738204636,1.7213596154932342,-0.31456486706569026,2.690984754808675,2.6678077991750957,1.74848176914366,4.941038757863575,3.252817517066588,0.341124615,-0.943784205,0.24890073000000001,-14.4207,-33.86194,28.337819999999997,68.0
1774823454.5860343,2.5987625122070312e-05,2026-03-29T22:30:54.586,2026-03-29T18:30:54.586,-22461.075,-43092.854999999996,-77384.925,-48831.479999999996,-9052.515,-16279.83,7605.674999999999,-62568.765,6.151591874693975,3.685177775878164,0.3956738225403471,2.2081384232798036,3.940670398339971,2.798349417322167,6.279553522507148,3.9440929984836415,0.341124615,-0.943784205,0.24890073000000001,-14.4207,-33.86194,28.337819999999997,68.0
1774823454.5877535,0.0017192363739013672,2026-03-29T22:30:54.587,2026-03-29T18:30:54.587,-22470.57,-43097.76,-77385.87,-48833.189999999995,-9059.805,-16297.605,7591.679999999999,-62581.905,5.449885329877879,4.0185276689008935,0.9146664997104046,0.7178110768965742,3.364564179385173,2.451002578824464,4.686427888224319,2.9927703131849297,0.341124615,-0.943784205,0.24890073000000001,-14.4207,-33.86194,28.337819999999997,68.0
1774823454.587769,1.5497207641601562e-05,2026-03-29T22:30:54.587,2026-03-29T18:30:54.587,-22468.454999999998,-43100.595,-77390.64,-48840.84,-9072.404999999999,-16315.47,7583.4,-62578.305,2.425715828572878,2.442397961046807,0.8735797093591491,-1.11234681547916,1.1986033694958371,0.8940642931897302,0.9322973603043956,0.9922930240412912,0.341124615,-0.943784205,0.24890073000000001,-14.4207,-33.86194,28.337819999999997,68.0
1774823454.5906596,0.0028905868530273438,2026-03-29T22:30:54.590,2026-03-29T18:30:54.590,-22462.875,-43098.795,-77381.955,-48833.235,-9065.475,-16299.585,7576.965,-62567.055,-1.5647635057077118,-0.3968040082171908,0.24506068624943955,-2.43867922106891,-1.5317557592372346,-1.080869109402564,-3.214921285899942,-1.1291908529957706,0.35009676,-0.96008055,0.240416865,-9.94952,-41.18674,28.71932,68.0
1774823454.5906723,1.2636184692382812e-05,2026-03-29T22:30:54.590,2026-03-29T18:30:54.590,-22470.75,-43103.744999999995,-77385.19499999999,-48829.049999999996,-9054.855,-16278.795,7580.88,-62574.479999999996,-4.7789304102008705,-3.1925689648362656,-0.6255064847556852,-2.6336782677282238,-3.5239829769859115,-2.479378138462016,-5.822721054907366,-2.5386559781080895,0.35009676,-0.96008055,0.240416865,-9.94952,-41.18674,28.71932,68.0
1774823454.5947385,0.0040662288665771484,2026-03-29T22:30:54.594,2026-03-29T18:30:54.594,-22463.594999999998,-43108.47,-77402.205,-48850.695,-9079.02,-16310.43,7565.49,-62566.695,-5.853735394617034,-4.5914295996050045,-1.216679325847486,-1.5919367171029186,-3.8287871093128567,-2.607136810284009,-5.695294484406156,-2.815450632842538,0.35009676,-0.96008055,0.240416865,-9.94952,-41.18674,28.71932,68.0
1774823454.594754,1.5497207641601562e-05,2026-03-29T22:30:54.594,2026-03-29T18:30:54.594,-22486.23,-43109.909999999996,-77397.345,-48846.24,-9076.365,-16311.06,7566.21,-62596.71,-4.3882593509419,-3.8605811885327546,-1.1417602277620722,0.20304007730266088,-2.312636169376577,-1.4193568938130308,-2.9225522815619778,-2.0410136230388574,0.35009676,-0.96008055,0.240416865,-9.94952,-41.18674,28.71932,68.0
