unix_time_s,dt_s,UTC,LOCAL,EMG1_Raw,EMG2_Raw,EMG3_Raw,EMG4_Raw,EMG5_Raw,EMG6_Raw,EMG7_Raw,EMG8_Raw,EMG1_Filtered,EMG2_Filtered,EMG3_Filtered,EMG4_Filtered,EMG5_Filtered,EMG6_Filtered,EMG7_Filtered,EMG8_Filtered,Accel1_Raw,Accel2_Raw,Accel3_Raw,Gyro1_Raw,Gyro2_Raw,Gyro3_Raw,Battery
1774822337.2002902,,2026-03-29T22:12:17.200,2026-03-29T18:12:17.200,-33368.445,-47728.755,-85212.22499999999,-50048.64,-14477.31,-19150.829999999998,5859.2699999999995,-65734.38,0.01958261613753797,-0.13115817348952236,-0.6790247215342072,-1.1565467171669184,-0.5972668732072971,-0.23040858879943238,-0.6491728903759681,0.04098513628304155,0.133971825,-0.97179927,0.262877745,-0.18312,-0.763,-2.09062,71.0
1774822337.200306,1.5735626220703125e-05,2026-03-29T22:12:17.200,2026-03-29T18:12:17.200,-33364.305,-47731.095,-85218.435,-50043.195,-14467.769999999999,-19137.149999999998,5869.665,-65727.9,-2.298249458566144,-2.5551593862855837,-4.629854925255351,1.6998438189110163,2.46491761222392,1.3029794332129832,-1.7745952275362857,-2.8506486704634537,0.133971825,-0.97179927,0.262877745,-0.18312,-0.763,-2.09062,71.0
1774822337.2033997,0.003093719482421875,2026-03-29T22:12:17.203,2026-03-29T18:12:17.203,-33362.82,-47733.345,-85227.84,-50029.74,-14458.5,-19136.79,5862.0599999999995,-65728.935,-3.5673638837003656,-3.813863473472734,-6.4725935431175285,3.78531182387302,4.423526680525136,2.2683982697902874,-2.098810922358022,-4.437696886330244,0.133971825,-0.97179927,0.262877745,-0.18312,-0.763,-2.09062,71.0
1774822337.203411,1.1444091796875e-05,2026-03-29T22:12:17.203,2026-03-29T18:12:17.203,-33358.14,-47718.494999999995,-85192.875,-50014.979999999996,-14457.42,-19141.739999999998,5854.41,-65723.94,-3.16158580770088,-3.3102748274182487,-5.324935883461563,4.159429413996986,4.384677029106756,2.2328844679361963,-1.4446286697582995,-3.948891457612743,0.133971825,-0.97179927,0.262877745,-0.18312,-0.763,-2.09062,71.0
1774822337.2072356,0.003824472427368164,2026-03-29T22:12:17.207,2026-03-29T18:12:17.207,-33363.494999999995,-47726.1,-85203.54,-50044.275,-14478.93,-19150.92,5857.83,-65726.595,-1.245613747755909,-1.2670761951395066,-1.6950935555025899,2.668816215998814,2.3689001288008282,1.2120415929007997,-0.08740863100151809,-1.5902234990389248,0.133971825,-0.97179927,0.262877745,-0.18312,-0.763,-2.09062,71.0
1774822337.2072482,1.2636184692382812e-05,2026-03-29T22:12:17.207,2026-03-29T18:12:17.207,-33373.08,-47739.24,-85231.665,-50045.22,-14466.644999999999,-19140.12,5859.135,-65736.09,1.292068618073845,1.3724172642826125,2.7444187524688974,0.0053509707181061674,-0.7035887153053919,-0.34002712716183087,1.356182018569794,1.5426130314148179,0.133971825,-0.97179927,0.262877745,-0.18312,-0.763,-2.09062,71.0
1774822337.2102804,0.003032207489013672,2026-03-29T22:12:17.210,2026-03-29T18:12:17.210,-33365.565,-47713.365,-85184.685,-50047.83,-14476.949999999999,-19148.715,5850.63,-65734.155,3.2545099938268462,3.3827102170319274,5.932482616558027,-2.6232864731478767,-3.4411315605223955,-1.7377900745005397,2.204622310836426,3.9772930321489,0.133971825,-0.97179927,0.262877745,-0.18312,-0.763,-2.09062,71.0
1774822337.210307,2.6464462280273438e-05,2026-03-29T22:12:17.210,2026-03-29T18:12:17.210,-33357.06,-47704.095,-85168.08,-50037.84,-14477.715,-19150.335,5854.95,-65725.02,3.7041785097421225,3.828818851536052,6.382389493705965,-4.050043490407594,-4.619219302076753,-2.3714017912036036,2.031410160302608,4.561351403311929,0.133971825,-0.97179927,0.262877745,-0.18312,-0.763,-2.09062,71.0
1774822337.214031,0.0037240982055664062,2026-03-29T22:12:17.214,2026-03-29T18:12:17.214,-33365.7,-47723.354999999996,-85199.22,-50051.205,-14486.49,-19157.489999999998,5862.375,-65727.18,2.4123838383139966,2.503852292138057,3.8793478922888354,-3.6712953638632326,-3.732426475449463,-1.9740935601702445,0.8792802337510915,3.010467759571475,0.133971825,-0.97179927,0.262877745,-0.18312,-0.763,-2.09062,71.0
1774822337.2140427,1.1682510375976562e-05,2026-03-29T22:12:17.214,2026-03-29T18:12:17.214,-33363.63,-47723.085,-85207.545,-50056.155,-14486.805,-19156.23,5865.525,-65727.09,-0.026053926148471893,0.025432949722827832,-0.4167101954667502,-1.6995821057156957,-1.2088839258568143,-0.7319737688611497,-0.7387413017496358,0.04629056991759016,0.133971825,-0.97179927,0.262877745,-0.18312,-0.763,-2.09062,71.0
1774822337.2179284,0.0038857460021972656,2026-03-29T22:12:17.217,2026-03-29T18:12:17.217,-33361.604999999996,-47717.865,-85202.64,-50051.79,-14481.539999999999,-19152.27,5863.7699999999995,-65727.0,-2.4698914847763223,-2.4541862085068473,-4.512313095047615,0.9579904073555744,1.802369095812627,0.8074671399534021,-2.0634862486039935,-2.942939808617052,0.128966955,-0.969418905,0.262999815,-0.36624,-0.09156,-1.3734,71.0
1774822337.217954,2.5510787963867188e-05,2026-03-29T22:12:17.217,2026-03-29T18:12:17.217,-33361.065,-47717.595,-85201.47,-50048.729999999996,-14480.64,-19152.945,5861.295,-65727.63,-3.769822250274951,-3.787314033543188,-6.511346822512081,3.125696681023413,3.9629731763805034,1.9812002996208846,-2.443608302012586,-4.557830847825231,0.128966955,-0.969418905,0.262999815,-0.36624,-0.09156,-1.3734,71.0
1774822337.2232833,0.0053293704986572266,2026-03-29T22:12:17.223,2026-03-29T18:12:17.223,-33358.409999999996,-47718.494999999995,-85205.34,-50051.97,-14484.689999999999,-19156.005,5859.764999999999,-65725.515,-3.312201413243586,-3.365374693008469,-5.498151559971442,3.885480752927514,4.345864774024428,2.298180370529145,-1.655581879336269,-4.047484940961211,0.128966955,-0.969418905,0.262999815,-0.36624,-0.09156,-1.3734,71.0
1774822337.223312,2.86102294921875e-05,2026-03-29T22:12:17.223,2026-03-29T18:12:17.223,-33356.205,-47719.935,-85209.795,-50056.515,-14489.865,-19160.28,5858.73,-65722.77,-1.309343247340739,-1.3982883470496437,-1.959033125632621,2.9651033674720026,2.832640713971997,1.6429252944290218,-0.03261330616500586,-1.660248274001107,0.128966955,-0.969418905,0.262999815,-0.36624,-0.09156,-1.3734,71.0
1774822337.227105,0.003793001174926758,2026-03-29T22:12:17.227,2026-03-29T18:12:17.227,-33355.26,-47722.545,-85214.34,-50058.54,-14492.654999999999,-19164.105,5855.175,-65721.375,1.3013587639304127,1.1902935336916005,2.4528011154229477,0.8246157170700369,0.13775792842464535,0.3119214408332265,1.6708965460242613,1.479150766336169,0.128966955,-0.969418905,0.262999815,-0.36624,-0.09156,-1.3734,71.0
1774822337.2271228,1.7881393432617188e-05,2026-03-29T22:12:17.227,2026-03-29T18:12:17.227,-33347.295,-47714.31,-85203.855,-50048.729999999996,-14485.769999999999,-19158.84,5854.724999999999,-65712.95999999999,3.300584215367383,3.1994406537511533,5.6944360805008305,-1.578941753682348,-2.535635329321311,-1.1246871455018956,2.6275838726174126,3.9045783235223075,0.128966955,-0.969418905,0.262999815,-0.36624,-0.09156,-1.3734,71.0
1774822337.2299373,0.0028145313262939453,2026-03-29T22:12:17.229,2026-03-29T18:12:17.229,-33341.49,-47716.424999999996,-85212.045,-50058.27,-14495.355,-19167.93,5851.26,-65703.23999999999,3.761047587716877,3.711550113989608,6.284809624220578,-3.226153916342149,-4.039363269949221,-2.0695822480911628,2.3387260961862015,4.4989041572924595,0.128966955,-0.969418905,0.262999815,-0.36624,-0.09156,-1.3734,71.0
1774822337.2299497,1.239776611328125e-05,2026-03-29T22:12:17.229,2026-03-29T18:12:17.229,-33352.47,-47716.74,-85204.935,-50044.59,-14482.935,-19157.219999999998,5854.86,-65717.81999999999,2.48002854264601,2.513789905968791,3.984734060133079,-3.4686834074597472,-3.7746633761594506,-2.145271047821439,0.8943758470663383,3.0121058807436474,0.128966955,-0.969418905,0.262999815,-0.36624,-0.09156,-1.3734,71.0
1774822337.2340965,0.0041468143463134766,2026-03-29T22:12:17.234,2026-03-29T18:12:17.234,-33382.89,-47717.865,-85192.875,-50021.415,-14458.59,-19137.645,5867.6849999999995,-65760.075,0.06753603083852135,0.18572128800449264,-0.1084305647085731,-2.276969433678555,-1.92405389753372,-1.3403894584478897,-1.0438629197332905,0.16506091950534638,0.128966955,-0.969418905,0.262999815,-0.36624,-0.09156,-1.3734,71.0
1774822337.2341108,1.430511474609375e-05,2026-03-29T22:12:17.234,2026-03-29T18:12:17.234,-33376.14,-47723.04,-85205.11499999999,-50032.395,-14470.83,-19150.785,5862.014999999999,-65747.655,-2.347736526292865,-2.1824806887055646,-4.087599084179063,-0.2120863042675853,0.665197039843995,-0.0014131541954754846,-2.5432175661948597,-2.703378743253951,0.128966955,-0.969418905,0.262999815,-0.36624,-0.09156,-1.3734,71.0
1774822337.2381687,0.004057884216308594,2026-03-29T22:12:17.238,2026-03-29T18:12:17.238,-33374.655,-47729.835,-85218.795,-50044.634999999995,-14483.789999999999,-19163.475,5847.705,-65746.395,-3.6514188690265774,-3.5035523680290925,-6.129757713846272,1.8438948230640941,2.8749932430357696,1.3187402587799197,-2.848541361154965,-4.271854391332097,0.12622038,-0.96593991,0.26196222,-2.5636799999999997,-0.09156,0.56462,71.0
1774822337.2381792,1.049041748046875e-05,2026-03-29T22:12:17.238,2026-03-29T18:12:17.238,-33372.09,-47726.729999999996,-85215.735,-50046.479999999996,-14481.359999999999,-19160.055,5838.57,-65745.63,-3.261526024697665,-3.1950866640294877,-5.335284740000669,3.0671184158161258,3.8018376827483706,2.0879543021148983,-1.763673708263611,-3.8502902796042253,0.12622038,-0.96593991,0.26196222,-2.5636799999999997,-0.09156,0.56462,71.0
1774822337.2419655,0.003786325454711914,2026-03-29T22:12:17.241,2026-03-29T18:12:17.241,-33361.155,-47716.515,-85204.305,-50043.33,-14475.555,-19149.885,5845.995,-65735.145,-1.388950582032239,-1.436877686388806,-2.124379476842868,3.016751823390149,3.1219531659227258,2.0053838282482075,0.22783658345090035,-1.6845476909639971,0.12622038,-0.96593991,0.26196222,-2.5636799999999997,-0.09156,0.56462,71.0
1774822337.2419868,2.1219253540039062e-05,2026-03-29T22:12:17.241,2026-03-29T18:12:17.241,-33359.13,-47714.04,-85201.965,-50054.715,-14486.76,-19152.405,5862.6449999999995,-65732.625,1.0765099657896433,0.9302679329687614,1.9840724832104388,1.7806010104339316,1.191188350570698,1.1144066039124776,2.174979646904889,1.1830430007826007,0.12622038,-0.96593991,0.26196222,-2.5636799999999997,-0.09156,0.56462,71.0
1774822337.2461228,0.004136085510253906,2026-03-29T22:12:17.246,2026-03-29T18:12:17.246,-33356.25,-47709.765,-85192.92,-50044.455,-14481.539999999999,-19149.66,5878.349999999999,-65729.79,2.9931735847443783,2.808578001952538,5.0952086308085915,-0.09813752938076875,-1.142410840513919,-0.22141164933753682,3.113394705637955,3.41975133099993,0.12622038,-0.96593991,0.26196222,-2.5636799999999997,-0.09156,0.56462,71.0
1774822337.2461405,1.7642974853515625e-05,2026-03-29T22:12:17.246,2026-03-29T18:12:17.246,-33354.72,-47712.015,-85198.68,-50045.625,-14483.025,-19152.855,5881.905,-65726.73,3.5007954736461455,3.355107665552179,5.8165324382696015,-1.8625794736240024,-2.914299613763818,-1.465641372994265,2.544613433777244,4.027529794411513,0.12622038,-0.96593991,0.26196222,-2.5636799999999997,-0.09156,0.56462,71.0
1774822337.2501945,0.004054069519042969,2026-03-29T22:12:17.250,2026-03-29T18:12:17.250,-33349.14,-47711.43,-85204.98,-50050.395,-14486.49,-19155.51,5869.304999999999,-65721.87,2.409008423491963,2.361409823747128,3.8825977372678446,-2.8435190183950394,-3.439595627499279,-2.1206285293437728,0.7014278303693224,2.791401437565367,0.12622038,-0.96593991,0.26196222,-2.5636799999999997,-0.09156,0.56462,71.0
1774822337.2502153,2.0742416381835938e-05,2026-03-29T22:12:17.250,2026-03-29T18:12:17.250,-33346.215,-47712.96,-85209.56999999999,-50056.83,-14491.529999999999,-19159.965,5857.0199999999995,-65720.565,0.2644749608522335,0.329478135813473,0.24515886847033497,-2.702733197971739,-2.568665508711563,-1.9223193041048856,-1.542260196265254,0.3483450140542068,0.12622038,-0.96593991,0.26196222,-2.5636799999999997,-0.09156,0.56462,71.0
1774822337.255356,0.005140781402587891,2026-03-29T22:12:17.255,2026-03-29T18:12:17.255,-33357.375,-47719.665,-85211.64,-50058.18,-14491.71,-19161.495,5847.165,-65732.805,-1.924334424973497,-1.7815574564882062,-3.3970995798791823,-1.536119940889485,-0.7122533019685433,-0.9445937957014282,-3.0855656713886632,-2.140886755808711,0.12622038,-0.96593991,0.26196222,-2.5636799999999997,-0.09156,0.56462,71.0
1774822337.2553775,2.1457672119140625e-05,2026-03-29T22:12:17.255,2026-03-29T18:12:17.255,-33370.74,-47720.205,-85205.47499999999,-50045.985,-14478.48,-19151.325,5859.63,-65749.72499999999,-3.1655828401060075,-3.010197880448069,-5.395936655879107,0.18609932213614114,1.3543790754472798,0.4268644211989167,-3.1427129593459413,-3.547998892199556,0.12622038,-0.96593991,0.26196222,-2.5636799999999997,-0.09156,0.56462,71.0
1774822337.2580771,0.002699613571166992,2026-03-29T22:12:17.258,2026-03-29T18:12:17.258,-33366.96,-47724.165,-85216.635,-50048.909999999996,-14480.414999999999,-19153.62,5871.24,-65742.255,-2.936936975544767,-2.832212010503285,-4.901753241182937,1.8068259934860698,2.8140693667677583,1.642864755518411,-1.645217734696982,-3.292852046639972,0.12390105,-0.9693578700000001,0.26159601,-2.3042599999999998,-0.62566,2.1516599999999997,71.0
1774822337.2580938,1.6689300537109375e-05,2026-03-29T22:12:17.258,2026-03-29T18:12:17.258,-33361.56,-47722.275,-85211.28,-50050.08,-14482.755,-19154.655,5875.335,-65733.39,-1.4046308612863634,-1.3833651065363748,-2.2219078271088337,2.723862798454798,3.123779006796819,2.2065696405700628,0.7027348900457611,-1.5810530405228693,0.12390105,-0.9693578700000001,0.26159601,-2.3042599999999998,-0.62566,2.1516599999999997,71.0
1774822337.2626553,0.004561424255371094,2026-03-29T22:12:17.262,2026-03-29T18:12:17.262,-33352.47,-47719.08,-85211.45999999999,-50043.33,-14481.269999999999,-19157.13,5877.2699999999995,-65729.52,0.6825887226297184,0.6287794690300136,1.3603411609953961,2.602426078004745,2.206034356603106,1.8745716566885304,2.7546682748728575,0.7328602514954209,0.12390105,-0.9693578700000001,0.26159601,-2.3042599999999998,-0.62566,2.1516599999999997,71.0
1774822337.262671,1.5735626220703125e-05,2026-03-29T22:12:17.262,2026-03-29T18:12:17.262,-33360.885,-47730.24,-85215.69,-50022.945,-14465.205,-19149.84,5856.21,-65740.14,2.3613443908872522,2.270936927272356,4.203122827176013,1.4900957417464635,0.45465305446334886,0.7629655368427763,3.4834538236216805,2.5732468423695822,0.12390105,-0.9693578700000001,0.26159601,-2.3042599999999998,-0.62566,2.1516599999999997,71.0
1774822337.2733495,0.010678529739379883,2026-03-29T22:12:17.273,2026-03-29T18:12:17.273,-33367.095,-47735.055,-85223.79,-50045.805,-14472.99,-19149.21,5846.535,-65743.73999999999,2.901752859170189,2.8184759328986813,5.061175198753457,-0.20101845215128153,-1.4340119114630412,-0.6883629617074196,2.4982100510178893,3.147504956191458,0.12390105,-0.9693578700000001,0.26159601,-2.3042599999999998,-0.62566,2.1516599999999997,71.0
1774822337.2733676,1.811981201171875e-05,2026-03-29T22:12:17.273,2026-03-29T18:12:17.273,-33362.865,-47718.99,-85206.105,-50062.5,-14485.59,-19154.07,5852.655,-65741.22,2.12589897176742,2.075253923896958,3.6303739742295096,-1.8388573467453608,-2.7323375367136147,-1.8856154242050305,0.25501341311150644,2.2884860788379164,0.12390105,-0.9693578700000001,0.26159601,-2.3042599999999998,-0.62566,2.1516599999999997,71.0
1774822337.2733831,1.5497207641601562e-05,2026-03-29T22:12:17.273,2026-03-29T18:12:17.273,-33358.455,-47713.5,-85201.965,-50066.549999999996,-14491.17,-19157.085,5855.355,-65738.25,0.4573685579855332,0.4378375110413125,0.6441234861779953,-2.7969734037339737,-2.9528913487121007,-2.3221048533504463,-2.152583379046863,0.48694105399668053,0.12390105,-0.9693578700000001,0.26159601,-2.3042599999999998,-0.62566,2.1516599999999997,71.0
1774822337.27339,6.9141387939453125e-06,2026-03-29T22:12:17.273,2026-03-29T18:12:17.273,-33360.345,-47725.65,-85221.98999999999,-50065.604999999996,-14489.1,-19158.075,5859.09,-65736.81,-1.3058732784369904,-1.3130894914923787,-2.5015495184275727,-2.686873406961899,-2.0239891835773465,-1.7937629142339122,-3.5279399187969718,-1.3802077993294009,0.12390105,-0.9693578700000001,0.26159601,-2.3042599999999998,-0.62566,2.1516599999999997,71.0
1774822337.2753613,0.0019712448120117188,2026-03-29T22:12:17.275,2026-03-29T18:12:17.275,-33365.07,-47728.979999999996,-85224.23999999999,-50057.055,-14479.92,-19153.125,5851.98,-65746.17,-2.3750214593315215,-2.3855005010281283,-4.40287576264972,-1.5150598832382578,-0.3103867470632274,-0.49689680004560716,-3.1688602164826305,-2.478434143174012,0.12390105,-0.9693578700000001,0.26159601,-2.3042599999999998,-0.62566,2.1516599999999997,71.0
1774822337.2753696,8.344650268554688e-06,2026-03-29T22:12:17.275,2026-03-29T18:12:17.275,-33360.84,-47721.104999999996,-85213.035,-50053.365,-14478.93,-19153.844999999998,5841.045,-65745.405,-2.325275652961161,-2.3347114943954757,-4.2749588677153865,0.2985339291523891,1.525445762279688,1.039814908797907,-1.2285652690085644,-2.390868519076811,0.12390105,-0.9693578700000001,0.26159601,-2.3042599999999998,-0.62566,2.1516599999999997,71.0
1774822337.2792716,0.003901958465576172,2026-03-29T22:12:17.279,2026-03-29T18:12:17.279,-33358.185,-47720.61,-85214.47499999999,-50051.79,-14478.795,-19155.329999999998,5841.9,-65740.995,-1.2616524654001002,-1.2454560072748078,-2.270541190708324,2.059747755972336,2.7714398034999217,2.16870995653947,1.3465568590266819,-1.2706252438120023,0.122619315,-0.97802484,0.260680485,1.4802199999999999,0.27468,3.4945399999999998,71.0
1774822337.2792854,1.3828277587890625e-05,2026-03-29T22:12:17.279,2026-03-29T18:12:17.279,-33354.945,-47714.4,-85198.905,-50049.405,-14481.945,-19159.065,5850.8099999999995,-65736.94499999999,0.2671148178206769,0.3357964988326144,0.6354272571540001,3.0577746354003112,2.9351686004534505,2.3970615454099606,3.279014373603382,0.2819074788091885,0.122619315,-0.97802484,0.260680485,1.4802199999999999,0.27468,3.4945399999999998,71.0
1774822337.2830813,0.0037958621978759766,2026-03-29T22:12:17.283,2026-03-29T18:12:17.283,-33356.025,-47715.884999999995,-85199.58,-50057.145,-14489.955,-19161.675,5866.469999999999,-65737.845,1.5493034396710068,1.6735142753310013,3.120313958930742,2.8501248148848393,1.9363220755534467,1.6051882403652638,3.596201899022624,1.5357825966818568,0.122619315,-0.97802484,0.260680485,1.4802199999999999,0.27468,3.4945399999999998,71.0
1774822337.283101,1.9788742065429688e-05,2026-03-29T22:12:17.283,2026-03-29T18:12:17.283,-33357.78,-47724.39,-85216.545,-50069.835,-14498.189999999999,-19166.67,5863.32,-65740.095,2.042857752427955,2.185260411494476,4.116284417081578,1.4617598351929575,0.14826535870715815,0.11060785060524474,2.1225576609698074,1.9750472408114104,0.122619315,-0.97802484,0.260680485,1.4802199999999999,0.27468,3.4945399999999998,71.0
1774822337.2864356,0.003334522247314453,2026-03-29T22:12:17.286,2026-03-29T18:12:17.286,-33354.405,-47723.759999999995,-85221.405,-50068.575,-14495.939999999999,-19165.23,5856.795,-65739.33,1.6040404120450213,1.6942328499258446,3.266271583860606,-0.5925822283151588,-1.7336928262118494,-1.4567110371527974,-0.4223908028880463,1.5092357897832618,0.122619315,-0.97802484,0.260680485,1.4802199999999999,0.27468,3.4945399999999998,71.0
1774822337.2864544,1.8835067749023438e-05,2026-03-29T22:12:17.286,2026-03-29T18:12:17.286,-33354.81,-47727.585,-85231.17,-50070.24,-14497.875,-19169.594999999998,5848.695,-65737.305,0.5161398209840361,0.4834125524249578,1.0405980590801087,-2.4894214281707487,-2.955557138788481,-2.420496086052313,-2.7750128210226253,0.46410753403833,0.122619315,-0.97802484,0.260680485,1.4802199999999999,0.27468,3.4945399999999998,71.0
1774822337.29172,0.005265474319458008,2026-03-29T22:12:17.291,2026-03-29T18:12:17.291,-33351.119999999995,-47730.915,-85238.28,-50073.884999999995,-14501.025,-19172.925,5841.495,-65731.005,-0.6778391791299114,-0.8607439820970715,-1.5165607314212455,-3.422977951032211,-3.003775432108101,-2.3529550420756724,-3.7563950460061277,-0.619523411071937,0.122619315,-0.97802484,0.260680485,1.4802199999999999,0.27468,3.4945399999999998,71.0
1774822337.291738,1.811981201171875e-05,2026-03-29T22:12:17.291,2026-03-29T18:12:17.291,-33343.695,-47738.564999999995,-85244.12999999999,-50072.265,-14507.189999999999,-19182.87,5835.51,-65718.54,-1.4445114310140206,-1.7310584803987696,-3.276635594573796,-2.9496393523776754,-1.8231524962058723,-1.268136809728178,-2.8652401005789545,-1.2623951134382598,0.122619315,-0.97802484,0.260680485,1.4802199999999999,0.27468,3.4945399999999998,71.0
1774822337.2941597,0.0024216175079345703,2026-03-29T22:12:17.294,2026-03-29T18:12:17.294,-33354.72,-47726.189999999995,-85220.19,-50064.615,-14496.615,-19168.38,5845.32,-65737.845,-1.4985863307188743,-1.7730782799159888,-3.522950750069922,-1.2022485613381155,0.13997411944231256,0.37527118557126304,-0.5355699347781934,-1.258614488715758,0.122619315,-0.97802484,0.260680485,1.4802199999999999,0.27468,3.4945399999999998,71.0
1774822337.294176,1.6450881958007812e-05,2026-03-29T22:12:17.294,2026-03-29T18:12:17.294,-33370.965,-47710.305,-85190.58,-50052.15,-14483.654999999999,-19148.13,5863.95,-65759.44499999999,-0.9039562551381148,-1.0266423811031893,-2.2368997964717177,1.1306336642551238,2.0985675234798244,1.867965464045412,2.073917405353952,-0.7292956628287267,0.122619315,-0.97802484,0.260680485,1.4802199999999999,0.27468,3.4945399999999998,71.0
1774822337.3018532,0.0076770782470703125,2026-03-29T22:12:17.301,2026-03-29T18:12:17.301,-33367.32,-47719.755,-85203.54,-50051.655,-14487.255,-19155.239999999998,5858.1449999999995,-65751.84,-0.0046823513326398475,0.11925255206923616,-0.0631964919607448,3.070205827354867,3.236375587538901,2.55871578159995,3.656774597921779,-0.012458105724121257,0.124938645,-0.983701095,0.260314275,3.9828599999999996,0.19838,4.2270199999999996,71.0
1774822337.3018665,1.33514404296875e-05,2026-03-29T22:12:17.301,2026-03-29T18:12:17.301,-33364.44,-47722.59,-85213.305,-50058.0,-14492.789999999999,-19159.829999999998,5858.505,-65752.47,0.7644176220546753,1.125190152180319,2.0097225507781076,3.758573239464007,3.048998140951643,2.142022955753961,3.414184489501267,0.5350307410324949,0.124938645,-0.983701095,0.260314275,3.9828599999999996,0.19838,4.2270199999999996,71.0
1774822337.3018796,1.3113021850585938e-05,2026-03-29T22:12:17.301,2026-03-29T18:12:17.301,-33363.405,-47720.025,-85211.685,-50054.04,-14487.48,-19156.14,5868.495,-65752.47,1.0865717654470417,1.5536607643534384,3.0972468455168984,2.8428308772764903,1.5716267933960941,0.7958923908480321,1.4591952710365135,0.7129659785039439,0.124938645,-0.983701095,0.260314275,3.9828599999999996,0.19838,4.2270199999999996,71.0
1774822337.301884,4.291534423828125e-06,2026-03-29T22:12:17.301,2026-03-29T18:12:17.301,-33359.354999999996,-47719.35,-85204.08,-50049.18,-14491.89,-19162.575,5854.094999999999,-65745.94499999999,0.8916300089760113,1.2577837136596086,2.79274063690337,0.6581799678833905,-0.6112220428640959,-0.8936504116215706,-1.2352919698407552,0.5453095251822064,0.124938645,-0.983701095,0.260314275,3.9828599999999996,0.19838,4.2270199999999996,71.0
1774822337.3059905,0.0041065216064453125,2026-03-29T22:12:17.305,2026-03-29T18:12:17.305,-33356.52,-47716.875,-85201.69499999999,-50047.244999999995,-14492.654999999999,-19163.07,5845.679999999999,-65742.165,0.3534075965381691,0.4260387978663592,1.3122587466735147,-1.8854638923304425,-2.59150370698982,-2.1894735540248846,-3.3210395921913554,0.2205292830720218,0.124938645,-0.983701095,0.260314275,3.9828599999999996,0.19838,4.2270199999999996,71.0
1774822337.3060074,1.6927719116210938e-05,2026-03-29T22:12:17.306,2026-03-29T18:12:17.306,-33360.479999999996,-47721.645,-85212.765,-50055.84,-14495.67,-19160.64,5854.094999999999,-65746.755,-0.2270864198638758,-0.5269743000114309,-0.6372252428919465,-3.680670958595868,-3.5147720826572875,-2.5280397938894503,-3.749706680323503,-0.04509657697814759,0.124938645,-0.983701095,0.260314275,3.9828599999999996,0.19838,4.2270199999999996,71.0
1774822337.3101037,0.004096269607543945,2026-03-29T22:12:17.310,2026-03-29T18:12:17.310,-33360.299999999996,-47721.465,-85214.52,-50062.77,-14498.1,-19154.52,5866.785,-65745.98999999999,-0.5825145111993989,-1.1637534436609964,-2.1916923533790373,-3.908292568071293,-2.952422828452014,-1.767288941338575,-2.3000069581244844,-0.13556737565946783,0.124938645,-0.983701095,0.260314275,3.9828599999999996,0.19838,4.2270199999999996,71.0
1774822337.3101237,2.002716064453125e-05,2026-03-29T22:12:17.310,2026-03-29T18:12:17.310,-33359.715,-47719.439999999995,-85211.595,-50058.81,-14496.75,-19155.78,5863.905,-65746.62,-0.6007577967842276,-1.2229472883590236,-2.710275480460473,-2.417290631806859,-1.105289568394223,-0.24735080596460715,0.30857372909446595,-0.08337465142664051,0.124938645,-0.983701095,0.260314275,3.9828599999999996,0.19838,4.2270199999999996,71.0
1774822337.3225539,0.012430191040039062,2026-03-29T22:12:17.322,2026-03-29T18:12:17.322,-33356.025,-47718.54,-85214.79,-50053.77,-14493.51,-19156.094999999998,5862.735,-65743.69499999999,-0.3526705364528488,-0.7247009593612106,-2.0362982652509323,0.1799948060682034,1.2599711551743287,1.3622629479224164,2.7736352806749345,-0.0191195335862437,0.124938645,-0.983701095,0.260314275,3.9828599999999996,0.19838,4.2270199999999996,71.0
1774822337.3225722,1.8358230590820312e-05,2026-03-29T22:12:17.322,2026-03-29T18:12:17.322,-33354.99,-47728.305,-85240.665,-50050.71,-14489.685,-19159.559999999998,5854.679999999999,-65740.31999999999,-0.024515995168822777,0.05895375092075742,-0.5348452007770083,2.754836093901219,3.1266612131976883,2.3597878369606846,3.8606438551447373,-0.06286015505407833,0.124938645,-0.983701095,0.260314275,3.9828599999999996,0.19838,4.2270199999999996,71.0
1774822337.322588,1.5735626220703125e-05,2026-03-29T22:12:17.322,2026-03-29T18:12:17.322,-33359.31,-47738.34,-85250.83499999999,-50059.845,-14494.365,-19162.844999999998,5851.035,-65740.68,0.19817423056583652,0.746226657465241,1.095848411234288,4.154341281070249,3.667277098592881,2.319616919806305,3.02082711542888,-0.2296387610181456,0.128844885,-0.981137625,0.25958185500000003,1.9227599999999998,1.35814,5.646199999999999,71.0
1774822337.322595,6.9141387939453125e-06,2026-03-29T22:12:17.322,2026-03-29T18:12:17.322,-33345.945,-47713.77,-85200.795,-50064.345,-14504.715,-19163.16,5855.715,-65728.44,0.22892133273177068,1.0282714800837485,2.1452071821283663,3.723761608280531,2.6155413018024634,1.2753165620071312,0.66680306817375,-0.4098966067957416,0.128844885,-0.981137625,0.25958185500000003,1.9227599999999998,1.35814,5.646199999999999,71.0
1774822337.3226032,8.344650268554688e-06,2026-03-29T22:12:17.322,2026-03-29T18:12:17.322,-33355.305,-47710.215,-85193.37,-50062.68,-14506.289999999999,-19163.969999999998,5857.74,-65742.795,0.1108666795720827,0.8065315811715462,2.1980495250465513,1.6197252063610412,0.4017356055872364,-0.30196165757579563,-2.0319140563734783,-0.4381227140924983,0.128844885,-0.981137625,0.25958185500000003,1.9227599999999998,1.35814,5.646199999999999,71.0
1774822337.3226097,6.4373016357421875e-06,2026-03-29T22:12:17.322,2026-03-29T18:12:17.322,-33365.159999999996,-47718.494999999995,-85210.83,-50060.025,-14500.89,-19163.295,5853.0599999999995,-65756.565,-0.029299374882513496,0.22451165396790504,1.2972749814387412,-1.238258446811019,-2.018845261580017,-1.7169832081702816,-3.731154216908488,-0.20821542767039236,0.128844885,-0.981137625,0.25958185500000003,1.9227599999999998,1.35814,5.646199999999999,71.0
1774822337.3276992,0.005089521408081055,2026-03-29T22:12:17.327,2026-03-29T18:12:17.327,-33359.04,-47715.659999999996,-85202.28,-50048.729999999996,-14496.705,-19164.78,5843.07,-65749.095,-0.07064093493870499,-0.41463142927540353,-0.1013904550714997,-3.5687044596354878,-3.5784086158839106,-2.3584853157859222,-3.581292982377808,0.23640195000344838,0.128844885,-0.981137625,0.25958185500000003,1.9227599999999998,1.35814,5.646199999999999,71.0
1774822337.3277147,1.5497207641601562e-05,2026-03-29T22:12:17.327,2026-03-29T18:12:17.327,-33359.354999999996,-47719.439999999995,-85202.50499999999,-50046.345,-14496.435,-19165.545,5851.844999999999,-65747.47499999999,0.02404459020964571,-0.8004216101500793,-1.3525404773412537,-4.307438999214326,-3.572065880538197,-1.9645366610545485,-1.6500368946496682,0.6979982171160491,0.128844885,-0.981137625,0.25958185500000003,1.9227599999999998,1.35814,5.646199999999999,71.0
1774822337.329986,0.002271413803100586,2026-03-29T22:12:17.329,2026-03-29T18:12:17.329,-33360.03,-47724.345,-85221.22499999999,-50063.085,-14501.475,-19163.385,5866.875,-65746.305,0.18624405695796872,-0.7629323155085517,-1.9159911216815884,-3.1015285878154644,-1.9826297088406895,-0.7295757296868941,1.1108405378526773,0.9171035941131148,0.128844885,-0.981137625,0.25958185500000003,1.9227599999999998,1.35814,5.646199999999999,71.0
1774822337.3300023,1.621246337890625e-05,2026-03-29T22:12:17.330,2026-03-29T18:12:17.330,-33354.765,-47719.215,-85217.535,-50062.005,-14499.18,-19157.13,5869.575,-65739.375,0.286532789510097,-0.3471004954618904,-1.5902687176584613,-0.48518463935690054,0.49748183662778805,0.7903903713125361,3.3370318570419317,0.7169533030643652,0.128844885,-0.981137625,0.25958185500000003,1.9227599999999998,1.35814,5.646199999999999,71.0
1774822337.34072,0.010717630386352539,2026-03-29T22:12:17.340,2026-03-29T18:12:17.340,-33356.295,-47725.875,-85220.415,-50045.895,-14483.43,-19144.44,5873.13,-65738.97,0.21849914400526996,0.21865467186640258,-0.5837556181770887,2.352944746205277,2.7658522738638367,1.9284116774378497,3.926469786806152,0.12006552063017431,0.128844885,-0.981137625,0.25958185500000003,1.9227599999999998,1.35814,5.646199999999999,71.0
1774822337.340738,1.811981201171875e-05,2026-03-29T22:12:17.340,2026-03-29T18:12:17.340,-33359.265,-47726.369999999995,-85224.555,-50053.68,-14489.64,-19153.079999999998,5863.41,-65744.45999999999,-0.02787498438828537,0.6410149498013423,0.6015955352641934,4.1118857035465135,3.8027022971812654,2.1998843177966783,2.583000857911818,-0.633348810820409,0.128844885,-0.981137625,0.25958185500000003,1.9227599999999998,1.35814,5.646199999999999,71.0
1774822337.3407526,1.4543533325195312e-05,2026-03-29T22:12:17.340,2026-03-29T18:12:17.340,-33359.174999999996,-47717.055,-85205.655,-50058.09,-14499.63,-19162.35,5852.474999999999,-65749.31999999999,-0.3470831289037248,0.7084068775233662,1.4141318615768896,3.981905508153135,3.135409588661554,1.5094083434649315,-0.038601353178825897,-1.1856398238891304,0.13269009,-0.97692621,0.26086359,-0.6714399999999999,2.25848,7.15694,71.0
1774822337.3407593,6.67572021484375e-06,2026-03-29T22:12:17.340,2026-03-29T18:12:17.340,-33358.68,-47717.055,-85204.395,-50047.695,-14496.39,-19161.809999999998,5851.08,-65748.465,-0.5667704384269703,0.39448198825981867,1.5081604200826657,2.0264326621077347,1.060727387288765,0.1829749003191108,-2.6555928834620666,-1.2367888966083538,0.13269009,-0.97692621,0.26086359,-0.6714399999999999,2.25848,7.15694,71.0
1774822337.340768,8.821487426757812e-06,2026-03-29T22:12:17.340,2026-03-29T18:12:17.340,-33359.085,-47721.24,-85209.48,-50049.72,-14495.355,-19158.12,5856.255,-65742.435,-0.5400305555818077,-0.13113806491441188,0.8934522433454193,-0.8418544637619133,-1.4826972458074823,-1.1844564523216246,-3.986944788020356,-0.7063077177460095,0.13269009,-0.97692621,0.26086359,-0.6714399999999999,2.25848,7.15694,71.0
1774822337.3407743,6.198883056640625e-06,2026-03-29T22:12:17.340,2026-03-29T18:12:17.340,-33366.69,-47732.625,-85225.77,-50058.765,-14494.769999999999,-19157.219999999998,5855.715,-65748.555,-0.2321508622222549,-0.5894689347765398,-0.0873458921706777,-3.2854809370656466,-3.3390312054707025,-1.9952287817102865,-3.37945217672439,0.20500368527539978,0.13269009,-0.97692621,0.26086359,-0.6714399999999999,2.25848,7.15694,71.0
1774822337.3572495,0.016475200653076172,2026-03-29T22:12:17.357,2026-03-29T18:12:17.357,-33361.74,-47722.365,-85211.64,-50065.92,-14502.555,-19162.44,5855.175,-65744.73,0.24623734663096206,-0.7336781035611253,-0.93755305737939,-4.170608889649555,-3.6651826647613523,-1.910338921513236,-1.1244952435088738,1.0928167894004779,0.13269009,-0.97692621,0.26086359,-0.6714399999999999,2.25848,7.15694,71.0
1774822337.3572693,1.9788742065429688e-05,2026-03-29T22:12:17.357,2026-03-29T18:12:17.357,-33356.52,-47717.055,-85214.11499999999,-50078.07,-14513.715,-19171.395,5856.615,-65742.93,0.6808900591676456,-0.4761108433961228,-1.2523746232300033,-3.1021563644403356,-2.321034653886842,-0.9918120885264753,1.6864855700877746,1.53523468963316,0.13269009,-0.97692621,0.26086359,-0.6714399999999999,2.25848,7.15694,71.0
1774822337.3572872,1.7881393432617188e-05,2026-03-29T22:12:17.357,2026-03-29T18:12:17.357,-33356.565,-47724.93,-85227.97499999999,-50071.814999999995,-14506.244999999999,-19166.715,5860.62,-65741.44499999999,0.8533076999111996,0.062420610948323886,-0.9122785182789597,-0.60903989972064,0.06386253220802106,0.33374182884601944,3.693822839213813,1.2982741766016455,0.13269009,-0.97692621,0.26086359,-0.6714399999999999,2.25848,7.15694,71.0
1774822337.3572946,7.3909759521484375e-06,2026-03-29T22:12:17.357,2026-03-29T18:12:17.357,-33355.17,-47719.215,-85215.825,-50063.895,-14499.99,-19162.079999999998,5857.785,-65739.105,0.6499897119423785,0.6075007096807863,-0.13111284851412827,2.1115307195781017,2.3819343708879503,1.4709929057660842,3.9278013078452814,0.45854080386346474,0.13269009,-0.97692621,0.26086359,-0.6714399999999999,2.25848,7.15694,71.0
1774822337.3573027,8.106231689453125e-06,2026-03-29T22:12:17.357,2026-03-29T18:12:17.357,-33354.945,-47709.81,-85198.815,-50063.49,-14502.869999999999,-19165.905,5847.66,-65738.745,0.1270690308434025,0.866005064305647,0.6621931432265545,3.7696547750705474,3.563972899973246,1.9223084748006918,2.2742143342198586,-0.6209436071434326,0.13269009,-0.97692621,0.26086359,-0.6714399999999999,2.25848,7.15694,71.0
1774822337.3573084,5.7220458984375e-06,2026-03-29T22:12:17.357,2026-03-29T18:12:17.357,-33361.56,-47721.375,-85217.175,-50061.015,-14499.72,-19168.695,5842.485,-65746.17,-0.5037605753232112,0.6765895846785911,1.047630756996412,3.6011981762692478,3.078731661172246,1.506185104598043,-0.47487368387081713,-1.454120418191748,0.13269009,-0.97692621,0.26086359,-0.6714399999999999,2.25848,7.15694,71.0
1774822337.364941,0.00763249397277832,2026-03-29T22:12:17.364,2026-03-29T18:12:17.364,-33358.185,-47719.575,-85217.76,-50066.505,-14503.185,-19168.38,5848.469999999999,-65741.895,-0.9645531743318726,0.10104409796009464,0.8307629685381885,1.7295235694423896,1.1794809067887502,0.43176598895466173,-3.0051652604261396,-1.6577444479375216,0.13281216,-0.97009029,0.262023255,-1.7549,2.88414,8.118319999999999,71.0
1774822337.3649635,2.2649765014648438e-05,2026-03-29T22:12:17.364,2026-03-29T18:12:17.364,-33350.985,-47710.17,-85206.015,-50052.915,-14489.55,-19154.34,5860.71,-65736.405,-1.035911289725201,-0.5923563554458274,0.14227938180186878,-0.9051697155207331,-1.2205134721245972,-0.8018757745695089,-4.110511160640058,-1.131400277371856,0.13281216,-0.97009029,0.262023255,-1.7549,2.88414,8.118319999999999,71.0
1774822337.364987,2.3365020751953125e-05,2026-03-29T22:12:17.364,2026-03-29T18:12:17.364,-33353.145,-47717.595,-85214.295,-50062.634999999995,-14492.97,-19153.305,5867.1449999999995,-65734.515,-0.6600304564915574,-1.0513300699676753,-0.6310918072483872,-3.013353191198497,-2.9853135336414787,-1.6349165629295637,-3.2662952232818174,-0.10528957228154162,0.13281216,-0.97009029,0.262023255,-1.7549,2.88414,8.118319999999999,71.0
1774822337.3649993,1.239776611328125e-05,2026-03-29T22:12:17.364,2026-03-29T18:12:17.364,-33357.42,-47720.295,-85217.895,-50072.805,-14504.355,-19165.364999999998,5857.785,-65743.155,0.025889298545262666,-1.0131180843841578,-1.0507493776640777,-3.5898992375961054,-3.297825454252043,-1.700526847616127,-0.8740515716293329,0.9663461872003819,0.13281216,-0.97009029,0.262023255,-1.7549,2.88414,8.118319999999999,71.0
1774822337.3831441,0.018144845962524414,2026-03-29T22:12:17.383,2026-03-29T18:12:17.383,-33357.51,-47714.805,-85202.73,-50060.79,-14498.144999999999,-19161.989999999998,5852.429999999999,-65743.33499999999,0.7423108169773147,-0.4456486420625077,-0.861989950918054,-2.401356158718654,-2.045683951858462,-0.9885350217229103,1.9345113177183895,1.6139999062854908,0.13281216,-0.97009029,0.262023255,-1.7549,2.88414,8.118319999999999,71.0
1774822337.3831596,1.5497207641601562e-05,2026-03-29T22:12:17.383,2026-03-29T18:12:17.383,-33354.27,-47712.735,-85200.84,-50065.335,-14499.945,-19161.63,5856.974999999999,-65737.395,1.1839796762133754,0.4164387303709739,-0.13892256548569398,-0.08689189198226845,0.1341591778949591,0.15488740228739845,3.8360542960556203,1.5641520637867083,0.13281216,-0.97009029,0.262023255,-1.7549,2.88414,8.118319999999999,71.0
1774822337.383172,1.239776611328125e-05,2026-03-29T22:12:17.383,2026-03-29T18:12:17.383,-33346.89,-47706.479999999996,-85195.215,-50053.77,-14490.09,-19158.795,5858.955,-65733.12,1.1502521717389282,1.166613032708561,0.7407910103674626,2.1744531122363284,2.172806628059861,1.190965208361433,3.9389826824507,0.8550966493894135,0.13281216,-0.97009029,0.262023255,-1.7549,2.88414,8.118319999999999,71.0
1774822337.383176,4.0531158447265625e-06,2026-03-29T22:12:17.383,2026-03-29T18:12:17.383,-33349.455,-47706.75,-85192.56,-50041.395,-14478.93,-19152.27,5871.285,-65736.135,0.6333023006873127,1.414994884610852,1.2852051358090082,3.2609341116672423,3.093201115352318,1.6400542279498076,2.1982369516626203,-0.19196821327277994,0.13281216,-0.97009029,0.262023255,-1.7549,2.88414,8.118319999999999,71.0
1774822337.3831816,5.4836273193359375e-06,2026-03-29T22:12:17.383,2026-03-29T18:12:17.383,-33354.09,-47710.305,-85198.095,-50054.31,-14487.39,-19154.43,5865.929999999999,-65738.295,-0.17316312950140497,0.9845446787584367,1.1493961417144134,2.668398449346432,2.4837295862842383,1.3048381887485083,-0.5696855677946835,-1.1261118772957754,0.13281216,-0.97009029,0.262023255,-1.7549,2.88414,8.118319999999999,71.0
1774822337.3831854,3.814697265625e-06,2026-03-29T22:12:17.383,2026-03-29T18:12:17.383,-33356.205,-47714.939999999995,-85213.305,-50079.555,-14504.894999999999,-19166.175,5832.0,-65745.63,-0.9484800478087276,0.018546288332643397,0.334622394367281,0.7520299375700698,0.6896910529755287,0.36070954387003945,-3.073319498351876,-1.56750382630382,0.13281216,-0.97009029,0.262023255,-1.7549,2.88414,8.118319999999999,71.0
1774822337.38319,4.5299530029296875e-06,2026-03-29T22:12:17.383,2026-03-29T18:12:17.383,-33353.46,-47715.165,-85212.18,-50071.5,-14496.615,-19160.19,5831.1449999999995,-65740.995,-1.3726564404276687,-1.0608321176855922,-0.7837720291925961,-1.4700635849728423,-1.3700304961986418,-0.7298429892954347,-4.149724915547981,-1.3629940654821409,0.13110318,-0.962705055,0.262023255,-3.1283,2.22796,8.91184,71.0
1774822337.3831935,3.5762786865234375e-06,2026-03-29T22:12:17.383,2026-03-29T18:12:17.383,-33348.825,-47711.43,-85208.265,-50058.27,-14484.105,-19150.605,5853.24,-65735.235,-1.256034146902737,-1.7348498967207449,-1.625933673937423,-2.848110371196119,-2.6679606698959866,-1.4394870075693824,-3.302659816445718,-0.6319180633260738,0.13110318,-0.962705055,0.262023255,-3.1283,2.22796,8.91184,71.0
1774822337.383198,4.5299530029296875e-06,2026-03-29T22:12:17.383,2026-03-29T18:12:17.383,-33356.744999999995,-47719.305,-85220.81999999999,-50068.395,-14488.74,-19155.195,5869.26,-65743.2,-0.6197758206727019,-1.6337831541200665,-1.699492021763107,-2.6930090316210253,-2.581497965843345,-1.4300166006571902,-0.9276673322542814,0.3067278239745973,0.13110318,-0.962705055,0.262023255,-3.1283,2.22796,8.91184,71.0
1774822337.3832016,3.5762786865234375e-06,2026-03-29T22:12:17.383,2026-03-29T18:12:17.383,-33356.97,-47723.49,-85228.2,-50076.9,-14496.164999999999,-19162.844999999998,5868.54,-65742.345,0.30473854270840683,-0.7310816705680718,-0.8701054553628484,-1.1253374899918105,-1.19771675448276,-0.7161922254890062,1.8759572551213353,1.0809243099019579,0.13110318,-0.962705055,0.262023255,-3.1283,2.22796,8.91184,71.0
1774822337.3876903,0.004488706588745117,2026-03-29T22:12:17.387,2026-03-29T18:12:17.387,-33348.33,-47717.82,-85220.595,-50062.365,-14486.939999999999,-19160.145,5859.495,-65734.785,1.1588558735374814,0.6128325080089831,0.5324246974913962,0.9977383037275619,0.742502306892069,0.341098039456528,3.815365435307233,1.4149288936619002,0.13110318,-0.962705055,0.262023255,-3.1283,2.22796,8.91184,71.0
1774822337.387714,2.3603439331054688e-05,2026-03-29T22:12:17.387,2026-03-29T18:12:17.387,-33349.815,-47716.515,-85207.095,-50057.549999999996,-14488.064999999999,-19163.835,5851.08,-65735.37,1.5924963861735277,1.7909887876464927,1.8409984104787085,2.5383330983133767,2.23086497375938,1.2114951832714647,3.999310354522389,1.220000274395832,0.13110318,-0.962705055,0.262023255,-3.1283,2.22796,8.91184,71.0
1774822337.3983831,0.010669231414794922,2026-03-29T22:12:17.398,2026-03-29T18:12:17.398,-33358.994999999995,-47720.88,-85215.465,-50067.9,-14488.064999999999,-19158.66,5855.085,-65747.97,1.4032567588769598,2.221766443538202,2.3647364227629986,2.6785990181788106,2.5108047834915683,1.4575685813009076,2.345169177128135,0.6011955684261364,0.13110318,-0.962705055,0.262023255,-3.1283,2.22796,8.91184,71.0
1774822337.3984046,2.1457672119140625e-05,2026-03-29T22:12:17.398,2026-03-29T18:12:17.398,-33356.52,-47716.65,-85214.745,-50063.715,-14477.49,-19146.239999999998,5863.23,-65747.565,0.6260493573996153,1.6316018128879644,1.7434944226958373,1.3523923668584203,1.4637878075321678,0.9545955858108331,-0.38646479646457677,-0.20506214776659132,0.13110318,-0.962705055,0.262023255,-3.1283,2.22796,8.91184,71.0
1774822337.3984268,2.2172927856445312e-05,2026-03-29T22:12:17.398,2026-03-29T18:12:17.398,-33359.895,-47731.095,-85243.095,-50052.825,-14470.38,-19150.469999999998,5859.8099999999995,-65748.78,-0.46406800465661674,0.21288817007944894,0.16523949415642164,-0.7192331021304492,-0.33534113978443586,-0.04275407574206964,-2.9426558896153283,-0.9239971342055767,0.13110318,-0.962705055,0.262023255,-3.1283,2.22796,8.91184,71.0
1774822337.3984387,1.1920928955078125e-05,2026-03-29T22:12:17.398,2026-03-29T18:12:17.398,-33363.45,-47734.155,-85242.19499999999,-50043.825,-14465.295,-19151.415,5854.41,-65751.66,-1.4435666819321638,-1.4292041773276625,-1.676242854801156,-2.409633562001666,-1.922591280732361,-1.0238336889646829,-4.152267728901711,-1.3275375783964911,0.13110318,-0.962705055,0.262023255,-3.1283,2.22796,8.91184,71.0
1774822337.3984532,1.4543533325195312e-05,2026-03-29T22:12:17.398,2026-03-29T18:12:17.398,-33353.549999999996,-47705.715,-85183.515,-50059.845,-14477.445,-19146.015,5859.63,-65740.23,-1.8992498372255429,-2.532442156426093,-2.8840291446848907,-2.787113885865246,-2.4517129507840125,-1.4780756937429211,-3.4609792500233763,-1.2901862629545549,0.129333165,-0.9594702,0.26245050000000003,-2.1669199999999997,2.10588,9.568019999999999,71.0
1774822337.3984652,1.1920928955078125e-05,2026-03-29T22:12:17.398,2026-03-29T18:12:17.398,-33350.715,-47707.74,-85198.905,-50073.615,-14488.064999999999,-19153.98,5852.474999999999,-65737.53,-1.5980260775394814,-2.529120995610667,-2.7904150041142195,-1.6186267984430767,-1.640664334247223,-1.1574036252439688,-1.1839387864785538,-0.8137537505407477,0.129333165,-0.9594702,0.26245050000000003,-2.1669199999999997,2.10588,9.568019999999999,71.0
1774822337.408922,0.01045680046081543,2026-03-29T22:12:17.408,2026-03-29T18:12:17.408,-33354.494999999995,-47720.43,-85220.09999999999,-50052.465,-14471.369999999999,-19151.594999999998,5841.719999999999,-65743.065,-0.600515754186327,-1.3324594397656326,-1.3125037247499944,0.4922539323726578,0.07628689544437431,-0.21130394066704938,1.638245867339251,-0.027530539516640196,0.129333165,-0.9594702,0.26245050000000003,-2.1669199999999997,2.10588,9.568019999999999,71.0
1774822337.4089358,1.3828277587890625e-05,2026-03-29T22:12:17.408,2026-03-29T18:12:17.408,-33352.965,-47716.02,-85212.0,-50046.975,-14466.105,-19149.614999999998,5847.255,-65743.605,0.7346390535634527,0.5844576791247856,0.953467215014842,2.4127422796224316,1.7735831468799517,0.8788475813370533,3.7143668121009417,0.8337414877334673,0.129333165,-0.9594702,0.26245050000000003,-2.1669199999999997,2.10588,9.568019999999999,71.0
1774822337.408948,1.2159347534179688e-05,2026-03-29T22:12:17.408,2026-03-29T18:12:17.408,-33354.72,-47711.97,-85212.315,-50066.64,-14475.6,-19152.27,5858.73,-65750.22,1.8710320796677495,2.370869091874768,2.967734938292192,3.078802799991106,2.5227713218168617,1.5394718228128539,4.0923979201543705,1.4795842241736386,0.129333165,-0.9594702,0.26245050000000003,-2.1669199999999997,2.10588,9.568019999999999,71.0
1774822337.4089522,4.291534423828125e-06,2026-03-29T22:12:17.408,2026-03-29T18:12:17.408,-33352.965,-47706.975,-85208.04,-50079.375,-14482.619999999999,-19152.765,5865.66,-65747.97,2.3042365148949635,3.1742990489979834,3.7223748217436814,2.071629300440798,1.8903754936753627,1.4012390466062299,2.595748239814455,1.6454792158480132,0.129333165,-0.9594702,0.26245050000000003,-2.1669199999999997,2.10588,9.568019999999999,71.0
1774822337.4231377,0.014185428619384766,2026-03-29T22:12:17.423,2026-03-29T18:12:17.423,-33347.34,-47700.54,-85192.65,-50061.555,-14475.914999999999,-19149.885,5859.855,-65742.3,1.7824458181673404,2.5451493268261274,2.740176933648514,-0.13508184271447488,0.18179109747456237,0.5009984875908713,-0.09350596045095325,1.1948092488262352,0.129333165,-0.9594702,0.26245050000000003,-2.1669199999999997,2.10588,9.568019999999999,71.0
1774822337.4231524,1.4781951904296875e-05,2026-03-29T22:12:17.423,2026-03-29T18:12:17.423,-33350.265,-47707.244999999995,-85204.53,-50067.674999999996,-14478.48,-19153.89,5859.315,-65745.045,0.4432816311758962,0.67894430485642,0.35246030846754184,-2.3978378954707056,-1.7036400995493122,-0.7196418310744621,-2.7440597810165452,0.2056549169189229,0.129333165,-0.9594702,0.26245050000000003,-2.1669199999999997,2.10588,9.568019999999999,71.0
1774822337.4231656,1.3113021850585938e-05,2026-03-29T22:12:17.423,2026-03-29T18:12:17.423,-33347.79,-47710.619999999995,-85210.73999999999,-50072.985,-14482.98,-19155.735,5865.12,-65736.72,-1.2044295045026723,-1.6309472083270975,-2.3982187186313095,-3.491512919095088,-2.7388831023136326,-1.6273405428170706,-4.138171526125598,-1.0068682369303672,0.129333165,-0.9594702,0.26245050000000003,-2.1669199999999997,2.10588,9.568019999999999,71.0
1774822337.423171,5.4836273193359375e-06,2026-03-29T22:12:17.423,2026-03-29T18:12:17.423,-33350.445,-47719.53,-85223.34,-50083.604999999996,-14489.279999999999,-19159.785,5865.12,-65734.02,-2.4656359324031114,-3.3279805800405393,-4.21126829966131,-2.762054580481085,-2.317724677417927,-1.720478097129413,-3.6315168423921116,-1.9696826895951993,0.129333165,-0.9594702,0.26245050000000003,-2.1669199999999997,2.10588,9.568019999999999,71.0
1774822337.4231784,7.3909759521484375e-06,2026-03-29T22:12:17.423,2026-03-29T18:12:17.423,-33344.19,-47711.97,-85214.205,-50073.345,-14482.619999999999,-19156.41,5861.429999999999,-65729.88,-2.7485623137776853,-3.574922297330452,-4.1415792233126085,-0.4998114540576001,-0.5964932611765068,-0.8997567137157496,-1.4528443577306012,-2.2274039957017204,0.127990395,-0.956357415,0.26440362,-0.6103999999999999,1.84646,8.667679999999999,71.0
1774822337.4231844,5.9604644775390625e-06,2026-03-29T22:12:17.423,2026-03-29T18:12:17.423,-33360.75,-47711.97,-85207.36499999999,-50059.845,-14470.019999999999,-19147.59,5865.4349999999995,-65749.68,-1.8403410885511342,-2.1644012229016587,-2.0848872371427842,2.173587833664618,1.559115830324683,0.45772393114408616,1.396806711336326,-1.5548383276498356,0.127990395,-0.956357415,0.26440362,-0.6103999999999999,1.84646,8.667679999999999,71.0
1774822337.4307053,0.007520914077758789,2026-03-29T22:12:17.430,2026-03-29T18:12:17.430,-33357.555,-47709.36,-85203.62999999999,-50052.689999999995,-14464.664999999999,-19144.079999999998,5861.655,-65747.745,-0.04134189467130836,0.34269962200311677,1.1112968295343275,3.8622704153243075,3.0072894806369703,1.669488636598486,3.602491115594528,-0.10845294808752204,0.127990395,-0.956357415,0.26440362,-0.6103999999999999,1.84646,8.667679999999999,71.0
1774822337.4307191,1.3828277587890625e-05,2026-03-29T22:12:17.430,2026-03-29T18:12:17.430,-33353.055,-47709.09,-85204.44,-50058.54,-14469.164999999999,-19147.5,5858.594999999999,-65743.02,1.919815992547168,2.834552235902849,3.991563203800492,3.6199540536551433,2.927426880765792,2.0874401897163626,4.142634093000326,1.574709072253856,0.127990395,-0.956357415,0.26440362,-0.6103999999999999,1.84646,8.667679999999999,71.0
1774822337.4307327,1.3589859008789062e-05,2026-03-29T22:12:17.430,2026-03-29T18:12:17.430,-33356.744999999995,-47715.435,-85218.705,-50065.155,-14474.16,-19152.945,5855.085,-65745.63,3.1759556026975893,4.140569921474743,5.155011571226776,1.4669975291079727,1.2717524584932083,1.4384854099332187,2.7648322946967125,2.7636072283562805,0.127990395,-0.956357415,0.26440362,-0.6103999999999999,1.84646,8.667679999999999,71.0
1774822337.4307392,6.4373016357421875e-06,2026-03-29T22:12:17.430,2026-03-29T18:12:17.430,-33352.515,-47716.11,-85222.44,-50058.27,-14467.005,-19147.545,5856.525,-65741.31,3.1037642343160345,3.581331168631889,3.9353258200484613,-1.5771491722991384,-1.1726590559912948,-0.010862969205093598,0.10738436163197941,2.8484241771390355,0.127990395,-0.956357415,0.26440362,-0.6103999999999999,1.84646,8.667679999999999,71.0
1774822337.430744,4.76837158203125e-06,2026-03-29T22:12:17.430,2026-03-29T18:12:17.430,-33349.14,-47714.939999999995,-85214.43,-50066.729999999996,-14474.654999999999,-19152.63,5858.955,-65736.045,1.6309781452401588,1.3180730516315358,0.769202427873347,-3.9805450838152714,-3.15933979512766,-1.5607104638540001,-2.593805685777631,1.6498285350801436,0.127990395,-0.956357415,0.26440362,-0.6103999999999999,1.84646,8.667679999999999,71.0
1774822337.4307477,3.814697265625e-06,2026-03-29T22:12:17.430,2026-03-29T18:12:17.430,-33352.02,-47716.695,-85223.34,-50080.59,-14488.605,-19166.85,5855.67,-65741.175,-0.6822760729229399,-1.6764131454028721,-2.9456561375696126,-4.470364597536152,-3.6157061722433577,-2.414440772655314,-4.079979205255825,-0.43335301392096975,0.127990395,-0.956357415,0.26440362,-0.6103999999999999,1.84646,8.667679999999999,71.0
1774822337.4468226,0.01607489585876465,2026-03-29T22:12:17.446,2026-03-29T18:12:17.446,-33368.13,-47730.195,-85237.29,-50073.39,-14480.55,-19164.87,5853.42,-65758.14,-2.8476737577420215,-4.033495635963751,-5.465911762446857,-2.700366332999971,-2.2131524813322785,-2.084380282214105,-3.658958649251714,-2.536790286895891,0.127990395,-0.956357415,0.26440362,-0.6103999999999999,1.84646,8.667679999999999,71.0
1774822337.4468427,2.002716064453125e-05,2026-03-29T22:12:17.446,2026-03-29T18:12:17.446,-33368.805,-47724.39,-85220.91,-50059.034999999996,-14469.84,-19155.6,5853.735,-65762.81999999999,-3.8692627853481496,-4.614932187016952,-5.521732778915944,0.5334232298440227,0.42585497093478775,-0.661219685586616,-1.5320033953715642,-3.68523869953957,0.127990395,-0.956357415,0.26440362,-0.6103999999999999,1.84646,8.667679999999999,71.0
1774822337.4468596,1.6927719116210938e-05,2026-03-29T22:12:17.446,2026-03-29T18:12:17.446,-33352.92,-47715.795,-85225.68,-50071.905,-14478.345,-19158.21,5851.304999999999,-65748.42,-3.202552482802106,-3.0630560254444985,-2.954792921609878,3.6547010127861004,3.005743697332014,1.1984563468197929,1.2984951299082876,-3.245958672506296,0.12365691000000001,-0.9536718750000001,0.26525811,-2.10588,1.26658,6.07348,71.0
1774822337.4468665,6.9141387939453125e-06,2026-03-29T22:12:17.446,2026-03-29T18:12:17.446,-33344.19,-47715.479999999996,-85229.325,-50056.965,-14466.734999999999,-19152.0,5854.094999999999,-65734.47,-1.0400887184600398,-0.008889476052514503,1.144428391044206,5.079977702631077,4.1959631491859115,2.5749677695357907,3.5002435603573114,-1.2695227877645876,0.12365691000000001,-0.9536718750000001,0.26525811,-2.10588,1.26658,6.07348,71.0
1774822337.4468749,8.344650268554688e-06,2026-03-29T22:12:17.446,2026-03-29T18:12:17.446,-33333.525,-47704.68,-85214.87999999999,-50062.229999999996,-14473.845,-19155.329999999998,5860.304999999999,-65720.205,1.7245896770487725,3.1787065368584093,4.894705334403219,4.021332979305382,3.31388134645333,2.7390493444938517,4.04044735046824,1.4628386068086803,0.12365691000000001,-0.9536718750000001,0.26525811,-2.10588,1.26658,6.07348,71.0
1774822337.446881,6.198883056640625e-06,2026-03-29T22:12:17.446,2026-03-29T18:12:17.446,-33344.28,-47698.875,-85193.09999999999,-50057.369999999995,-14466.015,-19143.18,5867.099999999999,-65733.75,3.862585698735239,5.006521442432242,6.488240922324382,0.9118477484397518,0.7030141498869337,1.5327868410762802,2.675035628870548,3.740585674444802,0.12365691000000001,-0.9536718750000001,0.26525811,-2.10588,1.26658,6.07348,71.0
1774822337.4468887,7.62939453125e-06,2026-03-29T22:12:17.446,2026-03-29T18:12:17.446,-33360.345,-47712.33,-85210.02,-50058.09,-14459.13,-19134.989999999998,5869.485,-65749.72499999999,4.357394346767161,4.558536933368862,5.064093343273566,-2.7723227850890586,-2.398356660095735,-0.5190739777516454,0.06364203360753495,4.462020315222086,0.12365691000000001,-0.9536718750000001,0.26525811,-2.10588,1.26658,6.07348,71.0
1774822337.446895,6.198883056640625e-06,2026-03-29T22:12:17.446,2026-03-29T18:12:17.446,-33354.765,-47717.055,-85224.69,-50075.055,-14477.22,-19153.62,5860.575,-65743.155,2.8900653021376344,1.9552346292775167,1.1683372370730882,-5.219550272695236,-4.449206519342171,-2.436990721504136,-2.5463020443010853,3.169190639603467,0.12365691000000001,-0.9536718750000001,0.26525811,-2.10588,1.26658,6.07348,71.0
1774822337.451754,0.004859209060668945,2026-03-29T22:12:17.451,2026-03-29T18:12:17.451,-33359.805,-47729.97,-85241.47499999999,-50095.08,-14497.695,-19174.545,5840.639999999999,-65750.22,0.02936300587270611,-1.6596188457376686,-3.4427381592560957,-5.17750917526173,-4.373096349241725,-3.2548956515389564,-3.916437033518459,0.31878691534689113,0.12365691000000001,-0.9536718750000001,0.26525811,-2.10588,1.26658,6.07348,71.0
1774822337.451778,2.384185791015625e-05,2026-03-29T22:12:17.451,2026-03-29T18:12:17.451,-33345.765,-47717.46,-85228.605,-50087.7,-14495.22,-19173.059999999998,5826.96,-65737.125,-2.9814705824883907,-4.619593000078579,-6.593220285315088,-2.591192048274753,-2.1177373508568285,-2.5045318599211677,-3.4092561287599703,-2.8647837373429885,0.12365691000000001,-0.9536718750000001,0.26525811,-2.10588,1.26658,6.07348,71.0
1774822337.4576635,0.005885601043701172,2026-03-29T22:12:17.457,2026-03-29T18:12:17.457,-33357.51,-47709.45,-85211.81999999999,-50064.659999999996,-14470.244999999999,-19152.495,5831.865,-65758.995,-4.765673430017998,-5.505776275871031,-6.717109167649078,1.3399255910555437,1.2821855856998683,-0.47373879555959053,-1.2899372447104558,-4.915909448629712,0.12365691000000001,-0.9536718750000001,0.26525811,-2.10588,1.26658,6.07348,71.0
1774822337.4576802,1.6689300537109375e-05,2026-03-29T22:12:17.457,2026-03-29T18:12:17.457,-33365.025,-47708.775,-85205.47499999999,-50053.77,-14460.345,-19142.684999999998,5852.745,-65767.005,-4.446158158486459,-3.82993952165985,-3.6388120873027443,4.7254605751782455,4.185200893309315,1.9003311977915083,1.4072839969999864,-4.807330167871606,0.12365691000000001,-0.9536718750000001,0.26525811,-2.10588,1.26658,6.07348,71.0
1774822337.457696,1.5735626220703125e-05,2026-03-29T22:12:17.457,2026-03-29T18:12:17.457,-33362.685,-47714.715,-85218.3,-50066.729999999996,-14468.13,-19150.92,5873.445,-65758.59,-2.0781140775857474,-0.30060511912509397,1.2850173581699402,5.900006172746442,5.14065660895642,3.465399973416198,3.382902904247523,-2.4653721093904895,0.12023895,-0.951840825,0.26538018,-3.92182,-0.32045999999999997,4.6543,71.0
1774822337.457703,7.152557373046875e-06,2026-03-29T22:12:17.457,2026-03-29T18:12:17.457,-33364.485,-47720.07,-85228.83,-50076.54,-14476.41,-19156.364999999998,5871.0599999999995,-65761.33499999999,1.3330181784078012,3.4716316207112903,5.758891546692513,4.244217577441659,3.6136307482937027,3.4135108283782003,3.7009868393504597,1.1380328896155367,0.12023895,-0.951840825,0.26538018,-3.92182,-0.32045999999999997,4.6543,71.0
1774822337.462496,0.004792928695678711,2026-03-29T22:12:17.462,2026-03-29T18:12:17.462,-33353.235,-47716.38,-85230.94499999999,-50076.494999999995,-14478.57,-19158.795,5863.455,-65749.59,4.257229541795996,5.709807850695415,7.620213326694073,0.5052387592318852,0.27459568617625774,1.6937831453932566,2.237332595395196,4.386600610464735,0.12023895,-0.951840825,0.26538018,-3.92182,-0.32045999999999997,4.6543,71.0
1774822337.4625258,2.9802322387695312e-05,2026-03-29T22:12:17.462,2026-03-29T18:12:17.462,-33346.44,-47716.02,-85232.52,-50077.259999999995,-14480.775,-19162.17,5853.96,-65741.265,5.3298863081344,5.311191720840422,5.8885445043740035,-3.546937828988307,-3.299536940662082,-0.9308071719365224,-0.27000615043670095,5.749811780310177,0.12023895,-0.951840825,0.26538018,-3.92182,-0.32045999999999997,4.6543,71.0
1774822337.4680948,0.005568981170654297,2026-03-29T22:12:17.468,2026-03-29T18:12:17.468,-33337.845,-47712.015,-85231.08,-50075.64,-14481.945,-19164.555,5845.7699999999995,-65731.455,3.993192248801204,2.3936985557683195,1.2818252500639478,-5.965726497346689,-5.377237974661684,-3.223673891448722,-2.5897745679216335,4.509668314559931,0.12023895,-0.951840825,0.26538018,-3.92182,-0.32045999999999997,4.6543,71.0
1774822337.46811,1.52587890625e-05,2026-03-29T22:12:17.468,2026-03-29T18:12:17.468,-33359.715,-47716.515,-85228.02,-50064.255,-14469.705,-19156.32,5844.285,-65760.3,0.7855591412926672,-1.7238605868977184,-4.071837098019879,-5.568086459716653,-4.915100777010534,-4.05913925630773,-3.6027223628043292,1.1363611243741423,0.12023895,-0.951840825,0.26538018,-3.92182,-0.32045999999999997,4.6543,71.0
1774822337.4703522,0.0022420883178710938,2026-03-29T22:12:17.470,2026-03-29T18:12:17.470,-33376.409999999996,-47719.935,-85225.905,-50060.475,-14460.57,-19146.645,5863.455,-65774.655,-2.870944683300432,-5.116710836870367,-7.616588539405369,-2.5119694964523465,-2.079333618350035,-2.973834661462274,-2.844937147803028,-2.8827779679062355,0.12023895,-0.951840825,0.26538018,-3.92182,-0.32045999999999997,4.6543,71.0
1774822337.4703653,1.3113021850585938e-05,2026-03-29T22:12:17.470,2026-03-29T18:12:17.470,-33364.53,-47724.975,-85244.58,-50072.985,-14469.84,-19153.35,5875.785,-65759.13,-5.303650935410582,-6.1566275015677565,-7.592453872756019,1.7703463017314793,1.81376403671161,-0.41521248405979533,-0.7238495863102101,-5.703035981682366,0.12023895,-0.951840825,0.26538018,-3.92182,-0.32045999999999997,4.6543,71.0
1774822337.4754577,0.0050923824310302734,2026-03-29T22:12:17.475,2026-03-29T18:12:17.475,-33369.299999999996,-47741.4,-85266.495,-50071.229999999996,-14470.064999999999,-19156.454999999998,5873.445,-65760.705,-5.359915909931415,-4.297690804698861,-3.9128860391265907,5.25230566234653,4.9165972045967115,2.4430391888427354,1.6953961889048392,-5.976266477227341,0.12023895,-0.951840825,0.26538018,-3.92182,-0.32045999999999997,4.6543,71.0
1774822337.4754715,1.3828277587890625e-05,2026-03-29T22:12:17.475,2026-03-29T18:12:17.475,-33366.645,-47738.97,-85255.73999999999,-50057.145,-14459.49,-19151.19,5868.719999999999,-65760.255,-2.9578000219788247,-0.36419203158150965,1.742830399604156,6.279254228240539,5.733568747093819,4.242257211913952,3.223063933763781,-3.500345999689099,0.12023895,-0.951840825,0.26538018,-3.92182,-0.32045999999999997,4.6543,71.0
1774822337.4858112,0.010339736938476562,2026-03-29T22:12:17.485,2026-03-29T18:12:17.485,-33363.63,-47725.244999999995,-85236.795,-50063.58,-14468.67,-19159.875,5860.889999999999,-65761.155,0.8482966010768095,3.811475941114948,6.6928483723016585,4.356587147946885,3.8433966064774268,4.08559045987091,3.1309961491619656,0.6509944581465349,0.119689635,-0.954038085,0.265563285,-6.60758,-2.39582,4.63904,71.0
1774822337.4858363,2.5033950805664062e-05,2026-03-29T22:12:17.485,2026-03-29T18:12:17.485,-33356.205,-47708.685,-85215.42,-50075.055,-14479.605,-19163.34,5856.66,-65755.53,4.331212891799035,6.243686328747131,8.526369709863426,0.3835224407336384,0.11080321155623171,1.9817894497178834,1.5022723697859741,4.595618445213043,0.119689635,-0.954038085,0.265563285,-6.60758,-2.39582,4.63904,71.0
1774822337.485881,4.482269287109375e-05,2026-03-29T22:12:17.485,2026-03-29T18:12:17.485,-33351.525,-47705.445,-85213.125,-50080.905,-14480.01,-19157.309999999998,5860.62,-65750.22,5.879725753899367,5.741799481890118,6.281777835528876,-3.7758601638146922,-3.7165608381590305,-1.1323633617672326,-0.8247949815158805,6.503376777741588,0.119689635,-0.954038085,0.265563285,-6.60758,-2.39582,4.63904,71.0
1774822337.4858913,1.0251998901367188e-05,2026-03-29T22:12:17.485,2026-03-29T18:12:17.485,-33354.585,-47712.33,-85222.89,-50076.45,-14478.029999999999,-19160.864999999998,5857.695,-65755.53,4.749962822536042,2.497051325242835,0.9516347516925916,-6.1755458298993595,-5.83430823538297,-3.8122182660135984,-2.6846291322477707,5.452832184645124,0.119689635,-0.954038085,0.265563285,-6.60758,-2.39582,4.63904,71.0
1774822337.4859035,1.2159347534179688e-05,2026-03-29T22:12:17.485,2026-03-29T18:12:17.485,-33355.215,-47712.78,-85224.51,-50072.13,-14478.119999999999,-19165.23,5852.429999999999,-65758.005,1.4263719432746083,-1.9829383870560287,-4.950769902472524,-5.70217251998939,-5.236161307531696,-4.77794182314636,-3.166911132069319,1.8797913812164273,0.119689635,-0.954038085,0.265563285,-6.60758,-2.39582,4.63904,71.0
1774822337.4859133,9.775161743164062e-06,2026-03-29T22:12:17.485,2026-03-29T18:12:17.485,-33355.395,-47712.869999999995,-85226.58,-50063.715,-14473.305,-19162.665,5853.825,-65758.72499999999,-2.584445264041521,-5.574311075585927,-8.576862136758102,-2.5894320566978446,-2.190410948512126,-3.5251784210825368,-2.06271915906029,-2.6022030065362385,0.119689635,-0.954038085,0.265563285,-6.60758,-2.39582,4.63904,71.0
1774822337.5043354,0.01842212677001953,2026-03-29T22:12:17.504,2026-03-29T18:12:17.504,-33359.94,-47722.68,-85236.525,-50053.77,-14464.619999999999,-19156.23,5862.285,-65756.745,-5.440130617460633,-6.546669929666947,-8.12063691083912,1.7042267858032103,1.8868178229702273,-0.5824325900844131,0.044771268078597284,-5.936181672729062,0.119689635,-0.954038085,0.265563285,-6.60758,-2.39582,4.63904,71.0
1774822337.504367,3.170967102050781e-05,2026-03-29T22:12:17.504,2026-03-29T18:12:17.504,-33360.075,-47723.58,-85242.645,-50058.18,-14465.34,-19154.655,5866.875,-65756.97,-5.814881905461497,-4.400824639637929,-3.7206617611575146,5.187664886129638,5.098386238771315,2.7138912758930682,2.084385942097752,-6.574038419132798,0.119689635,-0.954038085,0.265563285,-6.60758,-2.39582,4.63904,71.0
1774822337.5043907,2.3603439331054688e-05,2026-03-29T22:12:17.504,2026-03-29T18:12:17.504,-33360.93,-47721.96,-85232.025,-50052.689999999995,-14462.189999999999,-19151.954999999998,5869.62,-65757.69,-3.520634201443414,-0.12706376516999315,2.5655925128666786,6.266243506455291,5.954962868577624,4.829849755185571,3.038506072599182,-4.202131030450456,0.119689635,-0.954038085,0.265563285,-6.60758,-2.39582,4.63904,71.0
1774822337.5044017,1.0967254638671875e-05,2026-03-29T22:12:17.504,2026-03-29T18:12:17.504,-33358.32,-47716.515,-85221.0,-50056.875,-14468.49,-19154.565,5859.045,-65755.62,0.39644609461252933,4.2503696009544605,7.723428081438857,4.471705576869404,4.066494789681997,4.749232520851141,2.4491064328075125,0.10294802510074698,0.119689635,-0.954038085,0.265563285,-6.60758,-2.39582,4.63904,71.0
1774822337.5044148,1.3113021850585938e-05,2026-03-29T22:12:17.504,2026-03-29T18:12:17.504,-33355.665,-47711.564999999995,-85222.98,-50075.1,-14488.695,-19170.405,5848.065,-65755.44,4.134376401564964,6.633605449423175,9.228969341645033,0.6588643803556087,0.31497171238474125,2.459458651158747,0.637112691817165,4.366402211339672,0.12280242,-0.964353,0.269347455,-2.27374,-3.0672599999999997,5.69198,71.0
1774822337.5044255,1.0728836059570312e-05,2026-03-29T22:12:17.504,2026-03-29T18:12:17.504,-33357.195,-47713.545,-85229.64,-50079.509999999995,-14492.205,-19172.52,5854.995,-65755.08,5.9692181600849565,5.859638408517155,6.286389912597278,-3.409680848644641,-3.565427649960387,-1.0233823770579449,-1.4697104902092406,6.628604718211328,0.12280242,-0.964353,0.269347455,-2.27374,-3.0672599999999997,5.69198,71.0
1774822337.5044377,1.2159347534179688e-05,2026-03-29T22:12:17.504,2026-03-29T18:12:17.504,-33358.32,-47713.77,-85227.345,-50076.765,-14484.33,-19161.855,5860.98,-65753.595,5.056250008410311,2.2704656439957054,0.24627403886866198,-5.8852722566013815,-5.797148830190675,-4.10909696627522,-2.8088436888908053,5.853902201803609,0.12280242,-0.964353,0.269347455,-2.27374,-3.0672599999999997,5.69198,71.0
1774822337.504448,1.0251998901367188e-05,2026-03-29T22:12:17.504,2026-03-29T18:12:17.504,-33357.104999999996,-47716.604999999996,-85231.305,-50078.88,-14490.539999999999,-19167.3,5858.505,-65753.775,1.8233706137627324,-2.4358763438498934,-6.01397806746072,-5.6749667168472575,-5.376379545883372,-5.362385338031962,-2.715720058890603,2.4096768907158395,0.12280242,-0.964353,0.269347455,-2.27374,-3.0672599999999997,5.69198,71.0
1774822337.5105207,0.0060727596282958984,2026-03-29T22:12:17.510,2026-03-29T18:12:17.510,-33361.83,-47732.49,-85251.87,-50075.955,-14491.755,-19173.645,5856.705,-65755.98,-2.228458072577673,-6.009477741168977,-9.463353627495582,-2.9193507923544066,-2.5215967241408905,-4.170663782030423,-1.2510153374923747,-2.108169549662152,0.12280242,-0.964353,0.269347455,-2.27374,-3.0672599999999997,5.69198,71.0
1774822337.5105476,2.6941299438476562e-05,2026-03-29T22:12:17.510,2026-03-29T18:12:17.510,-33360.93,-47743.784999999996,-85267.575,-50070.284999999996,-14488.154999999999,-19173.555,5855.175,-65748.465,-5.224990508024178,-6.726303980941897,-8.386872591226526,1.0997911239228295,1.4451934243733129,-1.039831608589996,0.8376615969347263,-5.620219760228337,0.12280242,-0.964353,0.269347455,-2.27374,-3.0672599999999997,5.69198,71.0
1774822337.510572,2.4318695068359375e-05,2026-03-29T22:12:17.510,2026-03-29T18:12:17.510,-33363.36,-47735.1,-85259.43,-50068.305,-14482.17,-19164.015,5852.969999999999,-65756.11499999999,-5.79103461386149,-4.221820644816199,-3.2373312374468206,4.562940097731169,4.718058177306385,2.623376340282881,2.496026634731869,-6.528684351058255,0.12280242,-0.964353,0.269347455,-2.27374,-3.0672599999999997,5.69198,71.0
1774822337.510584,1.2159347534179688e-05,2026-03-29T22:12:17.510,2026-03-29T18:12:17.510,-33364.71,-47712.42,-85224.555,-50073.39,-14487.074999999999,-19161.045,5853.6449999999995,-65764.53,-3.6868645032139726,0.3237297630928087,3.5539824948639924,5.939952083349803,5.833704849901895,5.1473254459851825,2.8922105692684483,-4.451015822149271,0.12280242,-0.964353,0.269347455,-2.27374,-3.0672599999999997,5.69198,71.0
1774822337.51492,0.004335880279541016,2026-03-29T22:12:17.514,2026-03-29T18:12:17.514,-33348.465,-47698.875,-85203.81,-50070.42,-14493.779999999999,-19165.545,5852.16,-65749.815,0.08817843645975547,4.742465447083292,8.729002425117383,4.66336784903572,4.3247244032030165,5.3604187776425105,1.8301818980596567,-0.3820710135175534,0.12280242,-0.964353,0.269347455,-2.27374,-3.0672599999999997,5.69198,71.0
1774822337.5149353,1.52587890625e-05,2026-03-29T22:12:17.514,2026-03-29T18:12:17.514,-33343.11,-47707.47,-85222.75499999999,-50074.695,-14502.195,-19175.265,5846.8949999999995,-65741.13,3.770636002971213,6.914618386954386,9.769080181529159,1.3533621021072662,0.9086434959811273,3.1340068159183248,-0.15646905311430198,3.784431740242412,0.12280242,-0.964353,0.269347455,-2.27374,-3.0672599999999997,5.69198,71.0
1774822337.5209625,0.0060272216796875,2026-03-29T22:12:17.520,2026-03-29T18:12:17.520,-33343.515,-47716.47,-85240.89,-50083.29,-14512.59,-19185.614999999998,5838.4349999999995,-65737.89,5.660397973324968,5.786679747725325,6.120439534980998,-2.4895445289713947,-2.859680901669438,-0.5479693862568679,-2.073792134506811,6.143921858055952,0.12377898,-0.969785115,0.274840605,2.3042599999999998,-1.51074,4.79164,71.0
1774822337.5209873,2.47955322265625e-05,2026-03-29T22:12:17.520,2026-03-29T18:12:17.520,-33359.895,-47726.1,-85250.43,-50063.445,-14493.195,-19167.57,5850.045,-65757.23999999999,4.910653555541447,1.8819047792205537,-0.5179611775899245,-5.1692336635307035,-5.301085111778167,-4.027921806951511,-2.9632786288462762,5.658958879828704,0.12377898,-0.969785115,0.274840605,2.3042599999999998,-1.51074,4.79164,71.0
1774822337.522875,0.0018877983093261719,2026-03-29T22:12:17.522,2026-03-29T18:12:17.522,-33366.51,-47727.674999999996,-85251.42,-50044.994999999995,-14480.279999999999,-19160.594999999998,5858.55,-65768.265,1.9109878572717458,-2.9441428515757164,-6.991312495845744,-5.541750660995784,-5.361183248327644,-5.724439005355076,-2.37732691436696,2.6190305543316064,0.12377898,-0.969785115,0.274840605,2.3042599999999998,-1.51074,4.79164,71.0
1774822337.522886,1.0967254638671875e-05,2026-03-29T22:12:17.522,2026-03-29T18:12:17.522,-33346.665,-47705.445,-85219.245,-50060.52,-14505.93,-19181.79,5864.355,-65747.925,-1.9113068769190331,-6.387755436659828,-10.193702128486503,-3.4971885319126317,-3.061214001594802,-4.852154940541192,-0.5999547629050079,-1.5233280152050739,0.12377898,-0.969785115,0.274840605,2.3042599999999998,-1.51074,4.79164,71.0
1774822337.526712,0.0038259029388427734,2026-03-29T22:12:17.526,2026-03-29T18:12:17.526,-33351.975,-47715.615,-85238.415,-50089.905,-14528.025,-19192.905,5865.03,-65749.905,-4.771634645814304,-6.798073751476218,-8.559699261398348,0.023574039056519575,0.5395051425326757,-1.7833604690073293,1.4942029579009977,-4.850279372219485,0.12377898,-0.969785115,0.274840605,2.3042599999999998,-1.51074,4.79164,71.0
1774822337.5267332,2.1219253540039062e-05,2026-03-29T22:12:17.526,2026-03-29T18:12:17.526,-33364.845,-47725.695,-85247.73,-50084.82,-14524.695,-19190.385,5852.115,-65763.045,-5.365125297930335,-3.9676109094829908,-2.8249912573031524,3.4667092314632653,3.836872085073812,2.1143956288121086,2.8711160601232844,-5.873353910698973,0.12377898,-0.969785115,0.274840605,2.3042599999999998,-1.51074,4.79164,71.0
1774822337.5304935,0.0037603378295898438,2026-03-29T22:12:17.530,2026-03-29T18:12:17.530,-33354.54,-47716.784999999996,-85234.05,-50079.689999999995,-14525.505,-19188.09,5850.495,-65755.485,-3.4659061739933072,0.7661278795432822,4.311996987804647,5.352053363663405,5.398980510315331,5.092225658946923,2.845761225191611,-4.204526316103008,0.12377898,-0.969785115,0.274840605,2.3042599999999998,-1.51074,4.79164,71.0
1774822337.530512,1.8596649169921875e-05,2026-03-29T22:12:17.530,2026-03-29T18:12:17.530,-33350.04,-47709.225,-85225.815,-50072.895,-14518.89,-19179.63,5854.1849999999995,-65750.67,-0.011595007187362663,5.156267835004815,9.468215318496075,4.905033738717298,4.585468470765098,5.807699299786715,1.418597242759887,-0.6987286100998279,0.12377898,-0.969785115,0.274840605,2.3042599999999998,-1.51074,4.79164,71.0
1774822337.535031,0.004518985748291016,2026-03-29T22:12:17.535,2026-03-29T18:12:17.535,-33353.865,-47695.68,-85195.17,-50045.85,-14500.215,-19161.495,5860.8,-65752.425,3.3577790795388154,7.115358301434386,10.183992595357765,2.366726441927862,1.8029080087237945,3.9301899030287113,-0.7233619335635397,2.981886623475018,0.12377898,-0.969785115,0.274840605,2.3042599999999998,-1.51074,4.79164,71.0
1774822337.5350647,3.361701965332031e-05,2026-03-29T22:12:17.535,2026-03-29T18:12:17.535,-33348.33,-47698.02,-85203.855,-50050.215,-14506.47,-19167.48,5865.255,-65744.055,5.080227626563869,5.707413583665033,6.093864899475437,-1.1374437723663966,-1.7015484258352935,0.2906104977096809,-2.5400904957409614,5.160563962590196,0.12377898,-0.969785115,0.274840605,2.3042599999999998,-1.51074,4.79164,71.0
1774822337.5386689,0.0036041736602783203,2026-03-29T22:12:17.538,2026-03-29T18:12:17.538,-33350.94,-47725.695,-85249.845,-50085.765,-14536.935,-19196.415,5856.66,-65741.265,4.399270399997526,1.59162299448997,-0.8965292761628857,-4.098804126789471,-4.402464466655185,-3.4910480158662867,-3.143547881670982,4.915269275876581,0.125182785,-0.976132755,0.283385505,2.5942,1.8312,5.93614,71.0
1774822337.5386934,2.4557113647460938e-05,2026-03-29T22:12:17.538,2026-03-29T18:12:17.538,-33344.729999999996,-47737.89,-85276.035,-50098.14,-14550.705,-19212.03,5846.355,-65730.51,1.698047349932054,-3.2911284117552033,-7.509203326693189,-5.272537296182554,-5.159528918798726,-5.73127869726705,-2.228939128681561,2.4691500108749893,0.125182785,-0.976132755,0.283385505,2.5942,1.8312,5.93614,71.0
1774822337.5523472,0.013653755187988281,2026-03-29T22:12:17.552,2026-03-29T18:12:17.552,-33341.534999999996,-47729.79,-85260.19499999999,-50087.655,-14541.705,-19205.1,5847.3,-65730.105,-1.708326997399129,-6.637432978084169,-10.638951698902465,-4.1948434140712845,-3.6941796959519655,-5.434647744704733,-0.22403531189213471,-0.9632560306582225,0.125182785,-0.976132755,0.283385505,2.5942,1.8312,5.93614,71.0
1774822337.5523648,1.7642974853515625e-05,2026-03-29T22:12:17.552,2026-03-29T18:12:17.552,-33379.875,-47717.009999999995,-85217.895,-50055.93,-14512.59,-19174.725,5861.655,-65790.54,-4.212311697388403,-6.8687938719045425,-8.812296354081957,-1.3587186554580721,-0.682936382018924,-2.734787164970301,1.9147158256408765,-3.7792231923024366,0.125182785,-0.976132755,0.283385505,2.5942,1.8312,5.93614,71.0
1774822337.55238,1.52587890625e-05,2026-03-29T22:12:17.552,2026-03-29T18:12:17.552,-33382.17,-47713.5,-85212.09,-50044.545,-14507.46,-19172.024999999998,5863.41,-65789.81999999999,-4.674460326212593,-3.873264006372852,-2.8739516178186912,2.014064854479227,2.5581913855775036,1.1700590414434995,3.1604449438267803,-4.740529605469408,0.125182785,-0.976132755,0.283385505,2.5942,1.8312,5.93614,71.0
1774822337.5523868,6.67572021484375e-06,2026-03-29T22:12:17.552,2026-03-29T18:12:17.552,-33362.729999999996,-47708.28,-85214.34,-50054.715,-14522.49,-19182.015,5861.655,-65765.52,-2.9441318621122403,0.9459382167221014,4.415814113653958,4.49846239485044,4.649749061579663,4.5541041504762,2.9081516450157587,-3.5200284175961585,0.125182785,-0.976132755,0.283385505,2.5942,1.8312,5.93614,71.0
1774822337.5523949,8.106231689453125e-06,2026-03-29T22:12:17.552,2026-03-29T18:12:17.552,-33355.845,-47706.93,-85217.895,-50056.695,-14528.97,-19187.82,5857.335,-65755.845,0.09859371681214836,5.333213696541358,9.675333970411428,5.063905977419558,4.733054454958724,5.930525173935931,1.2654325958728454,-0.7998587384897242,0.125182785,-0.976132755,0.283385505,2.5942,1.8312,5.93614,71.0
1774822337.5524008,5.9604644775390625e-06,2026-03-29T22:12:17.552,2026-03-29T18:12:17.552,-33360.299999999996,-47716.515,-85234.995,-50061.465,-14530.41,-19189.079999999998,5856.21,-65759.94,2.9868190250139923,7.239031792736837,10.474992082185352,3.4960949994981934,2.8168931881172568,4.7051306549201515,-0.9967087016480596,2.099747500991065,0.125182785,-0.976132755,0.283385505,2.5942,1.8312,5.93614,71.0
1774822337.5546224,0.0022215843200683594,2026-03-29T22:12:17.554,2026-03-29T18:12:17.554,-33361.065,-47718.314999999995,-85230.22499999999,-50059.439999999995,-14530.14,-19185.03,5858.73,-65757.555,4.373943680869749,5.775930210000846,6.4554208482873525,0.47326700392778226,-0.25009949898842976,1.4295569881717476,-2.808866441113194,3.862544186550968,0.125182785,-0.976132755,0.283385505,2.5942,1.8312,5.93614,71.0
1774822337.554644,2.1696090698242188e-05,2026-03-29T22:12:17.554,2026-03-29T18:12:17.554,-33359.445,-47716.92,-85230.72,-50073.119999999995,-14543.055,-19191.105,5862.465,-65757.69,3.6629439606713246,1.6267260347275405,-0.5222693524299017,-2.7274718250667904,-3.1570526444257627,-2.45227071865195,-3.309997129010868,3.7761161083057972,0.125182785,-0.976132755,0.283385505,2.5942,1.8312,5.93614,71.0
1774822337.5600123,0.005368232727050781,2026-03-29T22:12:17.560,2026-03-29T18:12:17.560,-33365.744999999995,-47729.34,-85252.14,-50079.555,-14548.725,-19199.655,5860.44,-65764.575,1.2629942330980704,-3.280444773089662,-7.2509882195152215,-4.766814843460406,-4.689870921478952,-5.245531712785096,-2.2554211872049033,2.0149797843868247,0.1269528,-0.9782689800000001,0.28417896,4.28806,4.9900199999999995,6.302379999999999,71.0
1774822337.560042,2.956390380859375e-05,2026-03-29T22:12:17.560,2026-03-29T18:12:17.560,-33363.045,-47728.439999999995,-85247.50499999999,-50066.505,-14542.244999999999,-19198.844999999998,5857.65,-65761.425,-1.636661082513989,-6.67271032180982,-10.659986995381686,-4.799219698280303,-4.234182806463287,-5.746512057742338,-0.13330791883167803,-0.5027674063421956,0.1269528,-0.9782689800000001,0.28417896,4.28806,4.9900199999999995,6.302379999999999,71.0
1774822337.5659668,0.00592494010925293,2026-03-29T22:12:17.565,2026-03-29T18:12:17.565,-33357.375,-47721.869999999995,-85239.09,-50069.564999999995,-14545.08,-19198.98,5857.245,-65757.555,-3.6538459347292793,-6.98589872825414,-9.216004119024893,-2.8198587266284836,-2.0161692364910033,-3.759377282751277,2.0645886851038586,-2.5892738677643408,0.1269528,-0.9782689800000001,0.28417896,4.28806,4.9900199999999995,6.302379999999999,71.0
1774822337.5659971,3.0279159545898438e-05,2026-03-29T22:12:17.565,2026-03-29T18:12:17.565,-33350.895,-47708.46,-85223.79,-50087.384999999995,-14563.215,-19207.305,5855.94,-65754.045,-3.8724148522284154,-4.08229523813771,-3.604205361981895,0.33797978866157147,1.0102297735517234,-0.16686133061876712,3.3089416731901893,-3.348269281104702,0.1269528,-0.9782689800000001,0.28417896,4.28806,4.9900199999999995,6.302379999999999,71.0
1774822337.566022,2.47955322265625e-05,2026-03-29T22:12:17.566,2026-03-29T18:12:17.566,-33359.94,-47720.43,-85239.18,-50077.305,-14557.904999999999,-19206.54,5854.32,-65759.13,-2.258641420276609,0.6949354793138064,3.6089760146707324,3.3518041919099555,3.573496080146155,3.4671275812224556,3.0157100858340233,-2.5580612235578166,0.1269528,-0.9782689800000001,0.28417896,4.28806,4.9900199999999995,6.302379999999999,71.0
1774822337.5660331,1.1205673217773438e-05,2026-03-29T22:12:17.566,2026-03-29T18:12:17.566,-33363.225,-47728.53,-85251.42,-50078.655,-14558.13,-19205.145,5855.76,-65759.22,0.3543997336835975,5.148763271626353,9.160029720078803,4.960370524612026,4.616059806546614,5.581602475426586,1.3191189641047225,-0.7137121392054264,0.1269528,-0.9782689800000001,0.28417896,4.28806,4.9900199999999995,6.302379999999999,71.0
1774822337.574093,0.008059978485107422,2026-03-29T22:12:17.574,2026-03-29T18:12:17.574,-33354.81,-47716.11,-85230.045,-50070.42,-14552.414999999999,-19198.079999999998,5860.08,-65751.255,2.692648216948399,7.241535661313013,10.568475944131967,4.488586067460361,3.7265816073311075,5.288491043872332,-0.9923147421589591,1.2624808411801918,0.1269528,-0.9782689800000001,0.28417896,4.28806,4.9900199999999995,6.302379999999999,71.0
1774822337.574108,1.4781951904296875e-05,2026-03-29T22:12:17.574,2026-03-29T18:12:17.574,-33352.065,-47708.235,-85226.265,-50078.52,-14562.945,-19207.215,5847.48,-65758.14,3.6609805230378716,6.026026559192532,7.240333863969239,2.1299803963931594,1.2984772507690443,2.7413288198134933,-2.8452211851805442,2.479503305418397,0.1269528,-0.9782689800000001,0.28417896,4.28806,4.9900199999999995,6.302379999999999,71.0
1774822337.5760643,0.001956462860107422,2026-03-29T22:12:17.576,2026-03-29T18:12:17.576,-33354.72,-47713.59,-85241.87999999999,-50080.814999999995,-14568.48,-19217.925,5835.6449999999995,-65763.27,2.8559553551178705,2.069619303307925,0.706937979200647,-1.1311661447545511,-1.64447377805331,-0.9480566138553627,-3.3820736597535315,2.4780437338332613,0.1269528,-0.9782689800000001,0.28417896,4.28806,4.9900199999999995,6.302379999999999,71.0
1774822337.576085,2.0742416381835938e-05,2026-03-29T22:12:17.576,2026-03-29T18:12:17.576,-33352.65,-47710.305,-85231.125,-50075.189999999995,-14569.515,-19219.815,5829.4349999999995,-65761.065,0.7312539867618755,-2.8160773477730565,-6.090261853425858,-3.927824153367071,-3.8781760642105003,-4.19880116013815,-2.3587480708383484,1.3935633389183826,0.1269528,-0.9782689800000001,0.28417896,4.28806,4.9900199999999995,6.302379999999999,71.0
1774822337.5827193,0.006634235382080078,2026-03-29T22:12:17.582,2026-03-29T18:12:17.582,-33355.395,-47716.244999999995,-85233.42,-50082.525,-14578.965,-19226.114999999998,5849.325,-65759.355,-1.6506281416389132,-6.409040362401507,-10.13029717915684,-5.080976073368072,-4.484353331414902,-5.63903081481365,-0.2543750368391365,-0.16953330839656566,0.12792936,-0.986996985,0.28845141,10.77356,6.683879999999999,8.36248,71.0
1774822337.5827365,1.71661376953125e-05,2026-03-29T22:12:17.582,2026-03-29T18:12:17.582,-33366.825,-47731.77,-85250.925,-50095.485,-14588.01,-19226.969999999998,5857.335,-65762.505,-3.1472761043174993,-7.088618456129367,-9.654366546826083,-4.096207898069544,-3.2252147557130013,-4.681697570390625,1.9554858882446662,-1.4643483053809974,0.12792936,-0.986996985,0.28845141,10.77356,6.683879999999999,8.36248,71.0
1774822337.5924256,0.009689092636108398,2026-03-29T22:12:17.592,2026-03-29T18:12:17.592,-33364.44,-47731.95,-85257.94499999999,-50091.255,-14579.82,-19217.07,5851.035,-65759.895,-3.0834344133693232,-4.564340683558352,-4.9239101395522,-1.3772011007053817,-0.6352674993607276,-1.7583508465656337,3.2540647539148213,-1.9558391061411953,0.12792936,-0.986996985,0.28845141,10.77356,6.683879999999999,8.36248,71.0
1774822337.592452,2.6464462280273438e-05,2026-03-29T22:12:17.592,2026-03-29T18:12:17.592,-33365.52,-47735.145,-85260.915,-50073.075,-14566.23,-19208.79,5847.974999999999,-65761.83,-1.554505697482892,0.004771997425944178,1.9273831554234788,1.9370190246777632,2.2045457104397355,1.8790778617189081,3.053436354727148,-1.5360203437338296,0.12792936,-0.986996985,0.28845141,10.77356,6.683879999999999,8.36248,71.0
1774822337.5924768,2.47955322265625e-05,2026-03-29T22:12:17.592,2026-03-29T18:12:17.592,-33357.69,-47723.13,-85243.095,-50061.015,-14557.635,-19199.25,5851.26,-65754.675,0.6494481033199387,4.546901020187837,7.863172299530805,4.447245536647067,4.115702845753662,4.695739616375717,1.461182954015729,-0.5169261729590604,0.12792936,-0.986996985,0.28845141,10.77356,6.683879999999999,8.36248,71.0
1774822337.5924888,1.1920928955078125e-05,2026-03-29T22:12:17.592,2026-03-29T18:12:17.592,-33352.47,-47706.884999999995,-85220.50499999999,-50069.25,-14569.92,-19208.114999999998,5849.01,-65755.935,2.4486271988825536,7.019892942706398,10.292337835859128,5.0847769829226905,4.308980220959919,5.5193671161086515,-0.7775475590556411,0.5678346235730016,0.12792936,-0.986996985,0.28845141,10.77356,6.683879999999999,8.36248,71.0
1774822337.5925033,1.4543533325195312e-05,2026-03-29T22:12:17.592,2026-03-29T18:12:17.592,-33351.345,-47703.869999999995,-85217.535,-50075.009999999995,-14582.43,-19218.87,5856.4349999999995,-65758.72499999999,3.001142604063942,6.329796399548722,8.196608255354688,3.568450159195327,2.709490151051242,4.023759796741107,-2.631536157683536,1.2359717124369873,0.12792936,-0.986996985,0.28845141,10.77356,6.683879999999999,8.36248,71.0
1774822337.5925157,1.239776611328125e-05,2026-03-29T22:12:17.592,2026-03-29T18:12:17.592,-33357.915,-47719.08,-85239.675,-50083.875,-14590.439999999999,-19225.71,5862.465,-65759.58,2.0960451226572636,2.812463081490712,2.5496229388403444,0.5314934498190657,-0.01355215208448318,0.8534626094261544,-3.261687663020101,1.2667365951692613,0.12792936,-0.986996985,0.28845141,10.77356,6.683879999999999,8.36248,71.0
1774822337.5969937,0.004477977752685547,2026-03-29T22:12:17.596,2026-03-29T18:12:17.596,-33356.88,-47727.494999999995,-85257.94499999999,-50078.88,-14587.019999999999,-19225.665,5855.76,-65758.23,0.22858162949422403,-1.9326470672968652,-4.140800825587706,-2.7406188229115145,-2.7247842927286814,-2.6553557878510885,-2.402843461182841,0.7591444334258051,0.12792936,-0.986996985,0.28845141,10.77356,6.683879999999999,8.36248,71.0
1774822337.5970223,2.86102294921875e-05,2026-03-29T22:12:17.597,2026-03-29T18:12:17.597,-33352.38,-47725.604999999996,-85259.61,-50071.545,-14580.539999999999,-19219.32,5855.219999999999,-65752.73999999999,-1.666056827641234,-5.773451396133453,-8.950195006615022,-4.854347743163009,-4.294248294973258,-5.036438104141341,-0.47451806376008027,0.033284975887327595,0.12792936,-0.986996985,0.28845141,10.77356,6.683879999999999,8.36248,71.0
1774822337.597047,2.47955322265625e-05,2026-03-29T22:12:17.597,2026-03-29T18:12:17.597,-33351.93,-47704.545,-85214.87999999999,-50067.36,-14583.15,-19213.605,5859.675,-65756.295,-2.6793143984595287,-7.005753358831641,-9.815935266980183,-4.904231611593123,-4.067900224241162,-5.30261690996158,1.625359760443531,-0.5546660115202803,0.128356605,-0.99633534,0.294249735,20.601,9.0034,9.87322,71.0
1774822337.5970588,1.1682510375976562e-05,2026-03-29T22:12:17.597,2026-03-29T18:12:17.597,-33352.92,-47697.705,-85204.17,-50057.055,-14580.269999999999,-19211.13,5860.304999999999,-65759.04,-2.364135610044571,-5.109827199869757,-6.4186269527361635,-2.864779601044046,-2.1415222610339977,-3.3518270665350656,2.941904516814577,-0.7821902856816682,0.128356605,-0.99633534,0.294249735,20.601,9.0034,9.87322,71.0
1774822337.6029868,0.00592803955078125,2026-03-29T22:12:17.602,2026-03-29T18:12:17.602,-33355.08,-47704.77,-85214.52,-50046.119999999995,-14574.779999999999,-19213.38,5853.195,-65759.48999999999,-0.9303055277495604,-0.9671724857647911,-0.2917686121465666,0.393602116285589,0.6774258250050785,-0.004934429979714027,2.900725285076905,-0.6363218171366827,0.128356605,-0.99633534,0.294249735,20.601,9.0034,9.87322,71.0
1774822337.6030083,2.1457672119140625e-05,2026-03-29T22:12:17.603,2026-03-29T18:12:17.603,-33367.68,-47734.695,-85261.815,-50066.009999999995,-14586.975,-19221.12,5852.655,-65768.355,0.8841473644181931,3.551885319118402,5.873479520104025,3.4755865134922685,3.2063350652797205,3.337983785410816,1.559476002496285,-0.2752917476572118,0.128356605,-0.99633534,0.294249735,20.601,9.0034,9.87322,71.0
1774822337.6068368,0.0038285255432128906,2026-03-29T22:12:17.606,2026-03-29T18:12:17.606,-33356.115,-47721.645,-85258.035,-50087.115,-14600.609999999999,-19224.63,5854.679999999999,-65760.525,2.1905166940495833,6.43615751723138,9.412767186987043,5.061384697245573,4.383450933110095,5.280263543347147,-0.43720808178377407,0.08483355509312729,0.128356605,-0.99633534,0.294249735,20.601,9.0034,9.87322,71.0
1774822337.606868,3.123283386230469e-05,2026-03-29T22:12:17.606,2026-03-29T18:12:17.606,-33345.315,-47699.415,-85221.62999999999,-50085.27,-14608.08,-19228.05,5853.554999999999,-65754.72,2.383871340931412,6.431554086076972,8.840856663008736,4.477163085003537,3.7156938148667007,5.00987078635466,-2.1698629366538404,0.2883258111514017,0.128356605,-0.99633534,0.294249735,20.601,9.0034,9.87322,71.0
1774822337.611976,0.005107879638671875,2026-03-29T22:12:17.611,2026-03-29T18:12:17.611,-33345.854999999996,-47708.055,-85233.42,-50092.515,-14619.824999999999,-19238.219999999998,5850.675,-65754.18,1.4224424681951457,3.587080940250976,4.473615554283103,1.9863459387611897,1.4884743599799999,2.63894465355576,-2.8713707530903623,0.3019514019198744,0.128356605,-0.99633534,0.294249735,20.601,9.0034,9.87322,71.0
1774822337.612,2.4080276489257812e-05,2026-03-29T22:12:17.611,2026-03-29T18:12:17.611,-33349.365,-47715.525,-85243.77,-50089.14,-14616.359999999999,-19234.44,5848.785,-65753.37,-0.17669417742671964,-0.7892273713890932,-1.740270332498734,-1.3268731293873852,-1.3536163307904951,-0.8402963108810727,-2.268969094573032,0.1994745436084839,0.128356605,-0.99633534,0.294249735,20.601,9.0034,9.87322,71.0
1774822337.6148567,0.002856731414794922,2026-03-29T22:12:17.614,2026-03-29T18:12:17.614,-33360.93,-47726.729999999996,-85254.93,-50085.765,-14613.975,-19236.285,5851.755,-65758.005,-1.6119592999989534,-4.734635251176329,-7.091195654141446,-4.0318215962275845,-3.6071203953741975,-3.9676394595735958,-0.6873919239760091,0.09141833234989397,0.128356605,-0.99633534,0.294249735,20.601,9.0034,9.87322,71.0
1774822337.6148827,2.5987625122070312e-05,2026-03-29T22:12:17.614,2026-03-29T18:12:17.614,-33356.97,-47731.005,-85265.50499999999,-50089.5,-14621.22,-19245.825,5854.005,-65751.61499999999,-2.197747373293376,-6.516344166926843,-9.294000355710532,-4.975279984554629,-4.321965161849913,-5.42605906402492,1.1243528337585076,0.04884206960917684,0.128356605,-0.99633534,0.294249735,20.601,9.0034,9.87322,71.0
1774822337.6186721,0.0037894248962402344,2026-03-29T22:12:17.618,2026-03-29T18:12:17.618,-33357.104999999996,-47734.2,-85276.70999999999,-50090.49,-14619.869999999999,-19247.715,5856.389999999999,-65755.575,-1.6916979144769857,-5.396112519963735,-7.467228402251666,-3.780178948739723,-3.2065300847213694,-4.597570068380292,2.3509963399327454,0.0658479792074673,0.125793135,-0.998105355,0.300231165,34.22818,10.59044,10.34628,71.0
1774822337.6186996,2.7418136596679688e-05,2026-03-29T22:12:17.618,2026-03-29T18:12:17.618,-33341.67,-47715.165,-85249.70999999999,-50095.215,-14624.73,-19243.17,5866.5599999999995,-65748.19499999999,-0.3928134752246085,-1.9358589910214141,-2.4851007927310236,-0.9997768101302631,-0.7504789138266316,-1.828709572625799,2.4811909179401104,0.07755422479464855,0.125793135,-0.998105355,0.300231165,34.22818,10.59044,10.34628,71.0
1774822337.6227472,0.0040476322174072266,2026-03-29T22:12:17.622,2026-03-29T18:12:17.622,-33318.765,-47696.985,-85231.98,-50099.805,-14633.685,-19244.52,5866.155,-65732.58,1.0280187640505039,2.2824037799896413,3.4387214032747053,2.138139470546503,1.9887945542533052,1.7105059616277005,1.5201010795131413,0.01631193809211047,0.125793135,-0.998105355,0.300231165,34.22818,10.59044,10.34628,71.0
1774822337.622778,3.075599670410156e-05,2026-03-29T22:12:17.622,2026-03-29T18:12:17.622,-33333.615,-47711.07,-85242.645,-50096.79,-14634.269999999999,-19246.23,5859.585,-65739.915,1.8717656080344054,5.383892690010562,7.739211325194374,4.279377324166205,3.844124354576449,4.5194181773110635,-0.043787089081330145,-0.13189535485215906,0.125793135,-0.998105355,0.300231165,34.22818,10.59044,10.34628,71.0
1774822337.6267853,0.0040073394775390625,2026-03-29T22:12:17.626,2026-03-29T18:12:17.626,-33386.895,-47723.67,-85240.44,-50076.674999999996,-14613.705,-19225.395,5858.235,-65788.69499999999,1.7544879504283046,6.039879231955708,8.617636830094618,4.536626159923185,4.041625477559076,5.4051799579346715,-1.4876900323930424,-0.30658073217501697,0.125793135,-0.998105355,0.300231165,34.22818,10.59044,10.34628,71.0
1774822337.6267984,1.3113021850585938e-05,2026-03-29T22:12:17.626,2026-03-29T18:12:17.626,-33381.36,-47728.215,-85256.595,-50071.049999999996,-14615.144999999999,-19232.954999999998,5843.969999999999,-65788.605,0.7821195612268942,4.040325611464423,5.798768206901536,2.8636648888352703,2.5292267718084647,3.9943997468026398,-2.1920828020164262,-0.400855184539693,0.125793135,-0.998105355,0.300231165,34.22818,10.59044,10.34628,71.0
1774822337.6310313,0.004232883453369141,2026-03-29T22:12:17.631,2026-03-29T18:12:17.631,-33368.49,-47723.13,-85248.98999999999,-50070.104999999996,-14611.725,-19226.925,5844.735,-65775.915,-0.5225562777652292,0.3517759561720753,0.6059830401929941,0.048908891384392354,-0.01203112019231893,0.8957944009803129,-1.9073700317402003,-0.32327084809497597,0.125793135,-0.998105355,0.300231165,34.22818,10.59044,10.34628,71.0
1774822337.6310456,1.430511474609375e-05,2026-03-29T22:12:17.631,2026-03-29T18:12:17.631,-33358.95,-47717.055,-85243.59,-50089.365,-14624.865,-19230.93,5845.005,-65764.845,-1.4956721385116816,-3.3501006194713385,-4.66066768525972,-2.6587660701655516,-2.475990823415272,-2.560168062446605,-0.8343268998492792,-0.058804196133963156,0.125793135,-0.998105355,0.300231165,34.22818,10.59044,10.34628,71.0
1774822337.63474,0.0036945343017578125,2026-03-29T22:12:17.634,2026-03-29T18:12:17.634,-33360.119999999995,-47739.42,-85284.495,-50090.67,-14627.205,-19240.245,5840.775,-65759.48999999999,-1.6675405170070121,-5.447530580284225,-7.75164282131244,-4.1135670811601095,-3.8191610170115338,-4.895037744913189,0.5026943665501298,0.30601940295172897,0.125793135,-0.998105355,0.300231165,34.22818,10.59044,10.34628,71.0
1774822337.634762,2.193450927734375e-05,2026-03-29T22:12:17.634,2026-03-29T18:12:17.634,-33355.619999999995,-47739.78,-85286.25,-50097.465,-14639.039999999999,-19253.925,5844.375,-65753.235,-0.9894698689902901,-5.093799658523467,-7.438138782766624,-3.7670973274806507,-3.5103053834133386,-5.121260524463804,1.5142690069763318,0.6108993462747727,0.125793135,-0.998105355,0.300231165,34.22818,10.59044,10.34628,71.0
1774822337.6390646,0.004302501678466797,2026-03-29T22:12:17.639,2026-03-29T18:12:17.639,-33355.17,-47714.13,-85248.45,-50109.165,-14656.23,-19264.094999999998,5850.945,-65761.29,0.1570851386075499,-2.5552706851110765,-4.002136284979911,-1.875197191947235,-1.7440875987286215,-3.166848248917871,1.8074737301036161,0.6927619869340875,0.12274138500000001,-0.992490135,0.30700605000000003,47.73328,13.13886,10.51414,71.0
1774822337.6390831,1.8596649169921875e-05,2026-03-29T22:12:17.639,2026-03-29T18:12:17.639,-33365.79,-47708.775,-85227.61499999999,-50090.805,-14643.945,-19251.63,5850.855,-65776.23,1.1672394102008465,0.9563646130173038,0.950932234107071,0.661650128524895,0.6696827362907819,0.10073842360552997,1.3334111003191893,0.4680239512129542,0.12274138500000001,-0.992490135,0.30700605000000003,47.73328,13.13886,10.51414,71.0
1774822337.6426334,0.003550291061401367,2026-03-29T22:12:17.642,2026-03-29T18:12:17.642,-33355.755,-47704.095,-85222.935,-50079.555,-14630.58,-19238.04,5842.71,-65765.06999999999,1.5261161648231558,3.8649299037957188,5.2472741482434175,2.732909825393332,2.6821033768001286,3.2611773643303237,0.36815839706517706,-0.013378574221753243,0.12274138500000001,-0.992490135,0.30700605000000003,47.73328,13.13886,10.51414,71.0
1774822337.6426525,1.9073486328125e-05,2026-03-29T22:12:17.642,2026-03-29T18:12:17.642,-33350.174999999996,-47706.93,-85239.18,-50084.64,-14632.244999999999,-19239.12,5846.94,-65760.48,1.0690591513182488,4.9444980372036085,7.110724400682485,3.515447501818659,3.4699422054461877,4.965687005407272,-0.6437200207635937,-0.5711580000446999,0.12274138500000001,-0.992490135,0.30700605000000003,47.73328,13.13886,10.51414,71.0
1774822337.6487856,0.006133079528808594,2026-03-29T22:12:17.648,2026-03-29T18:12:17.648,-33341.67,-47707.244999999995,-85243.86,-50070.869999999995,-14629.095,-19245.78,5849.235,-65751.345,0.05839811345209782,3.8406877978363796,5.904731828313401,2.8055079767165902,2.778747520147246,4.521350564497859,-1.2958068323451015,-0.9599285526019116,0.12274138500000001,-0.992490135,0.30700605000000003,47.73328,13.13886,10.51414,71.0
1774822337.6488032,1.7642974853515625e-05,2026-03-29T22:12:17.648,2026-03-29T18:12:17.648,-33339.104999999996,-47712.465,-85245.84,-50064.84,-14624.73,-19242.09,5855.625,-65741.44499999999,-0.9592488216805812,1.1744110879382745,2.335863267289372,1.048130072762892,0.9975401439570427,2.177545742197923,-1.3793953021265153,-0.9737479977803435,0.12274138500000001,-0.992490135,0.30700605000000003,47.73328,13.13886,10.51414,71.0
1774822337.650812,0.002008676528930664,2026-03-29T22:12:17.650,2026-03-29T18:12:17.650,-33351.615,-47728.305,-85262.805,-50097.555,-14644.394999999999,-19249.38,5856.4349999999995,-65746.62,-1.4400929761062977,-1.795177559113687,-1.939354130718855,-0.9232612806413928,-1.0531618303496988,-1.0070329274910996,-0.9352830812050438,-0.5472099727476978,0.12274138500000001,-0.992490135,0.30700605000000003,47.73328,13.13886,10.51414,71.0
1774822337.6508284,1.6450881958007812e-05,2026-03-29T22:12:17.650,2026-03-29T18:12:17.650,-33374.88,-47722.005,-85246.065,-50092.064999999995,-14638.05,-19240.785,5857.11,-65782.17,-1.127178351489084,-3.770181750204476,-5.092979993978959,-2.2909698077280605,-2.5071315303295743,-3.648509313077336,-0.19568066449955418,0.19314114153943585,0.12274138500000001,-0.992490135,0.30700605000000003,47.73328,13.13886,10.51414,71.0
1774822337.6567612,0.005932807922363281,2026-03-29T22:12:17.656,2026-03-29T18:12:17.656,-33365.115,-47712.645,-85236.705,-50085.494999999995,-14637.734999999999,-19240.605,5875.38,-65771.19,-0.1857388721485563,-3.9885295204850295,-5.919550128685579,-2.601109493192262,-2.8271282995547318,-4.649036711608935,0.5370929816244281,0.957342190961515,0.12274138500000001,-0.992490135,0.30700605000000003,47.73328,13.13886,10.51414,71.0
1774822337.656777,1.5735626220703125e-05,2026-03-29T22:12:17.656,2026-03-29T18:12:17.656,-33354.045,-47715.119999999995,-85242.15,-50084.28,-14641.019999999999,-19248.524999999998,5863.365,-65758.455,0.8802582864118692,-2.515729303037154,-4.294143814722422,-1.9026267921807651,-2.001739644458395,-3.660111929693021,1.011437329661842,1.3995618640714127,0.12274138500000001,-0.992490135,0.30700605000000003,47.73328,13.13886,10.51414,71.0
1774822337.6588032,0.0020263195037841797,2026-03-29T22:12:17.658,2026-03-29T18:12:17.658,-33350.22,-47714.895,-85247.50499999999,-50077.08,-14633.055,-19243.62,5846.3099999999995,-65757.19499999999,1.4893998101773216,-0.14287919333792834,-1.1209324552092046,-0.6407813018977674,-0.4924012660683429,-1.1983736115021915,1.099851402740933,1.2681944475028541,0.115783395,-0.987485265,0.315367845,63.023799999999994,14.83272,10.36154,71.0
1774822337.6588125,9.298324584960938e-06,2026-03-29T22:12:17.658,2026-03-29T18:12:17.658,-33354.09,-47718.314999999995,-85245.97499999999,-50042.115,-14605.605,-19224.045,5838.21,-65760.97499999999,1.2895567222193969,2.0310339962141115,2.1577537130786695,0.6086947989498922,1.019943438355673,1.6220626032579473,0.8122601392221013,0.5367517184724863,0.115783395,-0.987485265,0.315367845,63.023799999999994,14.83272,10.36154,71.0
1774822337.6628325,0.004019975662231445,2026-03-29T22:12:17.662,2026-03-29T18:12:17.662,-33356.115,-47715.795,-85229.19,-50038.064999999995,-14602.455,-19213.335,5842.215,-65760.3,0.3521648878278453,3.114887415416164,4.229937629771023,1.4121961166387582,1.9512773469601863,3.602957210644978,0.2662275164489798,-0.5480299172873004,0.115783395,-0.987485265,0.315367845,63.023799999999994,14.83272,10.36154,71.0
1774822337.6628575,2.5033950805664062e-05,2026-03-29T22:12:17.662,2026-03-29T18:12:17.662,-33355.17,-47715.39,-85248.45,-50104.034999999996,-14647.769999999999,-19235.7,5845.724999999999,-65758.23,-0.8496208036042711,2.7941872854390093,4.44419481122473,1.624051486196861,2.0426444147581497,3.98006192749878,-0.3591568468359378,-1.537350460383057,0.115783395,-0.987485265,0.315367845,63.023799999999994,14.83272,10.36154,71.0
1774822337.6668208,0.0039632320404052734,2026-03-29T22:12:17.666,2026-03-29T18:12:17.666,-33345.854999999996,-47709.99,-85247.325,-50092.02,-14633.865,-19224.495,5866.514999999999,-65746.215,-1.674420001897121,1.398166977458563,2.9837051758711923,1.3583861010058427,1.4089028974797781,2.7170882797141367,-0.8684054928612278,-1.9579112660323506,0.115783395,-0.987485265,0.315367845,63.023799999999994,14.83272,10.36154,71.0
1774822337.6668365,1.5735626220703125e-05,2026-03-29T22:12:17.666,2026-03-29T18:12:17.666,-33350.805,-47713.365,-85241.11499999999,-50084.235,-14634.135,-19229.355,5870.295,-65750.535,-1.6444764839991866,-0.3330108786117024,0.6561543748918991,0.8408634009587875,0.4150084789960916,0.46235362818757414,-1.092160829714739,-1.5302717651367594,0.115783395,-0.987485265,0.315367845,63.023799999999994,14.83272,10.36154,71.0
1774822337.6723442,0.005507707595825195,2026-03-29T22:12:17.672,2026-03-29T18:12:17.672,-33356.295,-47719.17,-85248.62999999999,-50092.29,-14644.98,-19241.73,5859.045,-65757.69,-0.7079815704400372,-1.6372076409821599,-1.547209781488249,0.2525399022283019,-0.5307420138366804,-1.785406934101173,-0.9321594812960179,-0.33103415336094966,0.115783395,-0.987485265,0.315367845,63.023799999999994,14.83272,10.36154,71.0
1774822337.6723611,1.6927719116210938e-05,2026-03-29T22:12:17.672,2026-03-29T18:12:17.672,-33366.51,-47736.54,-85276.575,-50079.555,-14629.859999999999,-19234.215,5856.795,-65766.23999999999,0.7071389635274095,-2.0724269160682005,-2.884972325320882,-0.3357728322390972,-1.1508837107301797,-3.1291673249407292,-0.40515183456888687,1.1883431295392872,0.115783395,-0.987485265,0.315367845,63.023799999999994,14.83272,10.36154,71.0
1774822337.6749527,0.0025916099548339844,2026-03-29T22:12:17.674,2026-03-29T18:12:17.674,-33361.29,-47742.479999999996,-85292.28,-50071.14,-14617.8,-19227.915,5854.95,-65756.655,1.8863086309621353,-1.6552213181523248,-3.095840401750281,-0.9129191266682791,-1.362589423928895,-3.1341393438185445,0.33378839554021117,2.359046938294772,0.115783395,-0.987485265,0.315367845,63.023799999999994,14.83272,10.36154,71.0
1774822337.6749742,2.1457672119140625e-05,2026-03-29T22:12:17.674,2026-03-29T18:12:17.674,-33351.119999999995,-47731.59,-85284.315,-50081.759999999995,-14625.09,-19228.364999999998,5856.255,-65745.45,2.1821350305806293,-0.758183063313853,-2.3644901342916977,-1.4188970165459904,-1.2276791783368866,-1.9500233493008778,1.0157417772392339,2.581328806011433,0.115783395,-0.987485265,0.315367845,63.023799999999994,14.83272,10.36154,71.0
1774822337.6818335,0.006859302520751953,2026-03-29T22:12:17.681,2026-03-29T18:12:17.681,-33352.02,-47729.744999999995,-85269.69,-50067.63,-14613.525,-19214.505,5858.594999999999,-65746.17,1.3563821855483948,0.14453132100568827,-1.1064401828667478,-1.6789565293830593,-0.8507664618600715,-0.17198426269462777,1.3439298679323592,1.6213649995168058,0.107482635,-0.989926665,0.31884684,80.64909999999999,18.57142,10.89564,71.0
1774822337.681853,1.9550323486328125e-05,2026-03-29T22:12:17.681,2026-03-29T18:12:17.681,-33352.92,-47720.79,-85246.065,-50076.81,-14616.404999999999,-19206.495,5867.415,-65748.375,-0.26583655670292167,0.7279446030593731,0.268096805491215,-1.4537945944772497,-0.306807838246294,1.462731273214205,1.1219079244237846,-0.22433443748437235,0.107482635,-0.989926665,0.31884684,80.64909999999999,18.57142,10.89564,71.0
1774822337.684404,0.002550840377807617,2026-03-29T22:12:17.684,2026-03-29T18:12:17.684,-33351.03,-47701.845,-85218.03,-50092.74,-14633.189999999999,-19215.135,5861.16,-65752.965,-1.9201135758042687,0.930596547693864,1.4774729004650446,-0.5982413723106125,0.3551551191666499,2.386074040455172,0.36958060336769116,-2.197188391969519,0.107482635,-0.989926665,0.31884684,80.64909999999999,18.57142,10.89564,71.0
1774822337.6844387,3.4809112548828125e-05,2026-03-29T22:12:17.684,2026-03-29T18:12:17.684,-33357.825,-47711.43,-85238.145,-50095.259999999995,-14646.689999999999,-19236.645,5846.804999999999,-65759.535,-2.759861616985677,0.8930659023451505,2.3467671926344553,0.7646442402887248,1.0485912789015162,2.383840692974259,-0.6400968381326126,-3.3782574010710387,0.107482635,-0.989926665,0.31884684,80.64909999999999,18.57142,10.89564,71.0
1774822337.6926422,0.008203506469726562,2026-03-29T22:12:17.692,2026-03-29T18:12:17.692,-33349.725,-47717.415,-85249.89,-50083.65,-14645.43,-19246.905,5833.53,-65747.025,-2.2808698275228396,0.7880370529859851,2.7165860484835633,2.181296555325928,1.5929211404885066,1.600910774017137,-1.4655721903694128,-3.1090538269891663,0.107482635,-0.989926665,0.31884684,80.64909999999999,18.57142,10.89564,71.0
1774822337.6926537,1.1444091796875e-05,2026-03-29T22:12:17.692,2026-03-29T18:12:17.692,-33349.95,-47716.02,-85244.805,-50068.53,-14636.88,-19246.32,5832.179999999999,-65747.565,-0.6035377654254886,0.6680082411902657,2.402734629480956,2.9988651236187045,1.7331387641012417,0.40671151471887673,-1.6862331681655867,-1.3419633910563251,0.107482635,-0.989926665,0.31884684,80.64909999999999,18.57142,10.89564,71.0
1774822337.7218947,0.029241085052490234,2026-03-29T22:12:17.721,2026-03-29T18:12:17.721,-33348.869999999995,-47711.384999999995,-85247.955,-50091.39,-14644.305,-19240.829999999998,5851.3949999999995,-65749.185,1.5386701812917518,0.43542771294613797,1.2800338289013644,2.6644358197545754,1.2560299731430458,-0.7845830414532986,-1.1179564541694622,1.2605461879400206,0.107482635,-0.989926665,0.31884684,80.64909999999999,18.57142,10.89564,71.0
1774822337.7219167,2.193450927734375e-05,2026-03-29T22:12:17.721,2026-03-29T18:12:17.721,-33338.835,-47702.564999999995,-85243.00499999999,-50092.965,-14643.314999999999,-19237.5,5861.07,-65746.305,3.1186545152970253,-0.046277009671467494,-0.5439103684762433,1.0554632679976366,0.15124513883234283,-1.6491817916404512,0.05584077541263534,3.5587842089699593,0.107482635,-0.989926665,0.31884684,80.64909999999999,18.57142,10.89564,71.0
1774822337.7219348,1.811981201171875e-05,2026-03-29T22:12:17.721,2026-03-29T18:12:17.721,-33330.465,-47705.04,-85239.315,-50089.095,-14643.72,-19238.805,5852.5199999999995,-65729.295,3.304560754355911,-0.7804585453753966,-2.5950408723068286,-1.3440828451064029,-1.2841047540467312,-2.004790179732103,1.323091130736975,4.428209014018363,0.107482635,-0.989926665,0.31884684,80.64909999999999,18.57142,10.89564,71.0
1774822337.7219412,6.4373016357421875e-06,2026-03-29T22:12:17.721,2026-03-29T18:12:17.721,-33352.02,-47721.284999999996,-85260.06,-50105.564999999995,-14655.06,-19249.92,5849.1449999999995,-65737.26,1.8867464460477748,-1.5326586886323752,-4.083784082919477,-3.555571359883416,-2.4895450363129474,-1.797583107787182,2.059606247343336,3.3019631717797475,0.107482635,-0.989926665,0.31884684,80.64909999999999,18.57142,10.89564,71.0
1774822337.721947,5.7220458984375e-06,2026-03-29T22:12:17.721,2026-03-29T18:12:17.721,-33356.07,-47723.939999999995,-85271.67,-50111.82,-14661.359999999999,-19259.505,5844.195,-65743.02,-0.5724954178922457,-1.889724256449555,-4.195007176815358,-4.5024035364085595,-2.8548369687892547,-1.0753777378205256,1.8355892655601238,0.5046656111480303,0.103820535,-0.997495005,0.323302395,112.48146,22.24908,11.94858,71.0
1774822337.7219508,3.814697265625e-06,2026-03-29T22:12:17.721,2026-03-29T18:12:17.721,-33347.61,-47719.08,-85264.92,-50094.72,-14645.025,-19248.255,5850.9,-65738.88,-2.9585272297207847,-1.4790655484531856,-2.519442497175997,-3.5317372288018256,-2.024421435314376,0.016037663249938043,0.6623032102335727,-2.808516663856528,0.103820535,-0.997495005,0.323302395,112.48146,22.24908,11.94858,71.0
1774822337.7219553,4.5299530029296875e-06,2026-03-29T22:12:17.721,2026-03-29T18:12:17.721,-33355.305,-47713.14,-85245.84,-50083.65,-14631.39,-19234.35,5855.445,-65750.13,-4.109481737470717,-0.234780012286327,0.5960299029059406,-0.8088274057855607,-0.14209974608921336,1.2187662793167526,-0.9602696376643212,-5.120370860635343,0.103820535,-0.997495005,0.323302395,112.48146,22.24908,11.94858,71.0
1774822337.721959,3.814697265625e-06,2026-03-29T22:12:17.721,2026-03-29T18:12:17.721,-33350.31,-47704.95,-85238.64,-50088.6,-14638.14,-19239.344999999998,5841.45,-65750.04,-3.3780677568417077,1.455132154628356,4.014357062294777,2.6387775037563674,2.112356466412084,2.173341204317816,-2.2459833619755987,-5.242366116316232,0.103820535,-0.997495005,0.323302395,112.48146,22.24908,11.94858,71.0
1774822337.721964,4.76837158203125e-06,2026-03-29T22:12:17.721,2026-03-29T18:12:17.721,-33335.055,-47706.479999999996,-85247.955,-50079.104999999996,-14633.369999999999,-19241.145,5829.4349999999995,-65731.5,-0.9797843014436912,2.842522306296022,6.195919822884483,5.2992689740715875,3.7563388277448992,2.4977455529477455,-2.499141612803973,-2.9147491272673665,0.103820535,-0.997495005,0.323302395,112.48146,22.24908,11.94858,71.0
1774822337.7219677,3.814697265625e-06,2026-03-29T22:12:17.721,2026-03-29T18:12:17.721,-33346.17,-47715.255,-85248.98999999999,-50075.009999999995,-14625.63,-19233.54,5835.33,-65743.02,2.054647052207266,3.1504475002149634,5.892742995472664,5.842646651294573,3.9341404653631646,1.9375878459497997,-1.4867111726174493,0.9833172782041054,0.103820535,-0.997495005,0.323302395,112.48146,22.24908,11.94858,71.0
1774822337.721972,4.291534423828125e-06,2026-03-29T22:12:17.721,2026-03-29T18:12:17.721,-33359.985,-47720.34,-85236.12,-50078.564999999995,-14620.545,-19217.295,5861.115,-65748.87,4.323142994152656,1.9958476898420154,2.8366240323348904,3.7795431958852843,2.354368304605202,0.5298397463155351,0.3909774292924777,4.751271274673291,0.103820535,-0.997495005,0.323302395,112.48146,22.24908,11.94858,71.0
1774822337.7219756,3.5762786865234375e-06,2026-03-29T22:12:17.721,2026-03-29T18:12:17.721,-33358.14,-47731.545,-85262.12999999999,-50105.384999999995,-14645.475,-19238.175,5868.54,-65730.95999999999,4.701081583347995,-0.3215614944732628,-1.9488071671836762,-0.21156096591809215,-0.48597191808180257,-1.3163960838325262,2.243353578847233,6.606144345118871,0.103820535,-0.997495005,0.323302395,112.48146,22.24908,11.94858,71.0
1774822337.72198,4.5299530029296875e-06,2026-03-29T22:12:17.721,2026-03-29T18:12:17.721,-33355.665,-47726.28,-85279.68,-50105.025,-14646.285,-19244.295,5861.61,-65733.12,2.8943484637849535,-2.8501834933656736,-6.444034906289212,-4.483061153329572,-3.432899464041024,-2.9032717488510222,3.1046832203825603,5.5232723342019545,0.103820535,-0.997495005,0.323302395,112.48146,22.24908,11.94858,71.0
1774822337.7219837,3.5762786865234375e-06,2026-03-29T22:12:17.721,2026-03-29T18:12:17.721,-33361.56,-47742.39,-85297.31999999999,-50094.54,-14641.019999999999,-19246.545,5842.035,-65742.61499999999,-0.37393253145802785,-4.373304403933376,-8.48290550282258,-7.098879965569109,-5.143160694890535,-3.5000330875683847,2.4308627141180197,1.7830546473775393,0.103820535,-0.997495005,0.323302395,112.48146,22.24908,11.94858,71.0
1774822337.7219884,4.76837158203125e-06,2026-03-29T22:12:17.721,2026-03-29T18:12:17.721,-33362.505,-47739.15,-85294.215,-50117.67,-14660.775,-19258.739999999998,5846.8949999999995,-65742.39,-3.6514233818247397,-3.9972648080851845,-6.800442028576778,-6.715253406635243,-4.698926905109769,-2.6818543712720384,0.4250236096843857,-3.061704863114042,0.09838842,-0.998837775,0.330382455,145.38201999999998,22.56954,8.316699999999999,71.0
1774822337.721992,3.5762786865234375e-06,2026-03-29T22:12:17.721,2026-03-29T18:12:17.721,-33366.015,-47709.674999999996,-85245.705,-50104.125,-14647.23,-19241.37,5860.98,-65760.345,-5.405672781329882,-1.6559420944398615,-1.7709916066091476,-3.2593032956477073,-2.0868351030687573,-0.5933217266641276,-1.995934127492993,-6.826162601285712,0.09838842,-0.998837775,0.330382455,145.38201999999998,22.56954,8.316699999999999,71.0
1774822337.7219963,4.291534423828125e-06,2026-03-29T22:12:17.721,2026-03-29T18:12:17.721,-33366.915,-47719.439999999995,-85257.045,-50074.515,-14627.519999999999,-19232.145,5857.38,-65758.185,-4.742645799311792,1.745852737348632,4.578048457827053,1.9328290888066901,1.7038974292218283,2.015988552184125,-3.6111000219565943,-7.679784546648063,0.09838842,-0.998837775,0.330382455,145.38201999999998,22.56954,8.316699999999999,71.0
1774822337.722,3.5762786865234375e-06,2026-03-29T22:12:17.721,2026-03-29T18:12:17.721,-33370.875,-47740.32,-85288.95,-50073.615,-14623.515,-19235.16,5834.16,-65756.97,-1.8567070539620667,4.670086782785462,9.370937732135083,6.6255223655618165,5.04829219527921,4.0457096645917385,-3.5028436418518156,-5.032602704575133,0.09838842,-0.998837775,0.330382455,145.38201999999998,22.56954,8.316699999999999,71.0
1774822337.7269766,0.004976749420166016,2026-03-29T22:12:17.726,2026-03-29T18:12:17.726,-33359.76,-47727.99,-85265.19,-50074.604999999996,-14616.945,-19224.809999999998,5827.59,-65741.265,2.012738684062457,5.645591010110176,10.194826757778394,8.649726228826845,6.385067305752275,4.510853640255175,-1.5627178153446193,0.10683094332311958,0.09838842,-0.998837775,0.330382455,145.38201999999998,22.56954,8.316699999999999,71.0
1774822337.7270074,3.075599670410156e-05,2026-03-29T22:12:17.727,2026-03-29T18:12:17.727,-33347.924999999996,-47703.78,-85224.42,-50074.92,-14630.49,-19236.465,5839.875,-65732.265,5.117723246454332,4.010176388936025,6.316096896022082,6.906383484847037,4.946126703315269,3.021276453883953,1.3771703406583713,5.50528817710263,0.09838842,-0.998837775,0.330382455,145.38201999999998,22.56954,8.316699999999999,71.0
1774822337.7309604,0.003952980041503906,2026-03-29T22:12:17.730,2026-03-29T18:12:17.730,-33359.715,-47714.265,-85243.995,-50105.88,-14658.255,-19253.295,5864.085,-65740.23,5.997432825369326,0.3199395609059193,-0.8118537911270443,1.9428541595724202,1.1749478061344665,0.04026115925447147,3.8894185022374224,8.67785237650067,0.09838842,-0.998837775,0.330382455,145.38201999999998,22.56954,8.316699999999999,71.0
1774822337.730986,2.574920654296875e-05,2026-03-29T22:12:17.730,2026-03-29T18:12:17.730,-33365.79,-47726.46,-85268.385,-50141.564999999995,-14677.785,-19262.52,5868.99,-65742.885,4.168204507606379,-3.8141836182992743,-8.065518424494469,-4.192358145277635,-3.3861166324415226,-3.232648147766983,4.636071275747196,8.034854505104871,0.09838842,-0.998837775,0.330382455,145.38201999999998,22.56954,8.316699999999999,71.0
1774822337.734871,0.0038847923278808594,2026-03-29T22:12:17.734,2026-03-29T18:12:17.734,-33358.635,-47721.15,-85265.955,-50120.64,-14662.664999999999,-19258.515,5855.58,-65738.52,0.38034474039426475,-6.431642201186082,-12.025681332012903,-8.793976950701639,-6.725721785352635,-5.342393365016109,3.067507148678545,3.6714474745635406,0.09838842,-0.998837775,0.330382455,145.38201999999998,22.56954,8.316699999999999,71.0
1774822337.734893,2.2172927856445312e-05,2026-03-29T22:12:17.734,2026-03-29T18:12:17.734,-33359.445,-47725.38,-85270.77,-50105.34,-14649.3,-19252.62,5845.365,-65738.745,-3.6919562742498573,-6.160113983475311,-10.602313328859633,-9.695825956945857,-7.253638282977699,-5.230892921201646,-0.2247104151190145,-2.5903891547483777,0.09838842,-0.998837775,0.330382455,145.38201999999998,22.56954,8.316699999999999,71.0
1774822337.741796,0.006902933120727539,2026-03-29T22:12:17.741,2026-03-29T18:12:17.741,-33357.015,-47721.195,-85257.62999999999,-50096.564999999995,-14638.14,-19237.725,5852.745,-65733.48,-6.19870111873196,-2.934091207887066,-4.1320843639796365,-6.288599937474487,-4.555908843009995,-2.7660211183447876,-3.7121802796591905,-7.964130629676159,0.095885985,-0.99718983,0.346861905,174.80329999999998,23.43936,5.32574,71.0
1774822337.741822,2.5987625122070312e-05,2026-03-29T22:12:17.741,2026-03-29T18:12:17.741,-33359.13,-47727.18,-85263.56999999999,-50106.42,-14643.539999999999,-19236.015,5861.655,-65728.665,-5.962355129773017,1.8813738748591058,4.625401848014591,0.11727982181361979,0.3423750318838666,1.1167058581172458,-5.632199068750465,-9.945754994624249,0.095885985,-0.99718983,0.346861905,174.80329999999998,23.43936,5.32574,71.0
1774822337.7418444,2.2411346435546875e-05,2026-03-29T22:12:17.741,2026-03-29T18:12:17.741,-33358.95,-47722.814999999995,-85257.94499999999,-50102.145,-14640.93,-19238.265,5855.985,-65726.595,-3.0336684990239475,6.065133240548127,11.663483120700752,6.785266573140852,5.357853416346587,4.760779440066992,-4.86847146714729,-7.483950030614939,0.095885985,-0.99718983,0.346861905,174.80329999999998,23.43936,5.32574,71.0
1774822337.741854,9.5367431640625e-06,2026-03-29T22:12:17.741,2026-03-29T18:12:17.741,-33355.619999999995,-47709.765,-85239.72,-50111.369999999995,-14660.595,-19258.515,5841.179999999999,-65724.3,1.3089756315718282,7.572959886095545,13.57635822126234,10.722099727021032,8.236160591483165,6.499556201305369,-1.573470434686508,-1.524435614277602,0.095885985,-0.99718983,0.346861905,174.80329999999998,23.43936,5.32574,71.0
1774822337.747085,0.005231142044067383,2026-03-29T22:12:17.747,2026-03-29T18:12:17.747,-33355.17,-47713.275,-85245.03,-50104.979999999996,-14654.115,-19257.21,5842.755,-65718.495,5.1257286035707255,5.54505825050319,9.220031595126718,10.023635396770105,7.567525599358977,5.424248943843302,2.805421318570849,5.34923119893484,0.095885985,-0.99718983,0.346861905,174.80329999999998,23.43936,5.32574,71.0
1774822337.7471135,2.8371810913085938e-05,2026-03-29T22:12:17.747,2026-03-29T18:12:17.747,-33354.045,-47717.055,-85253.48999999999,-50100.75,-14646.105,-19253.79,5850.045,-65713.995,6.692736619973471,0.7879482092173156,0.37069269246485126,4.791823047608386,3.4726782478907294,1.852697473618375,6.155012899570479,10.044252512871733,0.095885985,-0.99718983,0.346861905,174.80329999999998,23.43936,5.32574,71.0
1774822337.7538419,0.006728410720825195,2026-03-29T22:12:17.753,2026-03-29T18:12:17.753,-33352.875,-47716.064999999995,-85250.87999999999,-50103.09,-14646.33,-19253.07,5851.304999999999,-65711.025,5.288994321632389,-4.535736100557813,-8.988686119629596,-2.816466519595152,-2.3723457850105834,-2.740310981977525,6.710541534242855,10.3594800564336,0.095885985,-0.99718983,0.346861905,174.80329999999998,23.43936,5.32574,71.0
1774822337.753859,1.71661376953125e-05,2026-03-29T22:12:17.753,2026-03-29T18:12:17.753,-33346.395,-47716.515,-85258.305,-50114.384999999995,-14655.015,-19257.84,5840.01,-65706.48,1.529349732777667,-7.896525821191299,-14.47304004673906,-9.472936255324557,-7.41836564645489,-6.332288390800462,3.9700304698786417,6.019395858876487,0.095885985,-0.99718983,0.346861905,174.80329999999998,23.43936,5.32574,71.0
1774822337.7538748,1.5735626220703125e-05,2026-03-29T22:12:17.753,2026-03-29T18:12:17.753,-33353.145,-47730.24,-85272.84,-50109.479999999996,-14646.42,-19254.645,5834.025,-65712.59999999999,-2.9112356310698573,-7.611259992063693,-13.367806075294167,-12.135124564137362,-9.356735651657944,-7.249989497858903,-0.9597592450135354,-1.1461480351793178,0.095885985,-0.99718983,0.346861905,174.80329999999998,23.43936,5.32574,71.0
1774822337.7538824,7.62939453125e-06,2026-03-29T22:12:17.753,2026-03-29T18:12:17.753,-33365.07,-47732.265,-85262.22,-50100.21,-14638.14,-19247.355,5848.29,-65705.04,-6.0559240563975685,-3.693274414378242,-5.981478444864152,-9.439739025635873,-7.177780842331234,-4.953465960814123,-5.79950443186476,-7.981169935795032,0.095885985,-0.99718983,0.346861905,174.80329999999998,23.43936,5.32574,71.0
1774822337.7589,0.005017518997192383,2026-03-29T22:12:17.758,2026-03-29T18:12:17.758,-33353.64,-47718.36,-85257.22499999999,-50120.595,-14651.685,-19252.98,5855.04,-65686.905,-6.51811224158545,2.092731050109319,4.399608355005343,-2.3936217596675635,-1.6884161549110608,-0.3380658588839103,-8.149928063918242,-11.406280971073095,0.103332255,-0.992123925,0.37225246500000003,196.28938,25.22478,8.20988,71.0
1774822337.7589216,2.1696090698242188e-05,2026-03-29T22:12:17.758,2026-03-29T18:12:17.758,-33349.095,-47708.28,-85240.75499999999,-50107.409999999996,-14635.439999999999,-19237.77,5860.53,-65688.12,-4.119070398534905,7.027976440128831,12.980526261821627,5.984604978143725,4.77287886412134,4.608900170886862,-6.674998800299761,-9.815308179577842,0.103332255,-0.992123925,0.37225246500000003,196.28938,25.22478,8.20988,71.0
1774822337.7673273,0.008405685424804688,2026-03-29T22:12:17.767,2026-03-29T18:12:17.767,-33344.909999999996,-47702.655,-85236.84,-50094.0,-14627.519999999999,-19235.655,5858.594999999999,-65685.87,0.04732066762415015,8.72776395912736,15.690640230961439,11.954975895993359,9.33093662657185,7.668091249113404,-1.8339468130362633,-3.827653935706722,0.103332255,-0.992123925,0.37225246500000003,196.28938,25.22478,8.20988,71.0
1774822337.767341,1.3589859008789062e-05,2026-03-29T22:12:17.767,2026-03-29T18:12:17.767,-33341.445,-47708.595,-85246.11,-50097.104999999996,-14630.265,-19239.165,5835.554999999999,-65677.31999999999,4.123983498064217,6.305269253366604,11.13164587846366,12.729350878709539,9.856709674732164,7.390696166047324,4.229930437262742,3.956362249238578,0.103332255,-0.992123925,0.37225246500000003,196.28938,25.22478,8.20988,71.0
1774822337.7673547,1.3828277587890625e-05,2026-03-29T22:12:17.767,2026-03-29T18:12:17.767,-33338.25,-47727.54,-85281.165,-50102.82,-14625.135,-19235.79,5832.719999999999,-65663.28,6.332467809730307,0.8378460753280873,1.3006432700792059,7.778083438791698,5.964881474688025,3.7878677265214455,8.639061139132838,10.098670162587736,0.103332255,-0.992123925,0.37225246500000003,196.28938,25.22478,8.20988,71.0
1774822337.7673612,6.4373016357421875e-06,2026-03-29T22:12:17.767,2026-03-29T18:12:17.767,-33337.799999999996,-47745.54,-85314.105,-50102.865,-14617.394999999999,-19232.864999999998,5846.58,-65649.915,5.759024341557202,-5.11058621690781,-9.286146817721722,-0.8436235707021563,-0.7420497947400736,-1.6221712024066837,9.148790304295549,11.855960972753344,0.103332255,-0.992123925,0.37225246500000003,196.28938,25.22478,8.20988,71.0
1774822337.7731075,0.005746364593505859,2026-03-29T22:12:17.773,2026-03-29T18:12:17.773,-33348.465,-47738.43,-85274.91,-50108.715,-14639.355,-19255.14,5845.545,-65650.905,2.7323514123002237,-8.700151387292225,-15.683668645127891,-9.339388686912194,-7.326754726352333,-6.454467872496766,5.281014929931538,8.411610571209488,0.103332255,-0.992123925,0.37225246500000003,196.28938,25.22478,8.20988,71.0
