unix_time_s,dt_s,UTC,LOCAL,EMG1_Raw,EMG2_Raw,EMG3_Raw,EMG4_Raw,EMG5_Raw,EMG6_Raw,EMG7_Raw,EMG8_Raw,EMG1_Filtered,EMG2_Filtered,EMG3_Filtered,EMG4_Filtered,EMG5_Filtered,EMG6_Filtered,EMG7_Filtered,EMG8_Filtered,Accel1_Raw,Accel2_Raw,Accel3_Raw,Gyro1_Raw,Gyro2_Raw,Gyro3_Raw,Battery
1774821835.2817004,,2026-03-29T22:03:55.281,2026-03-29T18:03:55.281,-31932.719999999998,-50340.375,-86055.345,-50413.814999999995,-16314.435,-21001.545,4185.675,-47762.145,2.982247242231498,0.6163654139012467,0.01182875848979216,-0.46037838334300557,-0.5181784402194332,-0.6604123478956253,-3.619441102193345,2.3709103203005597,-0.05566392,-0.466490505,0.881406435,1.3734,7.05012,-4.92898,72.0
1774821835.2817187,1.8358230590820312e-05,2026-03-29T22:03:55.281,2026-03-29T18:03:55.281,-31942.26,-50339.61,-86053.36499999999,-50419.305,-16329.869999999999,-21026.61,4136.49,-47769.119999999995,-4.871559895449672,-1.394173128634559,-0.5556385715549325,-1.564842239943759,-4.011697391000117,-7.696049608688077,-7.501177369911065,-5.526088833732625,-0.05566392,-0.466490505,0.881406435,1.3734,7.05012,-4.92898,72.0
1774821835.2852297,0.0035109519958496094,2026-03-29T22:03:55.285,2026-03-29T18:03:55.285,-31926.555,-50308.56,-86022.72,-50394.104999999996,-16309.664999999999,-21011.895,4136.535,-47776.59,-10.812709715665516,-3.021787615971083,-1.0114823126048975,-2.0412563119711464,-5.727016713688347,-11.204350049698418,-7.051577373937524,-11.041487266101685,-0.05920395,-0.46179081,0.8792091750000001,-0.56462,6.5770599999999995,-3.6624,72.0
1774821835.2852516,2.193450927734375e-05,2026-03-29T22:03:55.285,2026-03-29T18:03:55.285,-31899.239999999998,-50287.77,-86013.045,-50396.04,-16312.68,-21012.03,4180.23,-47749.77,-12.35317864256081,-3.4887135102257476,-1.1136837424329575,-1.6284316305405873,-4.839693865914069,-9.581644991234873,-2.140623818727804,-11.921223014916784,-0.05920395,-0.46179081,0.8792091750000001,-0.56462,6.5770599999999995,-3.6624,72.0
1774821835.2889595,0.0037078857421875,2026-03-29T22:03:55.288,2026-03-29T18:03:55.288,-31926.195,-50312.97,-86022.54,-50396.895,-16307.955,-21002.13,4230.945,-47763.854999999996,-8.793896324370355,-2.4455107878924727,-0.7264990050422656,-0.445427165432681,-1.711522523124093,-3.593984570506671,4.725653189694328,-7.8694237700257705,-0.05920395,-0.46179081,0.8792091750000001,-0.56462,6.5770599999999995,-3.6624,72.0
1774821835.2889855,2.5987625122070312e-05,2026-03-29T22:03:55.288,2026-03-29T18:03:55.288,-31920.21,-50329.755,-86041.08,-50411.43,-16318.439999999999,-21009.735,4216.724999999999,-47755.485,-1.5406874325562159,-0.19774115133108697,0.07171310652852995,1.023313172448343,2.2493192418715693,3.9834308937547385,9.681399230760633,-0.6316247053893834,-0.05920395,-0.46179081,0.8792091750000001,-0.56462,6.5770599999999995,-3.6624,72.0
1774821835.293612,0.00462651252746582,2026-03-29T22:03:55.293,2026-03-29T18:03:55.293,-31911.254999999997,-50338.305,-86061.19499999999,-50439.915,-16349.22,-21042.405,4174.11,-47734.47,6.446697705718011,2.351191583789973,0.9731091303867206,2.115994836792115,5.2202741487021775,9.660946915811067,9.62620422171193,6.766282379497111,-0.05920395,-0.46179081,0.8792091750000001,-0.56462,6.5770599999999995,-3.6624,72.0
1774821835.2936337,2.1696090698242188e-05,2026-03-29T22:03:55.293,2026-03-29T18:03:55.293,-31860.18,-50290.064999999995,-86042.925,-50436.765,-16350.21,-21041.1,4143.195,-47705.265,11.85895109396444,4.0551882434741895,1.5509675235481652,2.2877963240665347,5.805925551141003,10.855343772192644,4.048151642325626,11.287122594281,-0.05920395,-0.46179081,0.8792091750000001,-0.56462,6.5770599999999995,-3.6624,72.0
1774821835.2971313,0.003497600555419922,2026-03-29T22:03:55.297,2026-03-29T18:03:55.297,-31871.114999999998,-50273.82,-85993.92,-50376.42,-16289.144999999999,-20982.329999999998,4141.08,-47720.97,12.407529091836885,4.043943684854732,1.4618542953227518,1.3828484274066077,3.6993762103481034,7.077756706607573,-4.490095304869388,11.125872967904458,-0.05920395,-0.46179081,0.8792091750000001,-0.56462,6.5770599999999995,-3.6624,72.0
1774821835.2971609,2.956390380859375e-05,2026-03-29T22:03:55.297,2026-03-29T18:03:55.297,-31918.364999999998,-50319.99,-86021.775,-50386.049999999996,-16300.439999999999,-20998.305,4110.255,-47762.505,7.795086888260036,2.1692981775595515,0.6439902005235897,-0.25161770972786274,-0.1523482850777225,0.13667096826127895,-11.545569091021996,6.4212573652588,-0.05920395,-0.46179081,0.8792091750000001,-0.56462,6.5770599999999995,-3.6624,72.0
1774821835.3009515,0.003790616989135742,2026-03-29T22:03:55.300,2026-03-29T18:03:55.300,-31924.62,-50366.88,-86097.15,-50460.075,-16378.92,-21080.655,4081.455,-47751.84,-0.12590550733279937,-0.8497332955003579,-0.5998930962139045,-1.8840968629654866,-3.9691399439577113,-6.729736501448916,-13.105099198367911,-0.8391244764407748,-0.05920395,-0.46179081,0.8792091750000001,-0.56462,6.5770599999999995,-3.6624,72.0
1774821835.3009677,1.621246337890625e-05,2026-03-29T22:03:55.300,2026-03-29T18:03:55.300,-31934.07,-50361.119999999995,-86099.44499999999,-50465.205,-16383.644999999999,-21089.565,4137.4349999999995,-47749.59,-8.089744945063696,-3.688555897335834,-1.7017282983154316,-2.7190433179266322,-5.960204191767133,-10.374503806220895,-7.809355200958711,-7.660898607726009,-0.05920395,-0.46179081,0.8792091750000001,-0.56462,6.5770599999999995,-3.6624,72.0
1774821835.3054342,0.004466533660888672,2026-03-29T22:03:55.305,2026-03-29T18:03:55.305,-31995.09,-50349.555,-86063.4,-50427.405,-16338.195,-21043.215,4228.83,-47816.595,-12.760863216362903,-4.998809269615428,-2.0853994555364657,-2.2820890061145325,-5.168271547665959,-9.196937313922092,2.1220738439371543,-11.274495167777497,-0.060973965,-0.45873906000000003,0.880551945,-2.8078399999999997,7.79786,-1.4191799999999999,72.0
1774821835.305462,2.765655517578125e-05,2026-03-29T22:03:55.305,2026-03-29T18:03:55.305,-31981.274999999998,-50324.58,-86033.745,-50406.165,-16318.484999999999,-21028.77,4221.45,-47841.615,-12.13408559927882,-4.055170499969263,-1.4671271324868445,-0.6850104981069725,-1.9360505090935132,-3.8532355255272126,11.833573016578104,-10.252346146049664,-0.060973965,-0.45873906000000003,0.880551945,-2.8078399999999997,7.79786,-1.4191799999999999,72.0
1774821835.3089054,0.003443479537963867,2026-03-29T22:03:55.308,2026-03-29T18:03:55.308,-31936.995,-50303.34,-86013.495,-50384.79,-16298.865,-21012.48,4172.355,-47798.64,-6.4035907470902025,-1.1546131077950679,-0.04329499385969985,1.3752039096376225,2.2347332121910495,3.0962640227943727,16.237482686170296,-5.066093129474774,-0.060973965,-0.45873906000000003,0.880551945,-2.8078399999999997,7.79786,-1.4191799999999999,72.0
1774821835.3089228,1.7404556274414062e-05,2026-03-29T22:03:55.308,2026-03-29T18:03:55.308,-31900.05,-50275.17,-85979.385,-50344.515,-16259.22,-20967.3,4189.455,-47767.59,2.0792056354509265,2.44993636399681,1.550574869539423,2.910332939988397,5.377514534076357,8.417818670327117,12.675141077467181,2.1290527405251964,-0.060973965,-0.45873906000000003,0.880551945,-2.8078399999999997,7.79786,-1.4191799999999999,72.0
1774821835.314274,0.00535130500793457,2026-03-29T22:03:55.314,2026-03-29T18:03:55.314,-31900.41,-50303.07,-86024.34,-50383.125,-16301.654999999999,-21010.77,4201.92,-47749.095,9.763032906605252,5.087044115066921,2.517806972680045,3.1093782439403315,5.988947686365977,9.719287078724477,2.4432198789443405,8.384594930366099,-0.060973965,-0.45873906000000003,0.880551945,-2.8078399999999997,7.79786,-1.4191799999999999,72.0
1774821835.314296,2.193450927734375e-05,2026-03-29T22:03:55.314,2026-03-29T18:03:55.314,-31908.239999999998,-50336.415,-86074.11,-50441.04,-16360.83,-21064.77,4177.71,-47739.24,13.384371912432067,5.447273213617633,2.2972087722781227,1.7619643981000739,3.7525684324359383,6.534880620328832,-9.665483509000097,11.159195982731083,-0.060973965,-0.45873906000000003,0.880551945,-2.8078399999999997,7.79786,-1.4191799999999999,72.0
1774821835.318999,0.004703044891357422,2026-03-29T22:03:55.318,2026-03-29T18:03:55.318,-31899.735,-50315.445,-86048.415,-50421.24,-16337.385,-21036.465,4118.3099999999995,-47740.59,11.362984070506675,3.2403701277011057,0.8820543393700806,-0.5821464332392761,-0.2920823344959505,0.4834939931878812,-17.650932407219155,9.34583184071652,-0.060973965,-0.45873906000000003,0.880551945,-2.8078399999999997,7.79786,-1.4191799999999999,72.0
1774821835.3190246,2.5510787963867188e-05,2026-03-29T22:03:55.319,2026-03-29T18:03:55.319,-31891.59,-50274.945,-85993.065,-50363.595,-16271.64,-20969.594999999998,4115.25,-47754.18,4.5051192299070495,-0.6029824062974354,-1.1164638830299762,-2.8234450467134864,-4.226787220202196,-5.5483328473861215,-17.31108076032826,3.7146231483686716,-0.060973965,-0.45873906000000003,0.880551945,-2.8078399999999997,7.79786,-1.4191799999999999,72.0
1774821835.3213084,0.002283811569213867,2026-03-29T22:03:55.321,2026-03-29T18:03:55.321,-31878.809999999998,-50272.02,-86001.12,-50392.305,-16308.945,-21024.63,4134.465,-47739.869999999995,-4.30440724267823,-4.3141972057478615,-2.723276418485905,-3.820612680841032,-6.161872526820115,-8.78842145499584,-8.44339783797154,-3.4055820907612513,-0.060973965,-0.45873906000000003,0.880551945,-2.8078399999999997,7.79786,-1.4191799999999999,72.0
1774821835.3213243,1.5974044799804688e-05,2026-03-29T22:03:55.321,2026-03-29T18:03:55.321,-31902.84,-50286.015,-86009.265,-50406.165,-16329.285,-21045.915,4187.295,-47766.78,-11.311642745197629,-6.102409351603616,-3.071050082996717,-2.9649674134915034,-5.145318113080007,-7.861734894019908,4.908400712521512,-9.079523924207164,-0.060973965,-0.45873906000000003,0.880551945,-2.8078399999999997,7.79786,-1.4191799999999999,72.0
1774821835.3251688,0.0038444995880126953,2026-03-29T22:03:55.325,2026-03-29T18:03:55.325,-31907.879999999997,-50306.759999999995,-86025.19499999999,-50399.729999999996,-16319.519999999999,-21018.6,4202.865,-47762.775,-13.500525485497334,-5.026212236295606,-1.863448077154535,-0.5350045795455504,-1.6357367639062417,-3.3763697811351956,16.342922014835192,-10.968821435283477,-0.065368485,-0.45507696000000003,0.87695088,-4.0439,6.74492,-0.8392999999999999,72.0
1774821835.3251977,2.8848648071289062e-05,2026-03-29T22:03:55.325,2026-03-29T18:03:55.325,-31914.09,-50335.695,-86065.155,-50431.77,-16333.695,-21008.61,4187.835,-47748.735,-9.907192426059678,-1.4944341661510356,0.4148468917829509,2.3691085321304786,2.697542465343131,2.4380205479679007,20.221989028936797,-8.297897415019978,-0.065368485,-0.45507696000000003,0.87695088,-4.0439,6.74492,-0.8392999999999999,72.0
1774821835.3290732,0.0038754940032958984,2026-03-29T22:03:55.329,2026-03-29T18:03:55.329,-31925.25,-50342.4,-86071.545,-50443.29,-16339.455,-21016.62,4166.91,-47755.845,-2.0619680267768694,2.871521593446436,2.677032504979279,4.314482569758722,5.76363104366869,6.835626981297448,14.478760638192488,-2.18373070603576,-0.065368485,-0.45507696000000003,0.87695088,-4.0439,6.74492,-0.8392999999999999,72.0
1774821835.3290863,1.3113021850585938e-05,2026-03-29T22:03:55.329,2026-03-29T18:03:55.329,-31923.495,-50301.854999999996,-86010.93,-50382.945,-16279.965,-20969.73,4177.71,-47780.28,6.651372823560551,5.978763065154605,3.7456476807520858,4.2352154821403,6.057525416695642,7.856532344252711,1.701418522748151,4.815891124440039,-0.065368485,-0.45507696000000003,0.87695088,-4.0439,6.74492,-0.8392999999999999,72.0
1774821835.3354387,0.006352424621582031,2026-03-29T22:03:55.335,2026-03-29T18:03:55.335,-31918.815,-50283.45,-85987.75499999999,-50352.884999999995,-16257.33,-20950.2,4181.8949999999995,-47789.369999999995,12.456918625726196,6.2704965759359625,2.9593304388273967,2.0041319557086097,3.4009765048655862,5.205438352488671,-12.070079135828351,9.761272780272847,-0.065368485,-0.45507696000000003,0.87695088,-4.0439,6.74492,-0.8392999999999999,72.0
1774821835.335467,2.8371810913085938e-05,2026-03-29T22:03:55.335,2026-03-29T18:03:55.335,-31903.785,-50283.854999999996,-85996.44,-50358.78,-16261.425,-20952.989999999998,4179.96,-47782.395,12.837577237078396,3.5134518875381433,0.5649822161064275,-1.4255198753586382,-0.9488922909247168,0.31067686469104466,-20.257318972276806,10.565373628881082,-0.065368485,-0.45507696000000003,0.87695088,-4.0439,6.74492,-0.8392999999999999,72.0
1774821835.3373435,0.0018763542175292969,2026-03-29T22:03:55.337,2026-03-29T18:03:55.337,-31888.215,-50298.299999999996,-86020.065,-50378.895,-16282.08,-20973.465,4144.635,-47769.39,7.647818210223751,-1.035635800745254,-2.3302026551985606,-4.416023480080723,-4.888814463710215,-4.429420829681571,-18.93514954901641,6.887080141967484,-0.065368485,-0.45507696000000003,0.87695088,-4.0439,6.74492,-0.8392999999999999,72.0
1774821835.3373647,2.1219253540039062e-05,2026-03-29T22:03:55.337,2026-03-29T18:03:55.337,-31889.52,-50316.119999999995,-86027.44499999999,-50389.695,-16294.545,-20985.12,4176.855,-47756.655,-0.8132692982703582,-5.194594682381751,-4.261253361648285,-5.420751384490215,-6.482917696784536,-6.820932111271813,-8.730693973221616,0.2957878594628442,-0.065368485,-0.45507696000000003,0.87695088,-4.0439,6.74492,-0.8392999999999999,72.0
1774821835.3416808,0.004316091537475586,2026-03-29T22:03:55.341,2026-03-29T18:03:55.341,-31916.835,-50337.405,-86029.605,-50395.95,-16301.97,-20993.489999999998,4232.295,-47757.284999999996,-8.813504842552312,-6.901796863511059,-4.139196793975712,-3.774903300896909,-4.91357851745474,-5.894487986643583,5.497297181765992,-6.380585843467286,-0.065368485,-0.45507696000000003,0.87695088,-4.0439,6.74492,-0.8392999999999999,72.0
1774821835.3417125,3.170967102050781e-05,2026-03-29T22:03:55.341,2026-03-29T18:03:55.341,-31960.89,-50336.235,-86033.11499999999,-50405.174999999996,-16315.65,-21014.82,4228.875,-47787.435,-12.842469633377457,-5.242527487365418,-1.8517512941291097,-0.10052342680570074,-0.9025023452449867,-2.294566846992524,17.025200390872023,-10.262863685391745,-0.065368485,-0.45507696000000003,0.87695088,-4.0439,6.74492,-0.8392999999999999,72.0
1774821835.3491244,0.007411956787109375,2026-03-29T22:03:55.349,2026-03-29T18:03:55.349,-31948.605,-50308.515,-86030.685,-50412.33,-16325.279999999999,-21029.715,4213.98,-47787.119999999995,-11.172679890500156,-0.9431739934511815,1.594965445393491,3.909615298266203,3.6156447383153667,2.116533110139274,20.500675935263747,-9.671978705156393,-0.065246415,-0.456236625,0.874448445,-4.28806,6.1955599999999995,1.78542,72.0
1774821835.349157,3.266334533691406e-05,2026-03-29T22:03:55.349,2026-03-29T18:03:55.349,-31916.655,-50302.89,-86029.56,-50411.52,-16323.795,-21029.085,4230.9,-47762.729999999996,-4.6237473269768525,3.934309879761903,4.506628578623435,6.266379554010279,6.422431325763547,5.212100842353455,14.46381012330094,-4.877144494637744,-0.065246415,-0.456236625,0.874448445,-4.28806,6.1955599999999995,1.78542,72.0
1774821835.3491902,3.314018249511719e-05,2026-03-29T22:03:55.349,2026-03-29T18:03:55.349,-31913.504999999997,-50316.299999999996,-86059.75499999999,-50451.39,-16369.335,-21076.02,4197.15,-47763.81,3.8193758686193227,6.975548186100613,5.3256285868388735,5.6654961938678206,6.103206460293536,5.6275023985936,1.9488825288954335,2.0021712030723036,-0.065246415,-0.456236625,0.874448445,-4.28806,6.1955599999999995,1.78542,72.0
1774821835.3492072,1.6927719116210938e-05,2026-03-29T22:03:55.349,2026-03-29T18:03:55.349,-31901.309999999998,-50316.57,-86055.705,-50450.04,-16371.09,-21078.63,4161.51,-47751.884999999995,10.36439534655382,6.607957730817471,3.4525136362772635,2.1936362430259178,2.7604025862969097,3.3636248574210192,-11.074458814738724,7.9178788833498395,-0.065246415,-0.456236625,0.874448445,-4.28806,6.1955599999999995,1.78542,72.0
1774821835.353037,0.0038299560546875,2026-03-29T22:03:55.353,2026-03-29T18:03:55.353,-31879.98,-50324.22,-86063.265,-50456.97,-16376.445,-21081.329999999998,4142.655,-47716.155,12.129438368693506,2.9155890448079407,-0.36462815016706623,-2.6172549862574974,-2.0074981861309524,-0.3005682103100833,-18.606124912263095,10.245677190774597,-0.065246415,-0.456236625,0.874448445,-4.28806,6.1955599999999995,1.78542,72.0
1774821835.353057,1.9788742065429688e-05,2026-03-29T22:03:55.353,2026-03-29T18:03:55.353,-31876.02,-50344.47,-86088.23999999999,-50471.729999999996,-16385.265,-21087.09,4143.96,-47697.705,8.436446831280138,-2.3478548306341867,-4.310048462278825,-6.459822949804698,-5.86687079422383,-3.506559329464605,-17.427331922937316,7.968327072652988,-0.065246415,-0.456236625,0.874448445,-4.28806,6.1955599999999995,1.78542,72.0
1774821835.3570547,0.003997802734375,2026-03-29T22:03:55.357,2026-03-29T18:03:55.357,-31882.995,-50331.78,-86067.94499999999,-50440.095,-16349.67,-21046.05,4169.745,-47713.005,1.0888994655231576,-6.583325061971319,-6.356445729730483,-7.356134770246324,-6.889390480221571,-4.753208748898345,-8.479474612649472,2.148376990721925,-0.065246415,-0.456236625,0.874448445,-4.28806,6.1955599999999995,1.78542,72.0
1774821835.3570716,1.6927719116210938e-05,2026-03-29T22:03:55.357,2026-03-29T18:03:55.357,-31951.44,-50314.455,-86010.48,-50358.15,-16259.715,-20957.355,4225.275,-47810.52,-6.48957220020987,-7.6240195660865275,-5.2971901952039895,-4.669256509749714,-4.515426808787258,-3.6020117272317314,3.781549844566022,-4.541667962840699,-0.065246415,-0.456236625,0.874448445,-4.28806,6.1955599999999995,1.78542,72.0
1774821835.3612523,0.0041806697845458984,2026-03-29T22:03:55.361,2026-03-29T18:03:55.361,-31936.905,-50309.865,-86036.625,-50397.165,-16304.22,-21009.239999999998,4175.73,-47810.97,-10.851619069470813,-4.840195935455529,-1.4327312255968967,0.4934974636849059,0.14117382758395655,-0.8181062595934839,13.64517816418424,-9.035638060484505,-0.065246415,-0.456236625,0.874448445,-4.28806,6.1955599999999995,1.78542,72.0
1774821835.3612812,2.8848648071289062e-05,2026-03-29T22:03:55.361,2026-03-29T18:03:55.361,-31924.664999999997,-50309.28,-86037.165,-50401.845,-16309.98,-21014.415,4167.36,-47806.335,-10.11271120414226,0.4907100651996252,3.470101977923336,5.726111009079545,4.812551941743402,2.090628332347274,16.857024267406686,-9.28817876987093,-0.065246415,-0.456236625,0.874448445,-4.28806,6.1955599999999995,1.78542,72.0
1774821835.3665173,0.005236148834228516,2026-03-29T22:03:55.366,2026-03-29T18:03:55.366,-31885.695,-50298.525,-86031.18,-50404.634999999995,-16320.24,-21021.93,4157.82,-47760.615,-4.789799886778761,5.761152256873254,6.9782483104604225,8.445713589700446,7.180327895007149,3.6739747867726695,12.470434994782664,-5.231471008930061,-0.062194665,-0.460387005,0.8776833,-1.9227599999999998,5.85984,2.88414,72.0
1774821835.3665397,2.2411346435546875e-05,2026-03-29T22:03:55.366,2026-03-29T18:03:55.366,-31880.52,-50292.9,-86028.165,-50396.58,-16306.019999999999,-21003.03,4167.405,-47743.064999999995,2.492327693395968,8.30107101992744,7.1936999143898515,7.167785415615818,6.026891278603781,3.2608302129734263,3.025171979449769,1.1840229640616406,-0.062194665,-0.460387005,0.8776833,-1.9227599999999998,5.85984,2.88414,72.0
1774821835.3711,0.004560232162475586,2026-03-29T22:03:55.371,2026-03-29T18:03:55.371,-31908.645,-50309.009999999995,-86046.93,-50407.875,-16313.4,-21009.059999999998,4218.66,-47761.65,8.276762472131542,6.72247873485898,3.765167947481426,2.3048156228794188,1.8623547293078861,1.243368463328117,-6.902574907598441,6.901567912963768,-0.062194665,-0.460387005,0.8776833,-1.9227599999999998,5.85984,2.88414,72.0
1774821835.3711147,1.4781951904296875e-05,2026-03-29T22:03:55.371,2026-03-29T18:03:55.371,-31941.675,-50345.729999999996,-86068.665,-50421.825,-16325.369999999999,-21025.98,4202.775,-47787.479999999996,9.919050286811142,1.666689588260285,-1.8235172929732992,-3.9371141100344333,-3.2963470264417736,-1.1965735793330452,-12.960401700092563,9.2070818155386,-0.062194665,-0.460387005,0.8776833,-1.9227599999999998,5.85984,2.88414,72.0
1774821835.373459,0.002344369888305664,2026-03-29T22:03:55.373,2026-03-29T18:03:55.373,-31935.195,-50334.705,-86054.175,-50426.685,-16320.644999999999,-21012.075,4188.87,-47791.08,6.816652911997376,-4.443660519671676,-6.885403367662876,-8.559748442816684,-6.901762500396843,-2.7502267752427616,-12.955131530093661,7.0314203761760865,-0.062194665,-0.460387005,0.8776833,-1.9227599999999998,5.85984,2.88414,72.0
1774821835.3734815,2.2411346435546875e-05,2026-03-29T22:03:55.373,2026-03-29T18:03:55.373,-31925.925,-50308.83,-86019.93,-50419.665,-16325.279999999999,-21008.295,4188.0599999999995,-47786.625,0.6429684643965661,-8.559089051489863,-8.81966336065701,-9.217950734870138,-7.135795671265109,-2.673071082526696,-7.589742486867548,1.4757363300192947,-0.062194665,-0.460387005,0.8776833,-1.9227599999999998,5.85984,2.88414,72.0
1774821835.379238,0.005756378173828125,2026-03-29T22:03:55.379,2026-03-29T18:03:55.379,-31925.52,-50298.525,-86014.89,-50408.955,-16327.755,-21015.225,4177.62,-47785.455,-5.513226671926459,-8.516312011165418,-6.440586378976735,-5.410029064128374,-3.8293630185273666,-1.1437958053961894,0.21011812206451888,-4.710020419059283,-0.062194665,-0.460387005,0.8776833,-1.9227599999999998,5.85984,2.88414,72.0
1774821835.3792567,1.8835067749023438e-05,2026-03-29T22:03:55.379,2026-03-29T18:03:55.379,-31906.44,-50314.095,-86045.48999999999,-50412.869999999995,-16329.33,-21025.665,4169.7,-47774.924999999996,-8.674396467485733,-4.1619986104670215,-0.6696674496370304,1.1916745126980925,1.4248220374637617,0.8832438068681255,6.89321220088523,-8.462219961562841,-0.062194665,-0.460387005,0.8776833,-1.9227599999999998,5.85984,2.88414,72.0
1774821835.386062,0.0068051815032958984,2026-03-29T22:03:55.386,2026-03-29T18:03:55.386,-31878.989999999998,-50304.375,-86026.14,-50376.24,-16294.365,-21002.85,4146.66,-47752.65,-7.4191512505078165,2.4917845745666436,5.801286070452775,7.472984841318517,6.038357731423833,2.2347228562715373,9.932156163836657,-7.914089474125516,-0.062194665,-0.460387005,0.8776833,-1.9227599999999998,5.85984,2.88414,72.0
1774821835.3860812,1.9311904907226562e-05,2026-03-29T22:03:55.386,2026-03-29T18:03:55.386,-31871.114999999998,-50280.705,-85995.54,-50350.229999999996,-16267.185,-20983.364999999998,4139.639999999999,-47744.1,-2.5421905690365127,8.193945915567339,9.765695379604018,10.35441437256846,7.70480890514189,2.1731152619129688,8.74400965309243,-3.3395031919069655,-0.062194665,-0.460387005,0.8776833,-1.9227599999999998,5.85984,2.88414,72.0
1774821835.3861008,1.9550323486328125e-05,2026-03-29T22:03:55.386,2026-03-29T18:03:55.386,-31912.245,-50271.255,-85972.36499999999,-50341.365,-16252.019999999999,-20965.184999999998,4180.635,-47795.085,3.386304142974016,10.037400022554712,9.091094942936975,8.308968245065868,5.55748539427416,0.793398483101141,4.567588847355325,2.952543558933047,-0.06054672,-0.46166874,0.8802467700000001,-2.73154,5.24944,4.21176,72.0
1774821835.386105,4.291534423828125e-06,2026-03-29T22:03:55.386,2026-03-29T18:03:55.386,-31906.395,-50271.255,-85978.305,-50362.2,-16271.955,-20971.89,4194.855,-47790.63,7.335003727592338,6.929471004263174,3.8535720304774714,2.1695120557791236,0.6240695037033962,-1.0494544588261059,-0.45560940681378287,7.7472075885122695,-0.06054672,-0.46166874,0.8802467700000001,-2.73154,5.24944,4.21176,72.0
1774821835.3890529,0.0029478073120117188,2026-03-29T22:03:55.389,2026-03-29T18:03:55.389,-31892.219999999998,-50279.354999999996,-86003.28,-50380.11,-16280.279999999999,-20976.614999999998,4162.5,-47771.009999999995,7.341288558298588,0.2097439375425145,-3.581528657618529,-5.20077607479491,-4.662255608184027,-2.2368523452244786,-4.396407009339899,8.538122536534006,-0.06054672,-0.46166874,0.8802467700000001,-2.73154,5.24944,4.21176,72.0
1774821835.3890805,2.765655517578125e-05,2026-03-29T22:03:55.389,2026-03-29T18:03:55.389,-31880.43,-50288.715,-86038.65,-50424.435,-16329.824999999999,-21029.625,4146.21,-47764.395,3.4916201200744985,-6.924038467205372,-9.628206907843188,-10.250847307719871,-7.66465763182796,-2.0305577668175765,-6.2620690899119555,4.826389340842663,-0.06054672,-0.46166874,0.8802467700000001,-2.73154,5.24944,4.21176,72.0
1774821835.3936336,0.004553079605102539,2026-03-29T22:03:55.393,2026-03-29T18:03:55.393,-31881.735,-50305.229999999996,-86043.015,-50427.945,-16345.664999999999,-21051.045,4140.63,-47764.665,-2.139406157706271,-10.937937020373512,-11.21549709720281,-10.465032961197023,-6.863501843184115,-0.5062546891906342,-6.067374315557937,-1.564895408062509,-0.06054672,-0.46166874,0.8802467700000001,-2.73154,5.24944,4.21176,72.0
1774821835.393664,3.0279159545898438e-05,2026-03-29T22:03:55.393,2026-03-29T18:03:55.393,-31891.815,-50324.04,-86029.065,-50393.7,-16303.769999999999,-21005.505,4175.235,-47768.985,-6.562365236918565,-9.706654700323021,-7.347153924212572,-5.625478646320971,-2.6322449274404707,1.4688938114636276,-4.404315665559874,-7.355340695821618,-0.06054672,-0.46166874,0.8802467700000001,-2.73154,5.24944,4.21176,72.0
1774821835.3996828,0.006018877029418945,2026-03-29T22:03:55.399,2026-03-29T18:03:55.399,-31867.515,-50311.17,-86042.83499999999,-50412.104999999996,-16322.805,-21029.67,4187.925,-47724.21,-7.418655502486265,-3.621169763475955,0.30772461874057944,2.024043788091122,2.930830313894798,2.7121693839206666,-1.916633519737228,-9.453627181045121,-0.06054672,-0.46166874,0.8802467700000001,-2.73154,5.24944,4.21176,72.0
1774821835.3997123,2.956390380859375e-05,2026-03-29T22:03:55.399,2026-03-29T18:03:55.399,-31885.92,-50288.939999999995,-86026.815,-50398.695,-16307.055,-21013.649999999998,4184.639999999999,-47726.909999999996,-4.213582226882815,4.51224547008567,8.132142998734011,8.822741788964372,7.042728686963383,2.400382577001733,0.9505904977772871,-6.57275373598229,-0.06054672,-0.46166874,0.8802467700000001,-2.73154,5.24944,4.21176,72.0
1774821835.3997424,3.0040740966796875e-05,2026-03-29T22:03:55.399,2026-03-29T18:03:55.399,-31930.92,-50303.564999999995,-86018.895,-50390.009999999995,-16296.705,-21005.055,4207.32,-47778.615,1.3994414768119616,10.77146875118734,12.280853888120275,11.458261151061489,7.632757291592044,0.5710461151197896,3.827943212628567,0.01772538451093555,-0.06054672,-0.46166874,0.8802467700000001,-2.73154,5.24944,4.21176,72.0
1774821835.3997545,1.2159347534179688e-05,2026-03-29T22:03:55.399,2026-03-29T18:03:55.399,-31957.335,-50327.775,-86039.64,-50425.064999999995,-16344.765,-21056.85,4195.8,-47821.32,6.445790899556547,12.01227094681107,10.579948133901985,8.595835533705749,4.3933068327198255,-1.8407933958730496,6.1380368673055345,7.0293132445717275,-0.06054672,-0.46166874,0.8802467700000001,-2.73154,5.24944,4.21176,72.0
1774821835.4096704,0.009915828704833984,2026-03-29T22:03:55.409,2026-03-29T18:03:55.409,-31949.414999999997,-50309.145,-86014.70999999999,-50400.854999999996,-16320.779999999999,-21031.605,4169.925,-47839.32,8.163769124847919,7.440165877351702,3.662908866605198,1.5629402218441553,-1.0523096590647478,-3.4748952611796007,7.001570436037886,10.766320545822953,-0.056945655,-0.46008183,0.88049091,-2.71628,4.21176,6.88226,72.0
1774821835.4096868,1.6450881958007812e-05,2026-03-29T22:03:55.409,2026-03-29T18:03:55.409,-31888.53,-50254.064999999995,-85964.355,-50358.104999999996,-16279.83,-20990.024999999998,4180.365,-47791.439999999995,5.469426820707887,-0.9235016485345368,-5.250464202588274,-6.265760056498998,-5.959586899227727,-3.291431748316937,5.551879973431157,9.032993877275604,-0.056945655,-0.46008183,0.88049091,-2.71628,4.21176,6.88226,72.0
1774821835.409706,1.9311904907226562e-05,2026-03-29T22:03:55.409,2026-03-29T18:03:55.409,-31879.17,-50249.43,-85949.37,-50326.83,-16234.064999999999,-20926.485,4223.43,-47774.655,-0.40941067186973784,-9.142160352172207,-11.865357783396485,-11.099288602998913,-7.848212130869698,-1.1896938845210618,1.557801345405754,2.365915786441265,-0.056945655,-0.46008183,0.88049091,-2.71628,4.21176,6.88226,72.0
1774821835.409711,4.76837158203125e-06,2026-03-29T22:03:55.409,2026-03-29T18:03:55.409,-31899.555,-50295.555,-86021.81999999999,-50395.725,-16304.13,-20994.84,4239.54,-47777.534999999996,-6.4857214820169755,-13.227163222602117,-12.898895343346668,-10.58417917621407,-5.763075081337169,1.8532698790418145,-4.0403954611057715,-6.081274583638573,-0.056945655,-0.46008183,0.88049091,-2.71628,4.21176,6.88226,72.0
1774821835.4135585,0.0038475990295410156,2026-03-29T22:03:55.413,2026-03-29T18:03:55.413,-31939.739999999998,-50347.89,-86082.25499999999,-50453.055,-16358.715,-21053.655,4230.135,-47793.015,-9.50778457685755,-11.076758452079797,-7.720422033536064,-4.966711104910116,-0.7666777215828903,4.234233576947462,-9.137008231802392,-12.015514098336515,-0.056945655,-0.46008183,0.88049091,-2.71628,4.21176,6.88226,72.0
1774821835.4135852,2.6702880859375e-05,2026-03-29T22:03:55.413,2026-03-29T18:03:55.413,-31946.715,-50345.145,-86077.34999999999,-50450.04,-16349.4,-21056.489999999998,4183.155,-47802.42,-7.656402837507634,-3.545888163067914,1.2803461193688297,3.017969205426495,4.595031462488252,4.558589345596093,-11.211811203738868,-12.158552073041388,-0.056945655,-0.46008183,0.88049091,-2.71628,4.21176,6.88226,72.0
1774821835.4201305,0.006545305252075195,2026-03-29T22:03:55.420,2026-03-29T18:03:55.420,-31923.27,-50315.265,-86047.02,-50428.439999999995,-16324.244999999999,-21028.454999999998,4187.205,-47799.18,-1.5734880483565088,5.8944078367592985,9.807487904061162,9.483936890809122,7.588212162340436,2.4279965160052885,-8.582906139345528,-6.00657318896786,-0.056945655,-0.46008183,0.88049091,-2.71628,4.21176,6.88226,72.0
1774821835.4201517,2.1219253540039062e-05,2026-03-29T22:03:55.420,2026-03-29T18:03:55.420,-31874.265,-50271.795,-86001.885,-50393.115,-16294.32,-20988.765,4234.455,-47766.42,5.839132865834785,12.772405594301278,13.73155925303492,11.302885180893353,6.689745724072856,-1.2529153271157565,-1.535512959639411,3.732329153017004,-0.056945655,-0.46008183,0.88049091,-2.71628,4.21176,6.88226,72.0
1774821835.4201803,2.86102294921875e-05,2026-03-29T22:03:55.420,2026-03-29T18:03:55.420,-31869.09,-50277.689999999995,-86000.355,-50383.845,-16285.904999999999,-20973.69,4200.48,-47755.485,10.802053653255296,13.747191716761382,11.110795381834038,7.638168132333535,2.3714672663331378,-4.653454379683809,7.36799157059267,12.323416420115612,-0.056945655,-0.46008183,0.88049091,-2.71628,4.21176,6.88226,72.0
1774821835.4201908,1.049041748046875e-05,2026-03-29T22:03:55.420,2026-03-29T18:03:55.420,-31894.739999999998,-50320.799999999996,-86042.925,-50422.545,-16329.06,-21019.995,4148.639999999999,-47758.275,10.564416404632068,8.233761606500893,3.1612102944746483,0.342862373686718,-3.1377112283470154,-5.924776388413313,14.152988964577757,15.29948418712767,-0.056945655,-0.46008183,0.88049091,-2.71628,4.21176,6.88226,72.0
1774821835.432495,0.012304306030273438,2026-03-29T22:03:55.432,2026-03-29T18:03:55.432,-31877.73,-50321.835,-86052.645,-50432.939999999995,-16344.539999999999,-21036.105,4172.67,-47733.659999999996,4.879677212673517,-1.2708943901110537,-6.314366013265609,-6.974379680793184,-6.996138903024929,-4.18992802755567,15.221670983927515,10.755190757244604,-0.054748395,-0.45739629,0.88073505,-4.28806,5.17314,8.6982,72.0
1774821835.432509,1.3828277587890625e-05,2026-03-29T22:03:55.432,2026-03-29T18:03:55.432,-31880.745,-50314.814999999995,-86058.54,-50436.854999999996,-16348.455,-21044.79,4188.735,-47744.505,-3.724780342969886,-10.335466044193279,-12.768303784440775,-10.746434757933109,-7.2153887284442275,-0.092039412808154,9.25390603416957,0.4725840457919424,-0.054748395,-0.45739629,0.88073505,-4.28806,5.17314,8.6982,72.0
1774821835.43253,2.09808349609375e-05,2026-03-29T22:03:55.432,2026-03-29T18:03:55.432,-31879.8,-50304.869999999995,-86049.495,-50427.09,-16331.265,-21029.715,4161.0599999999995,-47758.455,-11.07900291878762,-14.681014412385275,-13.119283933206109,-9.207847599094203,-3.6915357729559606,4.423671388354524,-1.7816747169687999,-10.758715884437015,-0.054748395,-0.45739629,0.88073505,-4.28806,5.17314,8.6982,72.0
1774821835.4325347,4.76837158203125e-06,2026-03-29T22:03:55.432,2026-03-29T18:03:55.432,-31902.254999999997,-50300.82,-86017.275,-50396.939999999995,-16294.769999999999,-20986.29,4141.8,-47787.705,-13.39386593472243,-12.214682822444264,-7.244345812316464,-3.2400951722009,1.7358188781525723,7.03339320818253,-13.170510734162646,-17.379932454843928,-0.054748395,-0.45739629,0.88073505,-4.28806,5.17314,8.6982,72.0
1774821835.4325404,5.7220458984375e-06,2026-03-29T22:03:55.432,2026-03-29T18:03:55.432,-31925.114999999998,-50281.604999999996,-85982.265,-50358.689999999995,-16256.699999999999,-20943.495,4153.95,-47828.79,-9.193397928388274,-4.037007221701481,1.9810137508461665,4.111901934625679,6.234259157141102,6.225540620416589,-19.47095672422184,-15.811356923549592,-0.054748395,-0.45739629,0.88073505,-4.28806,5.17314,8.6982,72.0
1774821835.4325442,3.814697265625e-06,2026-03-29T22:03:55.432,2026-03-29T18:03:55.432,-31893.12,-50268.195,-85987.62,-50370.795,-16273.755,-20966.175,4192.695,-47807.28,-0.17705854953640304,6.062765286746544,10.107255939868613,9.194897258527982,7.451645617941246,2.1508445337636544,-17.142602677362753,-6.351845603776222,-0.054748395,-0.45739629,0.88073505,-4.28806,5.17314,8.6982,72.0
1774821835.4372346,0.004690408706665039,2026-03-29T22:03:55.437,2026-03-29T18:03:55.437,-31858.289999999997,-50280.479999999996,-86014.44,-50397.39,-16306.83,-21005.28,4195.035,-47756.61,9.468827175628622,13.386258228294013,13.287595749861884,9.579492427554367,4.7475745830906,-3.3366610422341623,-6.501773231351142,6.766679843837129,-0.054748395,-0.45739629,0.88073505,-4.28806,5.17314,8.6982,72.0
1774821835.4372592,2.4557113647460938e-05,2026-03-29T22:03:55.437,2026-03-29T18:03:55.437,-31863.69,-50298.39,-86030.86499999999,-50401.799999999996,-16311.24,-21012.66,4204.53,-47737.799999999996,15.032180659671148,14.53432425028136,10.128860630973657,5.243369804821111,-0.46205936379980644,-7.522160412082706,8.062431649212336,17.284857756521543,-0.054748395,-0.45739629,0.88073505,-4.28806,5.17314,8.6982,72.0
1774821835.441648,0.0043888092041015625,2026-03-29T22:03:55.441,2026-03-29T18:03:55.441,-31917.914999999997,-50339.295,-86060.52,-50421.645,-16330.455,-21037.454999999998,4187.07,-47762.055,13.582949699845704,8.99581750424103,2.3118821949742885,-1.4808166245503784,-5.4356024670560705,-8.174084292793248,19.88612881639862,19.919086557988173,-0.054748395,-0.45739629,0.88073505,-4.28806,5.17314,8.6982,72.0
1774821835.4416633,1.52587890625e-05,2026-03-29T22:03:55.441,2026-03-29T18:03:55.441,-31930.245,-50351.31,-86074.65,-50424.165,-16322.715,-21024.27,4198.139999999999,-47782.979999999996,5.494183671854174,-0.631409160659966,-6.300807419534838,-7.144554498924208,-7.538687963674347,-4.7238383192861955,23.113101595288356,13.01396730151845,-0.054748395,-0.45739629,0.88073505,-4.28806,5.17314,8.6982,72.0
1774821835.446334,0.004670619964599609,2026-03-29T22:03:55.446,2026-03-29T18:03:55.446,-31936.995,-50344.47,-86065.65,-50425.92,-16315.65,-21010.14,4198.5,-47818.89,-5.606208997452817,-9.880190301936818,-11.598188907982255,-8.957792276508682,-5.6346822595121475,1.3383358862437311,15.62017066620415,-0.4882630277855726,-0.05700669,-0.45544317,0.8802467700000001,-7.752079999999999,3.79974,10.17842,72.0
1774821835.446374,4.00543212890625e-05,2026-03-29T22:03:55.446,2026-03-29T18:03:55.446,-31921.92,-50326.515,-86048.45999999999,-50427.674999999996,-16322.984999999999,-21016.035,4156.155,-47816.775,-14.4842902488546,-14.514133370044203,-11.217393980704474,-6.183453485742303,-0.7007827045103311,7.100942069957673,0.31354815500517574,-14.307356313639342,-0.05700669,-0.45544317,0.8802467700000001,-7.752079999999999,3.79974,10.17842,72.0
1774821835.4496336,0.0032596588134765625,2026-03-29T22:03:55.449,2026-03-29T18:03:55.449,-31938.57,-50310.99,-86015.745,-50402.97,-16306.965,-21008.655,4108.23,-47839.59,-16.791047610108908,-12.488840975616377,-5.618800396243251,-0.4465777049023663,4.664420924942074,9.632930637949348,-15.960972964159938,-21.77301684875452,-0.05700669,-0.45544317,0.8802467700000001,-7.752079999999999,3.79974,10.17842,72.0
1774821835.449653,1.9311904907226562e-05,2026-03-29T22:03:55.449,2026-03-29T18:03:55.449,-31931.055,-50286.555,-85995.765,-50392.259999999995,-16306.064999999999,-21025.079999999998,4067.865,-47848.095,-11.199940663908832,-4.856732538203038,2.2602954406122757,5.177444553609306,7.597389683053019,7.4730865740428305,-25.506772253435205,-19.06585338576082,-0.05700669,-0.45544317,0.8802467700000001,-7.752079999999999,3.79974,10.17842,72.0
1774821835.4533813,0.0037283897399902344,2026-03-29T22:03:55.453,2026-03-29T18:03:55.453,-31891.184999999998,-50274.945,-85988.655,-50395.365,-16308.63,-21029.579999999998,4097.5199999999995,-47801.79,-0.13661910974090885,4.786677948065711,8.550516436315151,7.798299672558604,6.486786401551616,1.4507852335994385,-23.457417480522412,-7.166837102159438,-0.05700669,-0.45544317,0.8802467700000001,-7.752079999999999,3.79974,10.17842,72.0
1774821835.4534018,2.0503997802734375e-05,2026-03-29T22:03:55.453,2026-03-29T18:03:55.453,-31870.17,-50272.29,-85989.78,-50392.35,-16305.525,-21026.79,4168.62,-47765.79,11.29033997304227,12.022143658990053,10.380772248917399,6.2056936721013285,1.8521053271904786,-5.6141278714483,-10.270793078552497,8.479122744273958,-0.05700669,-0.45544317,0.8802467700000001,-7.752079999999999,3.79974,10.17842,72.0
1774821835.4575195,0.004117727279663086,2026-03-29T22:03:55.457,2026-03-29T18:03:55.457,-31890.465,-50308.2,-86040.0,-50433.525,-16346.744999999999,-21073.274999999998,4232.205,-47756.025,17.679081290903106,13.658837639340272,7.218793178452176,1.4470864034537227,-3.892188703515272,-10.234772266828342,8.246894578841765,20.482227625085223,-0.05700669,-0.45544317,0.8802467700000001,-7.752079999999999,3.79974,10.17842,72.0
1774821835.4575489,2.9325485229492188e-05,2026-03-29T22:03:55.457,2026-03-29T18:03:55.457,-31890.195,-50311.125,-86047.65,-50435.955,-16342.199999999999,-21062.024999999998,4254.03,-47754.945,15.913407112317643,9.154337564355608,0.9819058351755071,-3.7962452659248527,-7.6833211382996565,-9.981271615204319,23.51247455627984,23.032171990510186,-0.05700669,-0.45544317,0.8802467700000001,-7.752079999999999,3.79974,10.17842,72.0
1774821835.46152,0.003971099853515625,2026-03-29T22:03:55.461,2026-03-29T18:03:55.461,-31888.125,-50302.619999999995,-86036.175,-50425.604999999996,-16325.865,-21032.684999999998,4208.985,-47774.52,6.688520746107078,0.7644193972933478,-5.074580942555611,-6.683146004651342,-7.428182337020689,-4.751376465938259,28.186292545429392,14.73190100348908,-0.05700669,-0.45544317,0.8802467700000001,-7.752079999999999,3.79974,10.17842,72.0
1774821835.4615417,2.1696090698242188e-05,2026-03-29T22:03:55.461,2026-03-29T18:03:55.461,-31884.21,-50287.814999999995,-86015.34,-50396.22,-16285.994999999999,-20963.024999999998,4237.875,-47786.22,-5.766627820417007,-7.5988679547041444,-8.065633401275663,-5.740170779786219,-3.143831879796485,3.073743049336529,19.73888388007801,-0.6510026576686034,-0.05700669,-0.45544317,0.8802467700000001,-7.752079999999999,3.79974,10.17842,72.0
1774821835.4660316,0.004489898681640625,2026-03-29T22:03:55.466,2026-03-29T18:03:55.466,-31911.57,-50308.02,-86017.545,-50377.545,-16263.855,-20942.01,4266.63,-47812.59,-15.65772121513221,-12.21857228833938,-6.882396350168397,-1.62673563240533,2.9945897454878163,9.714264110059311,1.8140940502048157,-15.914791674146075,-0.06127914,-0.457823535,0.876767775,-10.89564,2.1669199999999997,10.666739999999999,72.0
1774821835.4660513,1.9788742065429688e-05,2026-03-29T22:03:55.466,2026-03-29T18:03:55.466,-31927.184999999998,-50342.58,-86034.06,-50388.93,-16280.685,-20977.155,4234.139999999999,-47813.22,-18.355082386024087,-11.245853268283932,-2.597226593221886,3.2642720631335878,7.7508805504047364,11.822337446650986,-17.342295046587243,-23.832198888906095,-0.06127914,-0.457823535,0.876767775,-10.89564,2.1669199999999997,10.666739999999999,72.0
1774821835.4722493,0.006197929382324219,2026-03-29T22:03:55.472,2026-03-29T18:03:55.472,-31926.465,-50350.365,-86036.175,-50399.055,-16294.724999999999,-20993.445,4161.15,-47811.689999999995,-12.583896309916437,-5.431970694374292,2.277581873380062,6.1455953805571,8.518998136143805,8.169432080246672,-28.710602927914657,-20.607526144445522,-0.06127914,-0.457823535,0.876767775,-10.89564,2.1669199999999997,10.666739999999999,72.0
1774821835.4722836,3.4332275390625e-05,2026-03-29T22:03:55.472,2026-03-29T18:03:55.472,-31924.44,-50321.205,-86027.715,-50402.34,-16305.345,-21008.07,4109.535,-47818.89,-1.0280088575514033,2.36623026482417,5.218498767168774,5.383782091280568,4.730341715633028,0.34003863330799516,-26.788072017746348,-7.712923514543701,-0.06127914,-0.457823535,0.876767775,-10.89564,2.1669199999999997,10.666739999999999,72.0
1774821835.4723172,3.361701965332031e-05,2026-03-29T22:03:55.472,2026-03-29T18:03:55.472,-31895.82,-50264.055,-85988.565,-50377.455,-16289.82,-21000.42,4139.6849999999995,-47805.119999999995,10.939615543588696,8.606640107714803,5.011503119197328,1.4117767869484836,-1.7746146419840547,-7.951218665349975,-12.28123834376269,8.791902963246276,-0.06127914,-0.457823535,0.876767775,-10.89564,2.1669199999999997,10.666739999999999,72.0
1774821835.4723284,1.1205673217773438e-05,2026-03-29T22:03:55.472,2026-03-29T18:03:55.472,-31842.539999999997,-50234.22,-85960.215,-50356.395,-16274.744999999999,-20990.25,4217.625,-47752.47,17.790009528950115,10.695569639383441,2.269051335149869,-3.4978164895710186,-7.6373835336130025,-12.626726568357736,8.129459404070976,21.138488480100452,-0.06127914,-0.457823535,0.876767775,-10.89564,2.1669199999999997,10.666739999999999,72.0
1774821835.4777577,0.005429267883300781,2026-03-29T22:03:55.477,2026-03-29T18:03:55.477,-31822.695,-50242.905,-85972.95,-50371.604999999996,-16290.045,-20997.585,4224.42,-47718.72,16.425227847958926,8.07034997361557,-1.0850736037219573,-6.486304741132267,-9.70463087906317,-11.2539382401791,24.888935183291743,23.54538115604893,-0.06127914,-0.457823535,0.876767775,-10.89564,2.1669199999999997,10.666739999999999,72.0
1774821835.4777884,3.075599670410156e-05,2026-03-29T22:03:55.477,2026-03-29T18:03:55.477,-31862.114999999998,-50297.939999999995,-86043.915,-50444.595,-16357.859999999999,-21049.335,4199.625,-47732.895,7.5941790364090185,2.276922765166875,-3.018979445338455,-5.714103796715215,-6.703174124537228,-4.303939709434797,30.081184870706046,14.955137750953364,-0.06127914,-0.457823535,0.876767775,-10.89564,2.1669199999999997,10.666739999999999,72.0
1774821835.4812925,0.003504037857055664,2026-03-29T22:03:55.481,2026-03-29T18:03:55.481,-31938.614999999998,-50336.775,-86062.815,-50446.89,-16346.43,-21029.94,4195.08,-47802.195,-4.516537991898125,-3.9096991536018146,-2.575704854803362,-1.437502209884906,0.014759182064740707,4.98759567741369,21.206232765604884,-0.4963342120165514,-0.06127914,-0.457823535,0.876767775,-10.89564,2.1669199999999997,10.666739999999999,72.0
1774821835.4813128,2.0265579223632812e-05,2026-03-29T22:03:55.481,2026-03-29T18:03:55.481,-31944.329999999998,-50326.02,-86038.92,-50409.405,-16299.99,-20991.015,4197.195,-47831.895,-14.294267587720528,-7.833454970730933,-0.3655301657138103,4.053292862517602,7.078058750038505,12.130446773374379,2.4013570329630585,-15.488287337786424,-0.06127914,-0.457823535,0.876767775,-10.89564,2.1669199999999997,10.666739999999999,72.0
1774821835.4855216,0.004208803176879883,2026-03-29T22:03:55.485,2026-03-29T18:03:55.485,-31923.09,-50337.314999999995,-86055.165,-50432.085,-16324.199999999999,-21017.07,4186.08,-47799.765,-17.33601633251302,-8.111197596655455,1.892398005324178,7.636945469229164,10.783979175398155,13.553913534196843,-17.496603816437933,-23.018136575731955,-0.06140121,-0.462706335,0.87548604,-8.179359999999999,1.8006799999999998,12.10118,72.0
1774821835.485553,3.147125244140625e-05,2026-03-29T22:03:55.485,2026-03-29T18:03:55.485,-31909.545,-50336.505,-86045.94,-50425.784999999996,-16330.005,-21031.829999999998,4167.045,-47792.835,-12.455045123685847,-5.084938453797089,2.4890811370214783,7.081159058619624,9.022731868562026,8.389916241767105,-29.13499318576299,-19.70719187952918,-0.06140121,-0.462706335,0.87548604,-8.179359999999999,1.8006799999999998,12.10118,72.0
1774821835.503658,0.018105030059814453,2026-03-29T22:03:55.503,2026-03-29T18:03:55.503,-31892.805,-50319.585,-86019.84,-50396.805,-16308.63,-21019.815,4177.3949999999995,-47782.71,-2.133108734191053,-0.44586628077535495,0.8347190331128561,2.3514921562518207,2.4451938344288306,-1.024642101391184,-27.079288521363257,-7.333063699977504,-0.06140121,-0.462706335,0.87548604,-8.179359999999999,1.8006799999999998,12.10118,72.0
1774821835.5036764,1.8358230590820312e-05,2026-03-29T22:03:55.503,2026-03-29T18:03:55.503,-31896.18,-50306.13,-86029.515,-50408.685,-16314.39,-21014.82,4182.345,-47775.465,8.74740019357265,3.693710272834466,-2.1097266497955323,-4.230748067589601,-5.759970504033271,-10.206987899722618,-12.377831204671395,8.11325873391888,-0.06140121,-0.462706335,0.87548604,-8.179359999999999,1.8006799999999998,12.10118,72.0
1774821835.5037081,3.170967102050781e-05,2026-03-29T22:03:55.503,2026-03-29T18:03:55.503,-31913.55,-50317.604999999996,-86061.285,-50442.119999999995,-16338.869999999999,-21026.88,4193.1449999999995,-47798.505,15.240956977440446,5.778060727646315,-4.358309311454733,-9.124040387217851,-11.41390185600065,-14.667761533915902,7.964690393915503,19.34902871811068,-0.06140121,-0.462706335,0.87548604,-8.179359999999999,1.8006799999999998,12.10118,72.0
1774821835.5037155,7.3909759521484375e-06,2026-03-29T22:03:55.503,2026-03-29T18:03:55.503,-31887.585,-50318.369999999995,-86059.665,-50451.03,-16355.474999999999,-21047.04,4202.595,-47761.695,14.614372875248524,5.375897454635989,-4.105359722985378,-9.440949145164588,-11.467186306101784,-12.106746008996105,24.342432166657108,21.265362555147018,-0.06140121,-0.462706335,0.87548604,-8.179359999999999,1.8006799999999998,12.10118,72.0
1774821835.5037246,9.059906005859375e-06,2026-03-29T22:03:55.503,2026-03-29T18:03:55.503,-31899.87,-50297.895,-86015.47499999999,-50409.18,-16318.935,-21018.645,4186.44,-47783.564999999995,7.500835161394398,3.140842135758624,-0.9184197534154283,-4.5802813533866455,-5.619183169141824,-3.590352425233813,29.115907466074194,13.27330045616239,-0.06140121,-0.462706335,0.87548604,-8.179359999999999,1.8006799999999998,12.10118,72.0
1774821835.5037313,6.67572021484375e-06,2026-03-29T22:03:55.503,2026-03-29T18:03:55.503,-31908.645,-50285.07,-85992.165,-50380.604999999996,-16290.539999999999,-20994.524999999998,4176.9,-47814.615,-2.5557309977760605,0.29184334170730214,3.802788147786815,3.280580165413872,3.4132713411018716,6.888261302566659,20.20508856698671,-0.5570460952143467,-0.06140121,-0.462706335,0.87548604,-8.179359999999999,1.8006799999999998,12.10118,72.0
1774821835.503739,7.867813110351562e-06,2026-03-29T22:03:55.503,2026-03-29T18:03:55.503,-31921.875,-50301.72,-86002.92,-50385.645,-16287.705,-20984.94,4164.255,-47825.055,-10.876387918852675,-2.0436959097041756,7.437142722565775,10.162888277138345,11.163201641666452,14.28669683789201,2.0048872822085397,-13.567079382925616,-0.06140121,-0.462706335,0.87548604,-8.179359999999999,1.8006799999999998,12.10118,72.0
1774821835.5037456,6.4373016357421875e-06,2026-03-29T22:03:55.503,2026-03-29T18:03:55.503,-31915.98,-50320.979999999996,-86034.375,-50417.64,-16322.175,-21020.625,4165.155,-47805.57,-13.84842153613259,-3.273420181487609,7.55769709382586,12.293499367628492,13.622693695599146,14.942641728487157,-16.78344597204685,-19.736265608869864,-0.06140121,-0.462706335,0.87548604,-8.179359999999999,1.8006799999999998,12.10118,72.0
1774821835.5076673,0.0039217472076416016,2026-03-29T22:03:55.507,2026-03-29T18:03:55.507,-31911.57,-50319.27,-86036.84999999999,-50416.38,-16327.89,-21039.66,4162.23,-47802.825,-10.505478757722804,-3.3974057520817746,3.4006766084664695,8.130969880598268,9.300437989439382,8.382765835474117,-27.333024724321948,-16.491318923988143,-0.058288425,-0.464049105,0.877866405,-7.889419999999999,2.9604399999999997,14.22232,72.0
1774821835.5076902,2.288818359375e-05,2026-03-29T22:03:55.507,2026-03-29T18:03:55.507,-31906.664999999997,-50303.88,-86023.70999999999,-50396.895,-16302.465,-21021.12,4139.235,-47818.53,-2.790591287305818,-2.750816822444146,-3.45541705314175,-0.661984433621676,0.076850448704509,-2.380772643416778,-24.86510613497349,-5.776979826718456,-0.058288425,-0.464049105,0.877866405,-7.889419999999999,2.9604399999999997,14.22232,72.0
1774821835.5077095,1.9311904907226562e-05,2026-03-29T22:03:55.507,2026-03-29T18:03:55.507,-31902.524999999998,-50311.755,-86040.72,-50425.65,-16325.595,-21033.045,4122.8099999999995,-47812.005,5.534686327581075,-1.6692478870782386,-9.666970300039798,-9.872048408676637,-9.616583883068712,-12.238618634528866,-10.829991282101442,7.054547576065569,-0.058288425,-0.464049105,0.877866405,-7.889419999999999,2.9604399999999997,14.22232,72.0
1774821835.507717,7.3909759521484375e-06,2026-03-29T22:03:55.507,2026-03-29T18:03:55.507,-31923.27,-50333.085,-86049.58499999999,-50439.24,-16339.68,-21030.3,4149.8099999999995,-47815.38,10.735628319221412,-0.3150042031116536,-11.760192585743576,-14.763548313308355,-14.93386272125968,-16.414481144952557,7.907236461895185,15.919078069691476,-0.058288425,-0.464049105,0.877866405,-7.889419999999999,2.9604399999999997,14.22232,72.0
1774821835.513892,0.006175041198730469,2026-03-29T22:03:55.513,2026-03-29T18:03:55.513,-31902.795,-50322.465,-86021.595,-50399.145,-16300.935,-20994.795,4231.26,-47788.244999999995,10.793403852834073,1.2461324956633844,-8.021395097716184,-12.500033782639168,-13.03270915210239,-12.77860152254608,22.431214695179143,16.901217714487967,-0.058288425,-0.464049105,0.877866405,-7.889419999999999,2.9604399999999997,14.22232,72.0
1774821835.5139143,2.2411346435546875e-05,2026-03-29T22:03:55.513,2026-03-29T18:03:55.513,-31869.045,-50302.665,-86014.485,-50393.924999999996,-16295.625,-20998.035,4215.87,-47757.825,6.1678388250650595,2.8227395271900866,0.36809808047591963,-3.725265285369469,-4.568793069334587,-2.9237661510485338,26.038006221083386,9.989889983809565,-0.058288425,-0.464049105,0.877866405,-7.889419999999999,2.9604399999999997,14.22232,72.0
1774821835.5186605,0.004746198654174805,2026-03-29T22:03:55.518,2026-03-29T18:03:55.518,-31858.605,-50301.674999999996,-86046.705,-50436.674999999996,-16346.789999999999,-21057.255,4159.71,-47744.82,-0.6416045040130376,3.9487923635737756,9.637160593606627,7.55542131874806,6.510192522738063,8.535634403969034,17.347373683991652,-1.1226904614973274,-0.058288425,-0.464049105,0.877866405,-7.889419999999999,2.9604399999999997,14.22232,72.0
1774821835.5186758,1.52587890625e-05,2026-03-29T22:03:55.518,2026-03-29T18:03:55.518,-31885.11,-50295.915,-86026.00499999999,-50416.604999999996,-16326.359999999999,-21033.989999999998,4150.17,-47783.295,-6.425908088619856,3.98485866005966,15.136431275687025,15.818730954201142,14.817581916206075,16.13105263867818,0.8127497605615769,-10.987336407694917,-0.058288425,-0.464049105,0.877866405,-7.889419999999999,2.9604399999999997,14.22232,72.0
1774821835.5236063,0.0049304962158203125,2026-03-29T22:03:55.523,2026-03-29T18:03:55.523,-31906.71,-50294.88,-85998.015,-50378.985,-16293.105,-21002.94,4157.82,-47808.945,-8.786676356204806,2.472947538985767,13.671181251841034,16.735742922513694,16.152061660793265,16.15202366489146,-15.548468299771553,-15.072036401767342,-0.058288425,-0.464049105,0.877866405,-7.889419999999999,2.9604399999999997,14.22232,72.0
1774821835.523628,2.1696090698242188e-05,2026-03-29T22:03:55.523,2026-03-29T18:03:55.523,-31893.39,-50278.409999999996,-85970.11499999999,-50338.935,-16251.345,-20956.545,4183.11,-47811.645,-7.122361543055678,-0.4489537851507061,5.283360311606907,9.416596976017345,9.611623120258315,8.453724573154776,-24.051428445272013,-11.849465143582046,-0.058288425,-0.464049105,0.877866405,-7.889419999999999,2.9604399999999997,14.22232,72.0
1774821835.526049,0.0024209022521972656,2026-03-29T22:03:55.526,2026-03-29T18:03:55.526,-31856.67,-50278.77,-86006.16,-50382.54,-16278.164999999999,-20975.04,4220.46,-47760.659999999996,-2.6801650680424296,-3.8591301931241135,-6.4861907161792205,-2.9681357418039833,-1.8626504511035222,-3.418804005972628,-20.968542886374326,-3.3339687337271884,-0.058654635000000004,-0.466490505,0.8797584900000001,-8.82028,4.5017,17.2438,72.0
1774821835.5260699,2.09808349609375e-05,2026-03-29T22:03:55.526,2026-03-29T18:03:55.526,-31863.285,-50318.235,-86080.59,-50475.555,-16378.92,-21070.665,4213.71,-47734.47,2.2436882386171546,-6.292633710475065,-16.103116827772382,-14.572289927765263,-12.820947017158536,-13.871224067169827,-8.165714950858916,6.099213338647992,-0.058654635000000004,-0.466490505,0.8797584900000001,-8.82028,4.5017,17.2438,72.0
1774821835.5297618,0.0036919116973876953,2026-03-29T22:03:55.529,2026-03-29T18:03:55.529,-31884.66,-50326.47,-86079.78,-50475.78,-16379.82,-21076.92,4166.055,-47765.07,5.479083874570742,-6.380220620969782,-18.666836937344577,-19.654264443138565,-17.905712418691905,-17.901920195828666,7.968497274881168,11.945380401383945,-0.058654635000000004,-0.466490505,0.8797584900000001,-8.82028,4.5017,17.2438,72.0
1774821835.5297892,2.7418136596679688e-05,2026-03-29T22:03:55.529,2026-03-29T18:03:55.529,-31900.995,-50314.905,-86043.69,-50428.575,-16330.994999999999,-21043.89,4137.66,-47800.395,5.93478922341107,-3.602289505321143,-12.400637186996113,-15.420507903267836,-14.471645692795203,-13.494598226622353,19.705873860342727,11.719377602521327,-0.058654635000000004,-0.466490505,0.8797584900000001,-8.82028,4.5017,17.2438,72.0
1774821835.5335605,0.0037713050842285156,2026-03-29T22:03:55.533,2026-03-29T18:03:55.533,-31916.34,-50293.485,-85991.08499999999,-50371.74,-16282.845,-21008.024999999998,4145.445,-47845.619999999995,3.912586309697054,1.2511534042961683,0.25887004973844724,-3.5221805833651025,-3.9425663996538627,-2.6168851153115757,21.688898275777504,5.9971621243274145,-0.058654635000000004,-0.466490505,0.8797584900000001,-8.82028,4.5017,17.2438,72.0
1774821835.5335827,2.2172927856445312e-05,2026-03-29T22:03:55.533,2026-03-29T18:03:55.533,-31906.8,-50297.04,-85977.315,-50359.725,-16275.105,-20986.515,4181.3099999999995,-47829.195,0.728712390298054,6.229492807340553,13.59988720214012,10.582764620835981,8.783413788409472,9.665643232778411,13.38283863091152,-2.0779071815762395,-0.058654635000000004,-0.466490505,0.8797584900000001,-8.82028,4.5017,17.2438,72.0
1774821835.5458868,0.012304067611694336,2026-03-29T22:03:55.545,2026-03-29T18:03:55.545,-31887.989999999998,-50282.46,-85963.455,-50350.005,-16256.519999999999,-20954.204999999998,4179.014999999999,-47809.259999999995,-2.0686162584541847,9.006493861420434,21.244303372757415,20.158044238867117,17.628904455081226,17.557221611515637,-0.8555437517495172,-8.484120867183174,-0.058654635000000004,-0.466490505,0.8797584900000001,-8.82028,4.5017,17.2438,72.0
1774821835.545906,1.9311904907226562e-05,2026-03-29T22:03:55.545,2026-03-29T18:03:55.545,-31874.805,-50250.375,-85952.87999999999,-50345.28,-16249.814999999999,-20945.79,4181.04,-47787.615,-3.442622387942031,7.984733688248698,19.22043973103607,20.42475772881088,18.249117291518665,17.270383350600195,-14.039849467007159,-10.310958754379913,-0.058654635000000004,-0.466490505,0.8797584900000001,-8.82028,4.5017,17.2438,72.0
1774821835.5459216,1.5497207641601562e-05,2026-03-29T22:03:55.545,2026-03-29T18:03:55.545,-31899.555,-50292.18,-86014.935,-50413.095,-16320.644999999999,-21013.695,4194.45,-47785.545,-3.2186779897227056,3.18744805143765,8.008444483300158,10.941347913833457,10.160749313722453,8.839312741149113,-19.980802782788498,-7.069103058374491,-0.058654635000000004,-0.466490505,0.8797584900000001,-8.82028,4.5017,17.2438,72.0
1774821835.5459285,6.9141387939453125e-06,2026-03-29T22:03:55.545,2026-03-29T18:03:55.545,-31945.05,-50363.685,-86096.745,-50494.725,-16407.54,-21103.965,4151.835,-47809.53,-1.9450107208759497,-3.5500621596518926,-7.488481677317523,-4.055759468110744,-2.953286457302407,-3.8584144920391426,-16.19698622533362,-0.737258223219945,-0.058654635000000004,-0.466490505,0.8797584900000001,-8.82028,4.5017,17.2438,72.0
1774821835.5566082,0.01067972183227539,2026-03-29T22:03:55.556,2026-03-29T18:03:55.556,-31921.245,-50342.265,-86068.89,-50452.784999999996,-16359.525,-21054.42,4147.875,-47795.265,-0.4345662316214259,-9.270140421470561,-20.1160551729372,-17.566898182493013,-14.93730979337874,-14.895472614197708,-4.93824231476033,5.384542141655145,-0.062682945,-0.463438755,0.880063665,-8.454039999999999,5.1273599999999995,16.709699999999998,72.0
1774821835.5566275,1.9311904907226562e-05,2026-03-29T22:03:55.556,2026-03-29T18:03:55.556,-31892.715,-50305.86,-86027.4,-50400.36,-16297.74,-20988.855,4199.13,-47782.395,0.704009966717337,-11.211014313220572,-23.808230028207113,-23.122887709255334,-20.067770469609844,-19.06926546939959,8.092780817668823,8.371155139223996,-0.062682945,-0.463438755,0.880063665,-8.454039999999999,5.1273599999999995,16.709699999999998,72.0
1774821835.5566518,2.4318695068359375e-05,2026-03-29T22:03:55.556,2026-03-29T18:03:55.556,-31901.94,-50304.104999999996,-86014.17,-50395.5,-16293.33,-20973.69,4263.48,-47783.88,1.289899368123143,-8.15670724657017,-16.51840339204891,-17.895451201876416,-15.791547180901983,-14.35499033091942,16.615178584268918,7.0541571961435405,-0.062682945,-0.463438755,0.880063665,-8.454039999999999,5.1273599999999995,16.709699999999998,72.0
1774821835.5566585,6.67572021484375e-06,2026-03-29T22:03:55.556,2026-03-29T18:03:55.556,-31915.079999999998,-50298.615,-85996.845,-50400.72,-16310.34,-20999.52,4249.08,-47813.985,1.479029688641755,-1.1520786707363624,-1.3184561214587491,-4.122932072517127,-3.985372497446413,-2.880210248409799,16.7964467112302,2.4428075131484968,-0.062682945,-0.463438755,0.880063665,-8.454039999999999,5.1273599999999995,16.709699999999998,72.0
1774821835.5566664,7.867813110351562e-06,2026-03-29T22:03:55.556,2026-03-29T18:03:55.556,-31883.265,-50301.945,-86013.045,-50419.755,-16335.404999999999,-21036.465,4208.76,-47774.744999999995,1.4891498870285684,6.821400548791639,14.911775252798739,11.86181364975654,9.880266676585794,10.044991529623243,8.97266759613752,-2.94507987194471,-0.062682945,-0.463438755,0.880063665,-8.454039999999999,5.1273599999999995,16.709699999999998,72.0
1774821835.556672,5.7220458984375e-06,2026-03-29T22:03:55.556,2026-03-29T18:03:55.556,-31891.14,-50320.89,-86038.965,-50433.345,-16346.07,-21049.155,4148.505,-47770.65,1.3660790202644169,12.128586023575082,24.63684169994678,22.571812279360106,19.29386600086741,18.395668339231086,-2.7078015617100615,-6.429954920197515,-0.062682945,-0.463438755,0.880063665,-8.454039999999999,5.1273599999999995,16.709699999999998,72.0
1774821835.5566792,7.152557373046875e-06,2026-03-29T22:03:55.556,2026-03-29T18:03:55.556,-31907.43,-50310.72,-86015.79,-50409.585,-16325.01,-21025.44,4121.19,-47795.67,0.9584527942640517,12.163528947228953,23.19754447819153,22.896158443816958,19.7728016453415,18.24608942299381,-12.455138957982244,-6.484369879684685,-0.062682945,-0.463438755,0.880063665,-8.454039999999999,5.1273599999999995,16.709699999999998,72.0
1774821835.5566852,5.9604644775390625e-06,2026-03-29T22:03:55.556,2026-03-29T18:03:55.556,-31934.43,-50296.229999999996,-85976.235,-50351.939999999995,-16261.47,-20968.92,4117.995,-47852.729999999996,0.10629715735689192,6.6419094063844195,11.052116138013105,12.54493499356296,10.997718715087053,9.613343866276429,-15.698048527900056,-3.376421935810723,-0.062682945,-0.463438755,0.880063665,-8.454039999999999,5.1273599999999995,16.709699999999998,72.0
1774821835.5618503,0.00516510009765625,2026-03-29T22:03:55.561,2026-03-29T18:03:55.561,-31924.035,-50292.99,-85986.405,-50355.9,-16259.265,-20964.195,4149.315,-47851.11,-1.1091695984115808,-2.142799369902621,-6.354993598209734,-3.7632410658913913,-3.0047265071760383,-3.5345980982801466,-11.223708634962835,1.1146387652575889,-0.062682945,-0.463438755,0.880063665,-8.454039999999999,5.1273599999999995,16.709699999999998,72.0
1774821835.5618722,2.193450927734375e-05,2026-03-29T22:03:55.561,2026-03-29T18:03:55.561,-31917.42,-50306.354999999996,-86011.11,-50382.314999999995,-16280.055,-20975.805,4213.98,-47826.81,-2.2591089928242076,-10.276243019461734,-21.06642432249344,-18.47726294371987,-15.726769930503798,-15.114010656306428,-1.5977760409962933,4.692801144641576,-0.062682945,-0.463438755,0.880063665,-8.454039999999999,5.1273599999999995,16.709699999999998,72.0
1774821835.566759,0.0048868656158447266,2026-03-29T22:03:55.566,2026-03-29T18:03:55.566,-31907.655,-50307.705,-86019.3,-50397.345,-16298.414999999999,-20997.495,4250.97,-47808.63,-2.720684718045113,-13.991740041242933,-26.288227905291045,-24.737875025147364,-21.22047946628448,-19.750092813225525,8.259802047807227,5.70326936304846,-0.06646711500000001,-0.458678025,0.88195575,-12.330079999999999,5.32574,17.28958,72.0
1774821835.566786,2.6941299438476562e-05,2026-03-29T22:03:55.566,2026-03-29T18:03:55.566,-31902.03,-50306.31,-86022.45,-50403.555,-16302.644999999999,-20997.18,4227.84,-47802.375,-2.0333832588154706,-11.44033950895629,-19.553252017057588,-19.592703003010694,-16.886465721520214,-15.275463706997689,13.569400563413843,3.8755821142588958,-0.06646711500000001,-0.458678025,0.88195575,-12.330079999999999,5.32574,17.28958,72.0
1774821835.571106,0.004319906234741211,2026-03-29T22:03:55.571,2026-03-29T18:03:55.571,-31900.545,-50303.744999999995,-86018.04,-50402.43,-16301.564999999999,-20993.805,4202.82,-47806.02,-0.24975416934074576,-3.619634457708513,-3.8875217123814627,-5.387377585746543,-4.6994635651132475,-3.7393056492983487,11.99919598651287,0.32838155460825624,-0.06646711500000001,-0.458678025,0.88195575,-12.330079999999999,5.32574,17.28958,72.0
1774821835.5711184,1.239776611328125e-05,2026-03-29T22:03:55.571,2026-03-29T18:03:55.571,-31901.895,-50307.165,-86015.565,-50405.67,-16315.605,-21013.92,4205.205,-47803.049999999996,1.956659409271656,6.008185787607839,13.57157290990905,11.321971734668386,9.705103075725196,9.54114347386045,4.675519228339512,-3.09699387572346,-0.06646711500000001,-0.458678025,0.88195575,-12.330079999999999,5.32574,17.28958,72.0
1774821835.5737476,0.0026292800903320312,2026-03-29T22:03:55.573,2026-03-29T18:03:55.573,-31897.53,-50303.205,-86007.23999999999,-50388.165,-16306.199999999999,-21017.88,4179.195,-47798.775,3.5424245342400127,13.067076255952337,24.86351513459074,22.822031164607996,19.65475899229917,18.4434384449491,-4.533962168510481,-4.78598830380357,-0.06646711500000001,-0.458678025,0.88195575,-12.330079999999999,5.32574,17.28958,72.0
1774821835.5737607,1.3113021850585938e-05,2026-03-29T22:03:55.573,2026-03-29T18:03:55.573,-31867.155,-50280.57,-85989.105,-50367.689999999995,-16283.519999999999,-20994.434999999998,4177.305,-47776.86,3.612362538948636,14.28369613282225,24.86780392762096,23.82687711489814,20.544428134373963,18.87113003816094,-11.035659494448014,-4.096195700797529,-0.06646711500000001,-0.458678025,0.88195575,-12.330079999999999,5.32574,17.28958,72.0
1774821835.577878,0.004117250442504883,2026-03-29T22:03:55.577,2026-03-29T18:03:55.577,-31866.57,-50286.15,-86003.45999999999,-50376.689999999995,-16279.425,-20976.795,4203.36,-47769.03,1.9373740007991878,9.028334858614507,13.6415609467179,13.917214733840995,11.971285189484684,10.640134397606257,-11.783651613541947,-1.5614294838414373,-0.06646711500000001,-0.458678025,0.88195575,-12.330079999999999,5.32574,17.28958,72.0
1774821835.5778985,2.0503997802734375e-05,2026-03-29T22:03:55.577,2026-03-29T18:03:55.577,-31896.989999999998,-50334.03,-86061.915,-50430.78,-16328.25,-21027.825,4178.61,-47777.4,-0.8291190577778741,-0.35488149240204453,-3.641929833386018,-2.2953864593996167,-2.0911510968130282,-2.4492367234021004,-6.6927517723948,1.4834080088032453,-0.06646711500000001,-0.458678025,0.88195575,-12.330079999999999,5.32574,17.28958,72.0
1774821835.5815022,0.003603696823120117,2026-03-29T22:03:55.581,2026-03-29T18:03:55.581,-31889.879999999997,-50358.869999999995,-86099.44499999999,-50485.005,-16385.94,-21090.645,4151.115,-47763.27,-3.3966803779207444,-9.602537747146547,-19.10482486986934,-17.337117323067844,-15.150792478907583,-14.379091983132312,1.4579209259683874,3.6102612305224393,-0.06646711500000001,-0.458678025,0.88195575,-12.330079999999999,5.32574,17.28958,72.0
1774821835.5815153,1.3113021850585938e-05,2026-03-29T22:03:55.581,2026-03-29T18:03:55.581,-31853.25,-50326.695,-86065.29,-50456.205,-16370.865,-21089.385,4153.86,-47733.345,-4.458535392957722,-14.492465698152511,-25.789534554567624,-24.343267683181047,-21.21085886118156,-19.69293421277056,8.51525492252137,3.9621675053134533,-0.06646711500000001,-0.458678025,0.88195575,-12.330079999999999,5.32574,17.28958,72.0
1774821835.5851884,0.003673076629638672,2026-03-29T22:03:55.585,2026-03-29T18:03:55.585,-31896.855,-50289.884999999995,-86000.355,-50387.22,-16303.5,-21021.93,4176.855,-47797.38,-3.3806120093639795,-12.798146140289523,-20.813599359216063,-20.208130787210756,-17.533202365043902,-15.997945970627981,11.046797908945447,2.5675107591656587,-0.06677229,-0.4565418,0.8828712750000001,-15.244739999999998,6.867,16.83178,72.0
1774821835.585202,1.3589859008789062e-05,2026-03-29T22:03:55.585,2026-03-29T18:03:55.585,-31920.434999999998,-50275.935,-85987.17,-50374.935,-16283.654999999999,-20981.745,4190.805,-47854.305,-0.5872222285277584,-5.320572916200663,-6.613607717444991,-6.960561961452363,-5.873389688075896,-5.039863413009429,7.991027186425377,0.20811598664156777,-0.06677229,-0.4565418,0.8828712750000001,-15.244739999999998,6.867,16.83178,72.0
1774821835.5894892,0.004287242889404297,2026-03-29T22:03:55.589,2026-03-29T18:03:55.589,-31928.67,-50307.299999999996,-86019.165,-50401.665,-16298.01,-20978.19,4201.155,-47846.61,2.590138128008725,4.488317382494869,10.258070904027925,9.24295653149854,8.36844854989679,8.13137740601631,1.077647219102094,-2.02854792128062,-0.06677229,-0.4565418,0.8828712750000001,-15.244739999999998,6.867,16.83178,72.0
1774821835.589511,2.1696090698242188e-05,2026-03-29T22:03:55.589,2026-03-29T18:03:55.589,-31951.664999999997,-50345.1,-86051.87999999999,-50430.735,-16327.98,-21008.024999999998,4184.01,-47849.625,4.556674396586625,12.134006440663116,22.184795413133127,21.003033877286175,18.665561418751643,17.502495496671315,-6.133865999631427,-3.2555392391730016,-0.06677229,-0.4565418,0.8828712750000001,-15.244739999999998,6.867,16.83178,72.0
1774821835.5938325,0.004321575164794922,2026-03-29T22:03:55.593,2026-03-29T18:03:55.593,-31930.379999999997,-50333.715,-86034.42,-50405.49,-16304.67,-20990.114999999998,4141.575,-47837.97,4.275112793695238,14.163228557346102,23.95156364234234,23.077346686952307,20.369615197055758,18.85291254396732,-10.069861187507671,-3.1136226218045118,-0.06677229,-0.4565418,0.8828712750000001,-15.244739999999998,6.867,16.83178,72.0
1774821835.593868,3.552436828613281e-05,2026-03-29T22:03:55.593,2026-03-29T18:03:55.593,-31913.414999999997,-50299.29,-85997.025,-50365.08,-16269.21,-20960.1,4119.66,-47839.814999999995,1.8329641561146492,9.746121186744222,15.036025282063788,14.724008287118794,12.812873462507433,11.657717171663903,-8.892020617989479,-1.8141805712009094,-0.06677229,-0.4565418,0.8828712750000001,-15.244739999999998,6.867,16.83178,72.0
1774821835.5989854,0.0051174163818359375,2026-03-29T22:03:55.598,2026-03-29T18:03:55.598,-31896.495,-50281.92,-85992.795,-50371.244999999995,-16282.755,-20981.07,4132.755,-47827.395,-1.5602570305887307,1.0218232991921787,-0.2860310887263705,-0.06179992410910353,-0.44485009579399454,-0.7215777982859997,-3.3323615079266813,0.05187506188026163,-0.06677229,-0.4565418,0.8828712750000001,-15.244739999999998,6.867,16.83178,72.0
1774821835.599014,2.86102294921875e-05,2026-03-29T22:03:55.599,2026-03-29T18:03:55.599,-31898.969999999998,-50323.95,-86050.125,-50426.28,-16334.955,-21034.26,4195.3949999999995,-47799.72,-4.170221636198885,-7.939301572415083,-15.00529700930186,-14.474669899941238,-13.307021145380336,-12.619931942509064,3.7545385438684185,1.7955573318622413,-0.06677229,-0.4565418,0.8828712750000001,-15.244739999999998,6.867,16.83178,72.0
1774821835.6049004,0.0058863162994384766,2026-03-29T22:03:55.604,2026-03-29T18:03:55.604,-31901.219999999998,-50355.72,-86090.265,-50451.435,-16355.25,-21060.899999999998,4173.93,-47792.655,-4.634550271973439,-13.051843139032192,-22.610170959075884,-22.05265174682562,-19.959652255797053,-18.674281252908877,8.853270001848076,2.8624039871356923,-0.06677229,-0.4565418,0.8828712750000001,-15.244739999999998,6.867,16.83178,72.0
1774821835.604916,1.5735626220703125e-05,2026-03-29T22:03:55.604,2026-03-29T18:03:55.604,-31893.795,-50344.515,-86076.09,-50449.005,-16356.015,-21063.465,4138.514999999999,-47782.619999999995,-2.6909077910436707,-12.09975812424162,-19.983757125521674,-19.586357637219656,-17.507927849778934,-16.247040736501482,9.515802674697541,2.9522337454675927,-0.06677229,-0.4565418,0.8828712750000001,-15.244739999999998,6.867,16.83178,72.0
1774821835.6049423,2.6226043701171875e-05,2026-03-29T22:03:55.604,2026-03-29T18:03:55.604,-31901.985,-50347.665,-86078.87999999999,-50452.83,-16348.814999999999,-21048.165,4192.2,-47782.35,0.6588246283896291,-5.709757102388782,-8.670670513563772,-8.468432703988677,-7.230504267250563,-6.569419517764354,5.512060121984867,2.044434463362943,-0.06774885,-0.457823535,0.8860450950000001,-15.1837,7.98098,17.686339999999998,72.0
1774821835.6049497,7.3909759521484375e-06,2026-03-29T22:03:55.604,2026-03-29T18:03:55.604,-31910.579999999998,-50345.955,-86061.19499999999,-50431.59,-16331.625,-21033.45,4237.29,-47786.759999999995,3.6539509092998137,3.019789562532678,5.994601284196037,6.0783257353349445,6.089026819947341,5.888003007521914,-1.1275486556710732,0.38137878083267546,-0.06774885,-0.457823535,0.8860450950000001,-15.1837,7.98098,17.686339999999998,72.0
1774821835.6114447,0.006494998931884766,2026-03-29T22:03:55.611,2026-03-29T18:03:55.611,-31900.995,-50313.33,-86007.375,-50392.619999999995,-16308.494999999999,-21017.024999999998,4220.28,-47802.689999999995,4.698479131766303,10.02627994813669,17.418320875743017,17.471994969711478,16.403501096110865,15.493709332563727,-7.154423090203762,-1.5631332649162852,-0.06774885,-0.457823535,0.8860450950000001,-15.1837,7.98098,17.686339999999998,72.0
1774821835.6114683,2.3603439331054688e-05,2026-03-29T22:03:55.611,2026-03-29T18:03:55.611,-31868.1,-50281.064999999995,-85991.44499999999,-50387.534999999996,-16288.289999999999,-20980.215,4259.835,-47792.61,3.2181400569747103,12.189998044774136,20.72923101479541,20.76422253323446,19.15913536255027,18.00991732457495,-9.688938979228599,-3.1537533939396614,-0.06774885,-0.457823535,0.8860450950000001,-15.1837,7.98098,17.686339999999998,72.0
1774821835.6144888,0.0030205249786376953,2026-03-29T22:03:55.614,2026-03-29T18:03:55.614,-31867.695,-50265.405,-85994.415,-50410.395,-16307.414999999999,-20996.73,4228.065,-47782.53,-0.0121418083145212,8.737567957426512,14.855125987106565,14.786890679441607,13.305637001781292,12.460168220965848,-7.57730649658236,-3.746111210213453,-0.06774885,-0.457823535,0.8860450950000001,-15.1837,7.98098,17.686339999999998,72.0
1774821835.614503,1.4066696166992188e-05,2026-03-29T22:03:55.614,2026-03-29T18:03:55.614,-31892.715,-50265.405,-85990.545,-50400.36,-16305.525,-21015.495,4162.365,-47809.395,-3.2604520462821114,1.5035484330375277,2.8102160635928417,2.523257538390007,1.672624270727763,1.4879800603867264,-1.8864565432446174,-2.926962637494869,-0.06774885,-0.457823535,0.8860450950000001,-15.1837,7.98098,17.686339999999998,72.0
1774821835.6176465,0.0031435489654541016,2026-03-29T22:03:55.617,2026-03-29T18:03:55.617,-31873.77,-50284.665,-86015.97,-50421.24,-16331.535,-21045.015,4162.635,-47775.06,-4.755891964661906,-6.029333260451683,-9.843087880014096,-10.386304642024111,-10.407896928506531,-9.912751237748308,4.660394441046944,-0.7649728934443761,-0.06774885,-0.457823535,0.8860450950000001,-15.1837,7.98098,17.686339999999998,72.0
1774821835.6176589,1.239776611328125e-05,2026-03-29T22:03:55.617,2026-03-29T18:03:55.617,-31905.405,-50304.689999999995,-86026.05,-50425.604999999996,-16329.96,-21029.67,4162.095,-47804.939999999995,-3.648587630304149,-10.413576642738827,-17.57526231844454,-18.252637917143417,-17.557730861278213,-16.680670975376575,9.000114147550835,2.0704997336797466,-0.06774885,-0.457823535,0.8860450950000001,-15.1837,7.98098,17.686339999999998,72.0
1774821835.6216817,0.004022836685180664,2026-03-29T22:03:55.621,2026-03-29T18:03:55.621,-31914.315,-50301.945,-86008.545,-50395.814999999995,-16296.93,-20993.895,4188.375,-47830.814999999995,-0.4923213590464384,-9.825903060817888,-17.30962495465044,-17.84689806034159,-16.74981531723623,-15.934437711550233,9.155765394837816,4.452523379444369,-0.06774885,-0.457823535,0.8860450950000001,-15.1837,7.98098,17.686339999999998,72.0
1774821835.621697,1.52587890625e-05,2026-03-29T22:03:55.621,2026-03-29T18:03:55.621,-31887.675,-50328.494999999995,-86064.75,-50458.229999999996,-16358.265,-21052.305,4177.305,-47782.08,3.0241952055997388,-4.823581072937608,-9.620703835775448,-9.703126992888745,-8.576757017847687,-8.186661125590645,5.111302187393819,5.220596804691004,-0.06774885,-0.457823535,0.8860450950000001,-15.1837,7.98098,17.686339999999998,72.0
1774821835.6260576,0.004360675811767578,2026-03-29T22:03:55.626,2026-03-29T18:03:55.626,-31872.465,-50326.65,-86071.05,-50464.755,-16365.195,-21061.53,4137.12,-47768.58,4.970512258073728,2.044293506125341,1.740573381586959,2.2980206426493535,3.1335408350483145,2.9797803140260255,-1.2399354672353005,3.7406837777025532,-0.07006818000000001,-0.46179081,0.888242355,-14.069719999999998,9.40016,17.136979999999998,72.0
1774821835.6262476,0.0001900196075439453,2026-03-29T22:03:55.626,2026-03-29T18:03:55.626,-31854.69,-50278.095,-85999.14,-50382.72,-16293.779999999999,-21017.114999999998,4079.97,-47781.494999999995,4.222541091663765,7.528789848345036,11.676335106788807,12.78785189201885,13.121160891116258,12.578005793236967,-7.007000109487778,0.33251844606279213,-0.07006818000000001,-0.46179081,0.888242355,-14.069719999999998,9.40016,17.136979999999998,72.0
1774821835.6294148,0.0031671524047851562,2026-03-29T22:03:55.629,2026-03-29T18:03:55.629,-31880.204999999998,-50238.405,-85916.11499999999,-50281.2,-16190.955,-20923.245,4100.8949999999995,-47841.884999999995,1.0994778462512287,9.222410124062487,16.032224804142096,17.315226026396054,17.06139552976846,16.445974373160198,-9.623541008506747,-3.6998454827782306,-0.07006818000000001,-0.46179081,0.888242355,-14.069719999999998,9.40016,17.136979999999998,72.0
1774821835.6294324,1.7642974853515625e-05,2026-03-29T22:03:55.629,2026-03-29T18:03:55.629,-31891.364999999998,-50268.735,-85960.485,-50333.22,-16237.664999999999,-20951.325,4151.88,-47836.485,-2.7678823768259435,6.614969271309745,13.3178877030239,14.219168592960841,13.428187878100617,13.040818380491714,-7.972961688287775,-6.5377359866453135,-0.07006818000000001,-0.46179081,0.888242355,-14.069719999999998,9.40016,17.136979999999998,72.0
1774821835.6342769,0.0048444271087646484,2026-03-29T22:03:55.634,2026-03-29T18:03:55.634,-31917.42,-50327.189999999995,-86039.415,-50420.88,-16326.765,-21024.945,4159.305,-47830.005,-5.286529434816396,1.2012760600683994,5.154405071813659,5.1898695839267734,4.0561887470753,4.031132623866655,-2.831701173498468,-6.667279980500978,-0.07006818000000001,-0.46179081,0.888242355,-14.069719999999998,9.40016,17.136979999999998,72.0
1774821835.6342983,2.1457672119140625e-05,2026-03-29T22:03:55.634,2026-03-29T18:03:55.634,-31944.824999999997,-50350.634999999995,-86059.215,-50443.695,-16352.595,-21046.094999999998,4209.03,-47840.445,-5.026233308956244,-4.347438738004419,-4.644486131954141,-5.640599827673046,-6.787631198966506,-6.525854845445284,3.5271136808171355,-3.6796792239129372,-0.07006818000000001,-0.46179081,0.888242355,-14.069719999999998,9.40016,17.136979999999998,72.0
1774821835.6378736,0.0035753250122070312,2026-03-29T22:03:55.637,2026-03-29T18:03:55.637,-31948.695,-50324.895,-86016.95999999999,-50390.235,-16289.46,-20980.44,4268.385,-47850.03,-2.0170554087838957,-7.497482839016301,-11.852006636433417,-13.592890602983257,-14.351346962699864,-14.013294794523242,8.355458727669843,1.368951306599108,-0.07006818000000001,-0.46179081,0.888242355,-14.069719999999998,9.40016,17.136979999999998,72.0
1774821835.637896,2.2411346435546875e-05,2026-03-29T22:03:55.637,2026-03-29T18:03:55.637,-31931.1,-50313.869999999995,-86016.555,-50396.534999999996,-16297.515,-20994.704999999998,4179.87,-47850.075,2.2214832866994287,-7.005174766256611,-13.637912321253665,-15.449143538751724,-15.472983009510875,-15.264042269673991,9.611001747334182,6.290373447846041,-0.07006818000000001,-0.46179081,0.888242355,-14.069719999999998,9.40016,17.136979999999998,72.0
1774821835.6418097,0.0039136409759521484,2026-03-29T22:03:55.641,2026-03-29T18:03:55.641,-31907.925,-50301.045,-86011.515,-50387.67,-16284.555,-20978.46,4122.72,-47839.049999999996,5.455322119491137,-3.3846834166807174,-9.64046478105576,-10.720717680416952,-9.8812159614104,-9.88132116899343,6.793656970894746,8.712113930052118,-0.07006818000000001,-0.46179081,0.888242355,-14.069719999999998,9.40016,17.136979999999998,72.0
1774821835.6418223,1.2636184692382812e-05,2026-03-29T22:03:55.641,2026-03-29T18:03:55.641,-31863.285,-50271.479999999996,-85981.59,-50344.83,-16242.66,-20941.605,4150.3949999999995,-47798.595,5.916727072754868,1.4706849034021996,-1.9183755276589158,-1.6958530687641094,-0.19938879115780928,-0.33139736035740974,1.1105609352177057,7.23070709934605,-0.07006818000000001,-0.46179081,0.888242355,-14.069719999999998,9.40016,17.136979999999998,72.0
1774821835.6462555,0.004433155059814453,2026-03-29T22:03:55.646,2026-03-29T18:03:55.646,-31873.5,-50291.46,-86009.08499999999,-50383.755,-16285.769999999999,-20989.98,4212.855,-47785.68,3.2647298079478415,5.26731277566957,6.092648484912644,7.6669375905798685,9.288009748245457,9.187980298657596,-5.063407196327985,2.204744081731405,-0.077453415,-0.46191288,0.88610613,-13.18464,8.48456,17.56426,72.0
1774821835.6462855,3.0040740966796875e-05,2026-03-29T22:03:55.646,2026-03-29T18:03:55.646,-31902.704999999998,-50317.965,-86040.18,-50431.905,-16331.939999999999,-21031.155,4229.325,-47800.845,-1.1959962020078725,6.386251935703355,11.094547058814692,13.463677195590062,14.524239563423759,14.582728568272556,-9.178470415654113,-4.253764286492349,-0.077453415,-0.46191288,0.88610613,-13.18464,8.48456,17.56426,72.0
1774821835.6494024,0.0031168460845947266,2026-03-29T22:03:55.649,2026-03-29T18:03:55.649,-31893.795,-50301.27,-86018.535,-50405.49,-16311.285,-21017.204999999998,4252.905,-47802.689999999995,-5.170588368312449,4.552550885834196,11.251314325972483,13.442298054113355,13.395625339599112,13.604300255301553,-9.542184290761522,-9.163569957801315,-0.077453415,-0.46191288,0.88610613,-13.18464,8.48456,17.56426,72.0
1774821835.64942,1.7642974853515625e-05,2026-03-29T22:03:55.649,2026-03-29T18:03:55.649,-31892.085,-50319.27,-86051.565,-50441.354999999996,-16347.465,-21053.565,4231.71,-47788.424999999996,-6.569598871995852,0.8334266505001469,6.810468861371447,7.83668933822726,6.5593516423236,6.7682941841822855,-5.9855748112770115,-10.06649369345302,-0.077453415,-0.46191288,0.88610613,-13.18464,8.48456,17.56426,72.0
1774821835.6536381,0.004218101501464844,2026-03-29T22:03:55.653,2026-03-29T18:03:55.653,-31897.395,-50335.515,-86068.75499999999,-50459.085,-16362.404999999999,-21058.38,4207.41,-47795.22,-4.615637292631232,-2.964901509870131,-0.15516981229110793,-0.8460177280252678,-2.924699797601865,-2.9139056662440326,0.08207791007253631,-6.26991377311942,-0.077453415,-0.46191288,0.88610613,-13.18464,8.48456,17.56426,72.0
1774821835.6536553,1.71661376953125e-05,2026-03-29T22:03:55.653,2026-03-29T18:03:55.653,-31902.795,-50341.229999999996,-86063.44499999999,-50447.61,-16343.505,-21035.969999999998,4200.795,-47797.47,-0.2705679983540704,-5.165886159378528,-6.699201203967644,-8.936135751497755,-10.95607062457825,-11.251150394498666,6.2348228820804446,0.694452119452485,-0.077453415,-0.46191288,0.88610613,-13.18464,8.48456,17.56426,72.0
1774821835.658052,0.004396677017211914,2026-03-29T22:03:55.658,2026-03-29T18:03:55.658,-31902.3,-50295.06,-86006.06999999999,-50395.32,-16297.064999999999,-21014.684999999998,4192.38,-47823.615,4.2513552008189475,-4.940647202797972,-10.215907687826938,-13.122977272228024,-14.147066263118061,-14.66651536578728,9.983750120304078,7.679059130231805,-0.077453415,-0.46191288,0.88610613,-13.18464,8.48456,17.56426,72.0
1774821835.6580858,3.3855438232421875e-05,2026-03-29T22:03:55.658,2026-03-29T18:03:55.658,-31876.605,-50267.159999999996,-85980.915,-50378.265,-16291.305,-21025.934999999998,4172.13,-47813.22,6.6337182637695795,-2.5783885228983183,-9.434168208799353,-11.773161359745728,-11.228800905714092,-11.712978990026201,9.758457572814272,11.36096731083546,-0.077453415,-0.46191288,0.88610613,-13.18464,8.48456,17.56426,72.0
1774821835.6618013,0.00371551513671875,2026-03-29T22:03:55.661,2026-03-29T18:03:55.661,-31897.305,-50305.32,-86014.34999999999,-50403.015,-16313.13,-21040.739999999998,4172.085,-47821.275,5.665764665992123,0.7510681282799565,-4.838240982300894,-5.542650084270153,-3.5402434512225365,-3.680014207038726,5.544159503819866,9.846748536308239,-0.077453415,-0.46191288,0.88610613,-13.18464,8.48456,17.56426,72.0
1774821835.6618304,2.9087066650390625e-05,2026-03-29T22:03:55.661,2026-03-29T18:03:55.661,-31895.864999999998,-50323.409999999996,-86042.205,-50427.045,-16329.24,-21039.57,4158.945,-47813.534999999996,1.8690100595374528,3.5747067820841827,1.5986430391285757,2.9309586554938556,5.578243901155291,5.9586316759246785,-1.073389157746046,3.6554203896504,-0.077453415,-0.46191288,0.88610613,-13.18464,8.48456,17.56426,72.0
1774821835.6659868,0.004156351089477539,2026-03-29T22:03:55.665,2026-03-29T18:03:55.665,-31908.42,-50318.64,-86036.04,-50416.2,-16313.4,-21009.555,4177.8,-47812.365,-2.7875704475939798,4.747712049856274,7.23021835293675,10.115689893557922,12.215570519949965,13.024896786231755,-7.4881344036576785,-4.4353895617755,-0.0866697,-0.46227909,0.8818336800000001,-12.116439999999999,6.027699999999999,19.50228,72.0
1774821835.6660206,3.3855438232421875e-05,2026-03-29T22:03:55.666,2026-03-29T18:03:55.666,-31884.704999999998,-50277.015,-85979.79,-50355.18,-16257.24,-20966.085,4188.51,-47810.88,-5.928508926173641,3.877643705137953,9.781854515855471,13.020392941453427,13.543567929328141,14.426105464992206,-11.077848049739156,-10.651437343192942,-0.0866697,-0.46227909,0.8818336800000001,-12.116439999999999,6.027699999999999,19.50228,72.0
1774821835.6699677,0.003947019577026367,2026-03-29T22:03:55.669,2026-03-29T18:03:55.669,-31895.684999999998,-50298.615,-85998.285,-50376.645,-16283.564999999999,-21001.454999999998,4135.86,-47817.945,-6.012058872482314,1.4082941242118203,8.23670591476624,10.416481900527018,9.008563416127384,9.500351322313751,-10.258977058712333,-12.011575919130948,-0.0866697,-0.46227909,0.8818336800000001,-12.116439999999999,6.027699999999999,19.50228,72.0
1774821835.6699824,1.4781951904296875e-05,2026-03-29T22:03:55.669,2026-03-29T18:03:55.669,-31907.699999999997,-50321.79,-86037.03,-50419.259999999995,-16320.555,-21028.59,4110.4349999999995,-47827.979999999996,-3.111049244379395,-1.616327019399797,3.237763990541,3.3614414644663615,0.5673452770084834,0.337704062733106,-5.177250660337492,-7.7830310321507525,-0.0866697,-0.46227909,0.8818336800000001,-12.116439999999999,6.027699999999999,19.50228,72.0
1774821835.6737225,0.003740072250366211,2026-03-29T22:03:55.673,2026-03-29T18:03:55.673,-31862.745,-50281.38,-86013.98999999999,-50402.52,-16300.17,-20994.075,4210.785,-47823.75,1.1720030611985426,-3.9779271554727647,-3.1507744095193333,-5.200427709767578,-8.135368995518533,-9.081949098009247,2.2647618369569487,0.12009726595697912,-0.0866697,-0.46227909,0.8818336800000001,-12.116439999999999,6.027699999999999,19.50228,72.0
1774821835.673761,3.838539123535156e-05,2026-03-29T22:03:55.673,2026-03-29T18:03:55.673,-31865.489999999998,-50309.325,-86029.56,-50413.275,-16312.68,-21004.38,4232.43,-47789.369999999995,4.593472479026345,-4.733731292811795,-8.251104510101444,-11.627547813311853,-13.31437441375591,-14.592871840792775,9.097000313676073,8.013600815189802,-0.0866697,-0.46227909,0.8818336800000001,-12.116439999999999,6.027699999999999,19.50228,72.0
1774821835.6775703,0.0038094520568847656,2026-03-29T22:03:55.677,2026-03-29T18:03:55.677,-31857.66,-50332.185,-86075.055,-50453.369999999995,-16351.019999999999,-21044.475,4200.48,-47746.395,5.468910335380737,-3.5486140480276696,-9.858371144632327,-13.103288813147286,-12.67448996747374,-13.673928642830738,12.453054964442217,12.189281137336756,-0.0866697,-0.46227909,0.8818336800000001,-12.116439999999999,6.027699999999999,19.50228,72.0
1774821835.6775846,1.430511474609375e-05,2026-03-29T22:03:55.677,2026-03-29T18:03:55.677,-31888.079999999998,-50353.244999999995,-86100.25499999999,-50470.02,-16362.72,-21055.005,4195.9349999999995,-47762.595,3.5344786579910017,-0.820590930837863,-7.185803751326179,-8.870166536740724,-6.4313379630298595,-6.608403818637546,10.76965676574438,10.689818833020988,-0.0866697,-0.46227909,0.8818336800000001,-12.116439999999999,6.027699999999999,19.50228,72.0
1774821835.6816108,0.004026174545288086,2026-03-29T22:03:55.681,2026-03-29T18:03:55.681,-31934.295,-50317.155,-86030.86499999999,-50409.72,-16305.75,-20996.864999999998,4190.625,-47835.045,0.01563591469488806,2.433654606959546,-1.2680123529790202,-0.6359860788940763,2.7327579942869673,3.5629315385787135,4.513388582723294,4.24769613379159,-0.0866697,-0.46227909,0.8818336800000001,-12.116439999999999,6.027699999999999,19.50228,72.0
1774821835.6816247,1.3828277587890625e-05,2026-03-29T22:03:55.681,2026-03-29T18:03:55.681,-31941.855,-50286.96,-85974.48,-50355.854999999996,-16246.845,-20931.39,4192.38,-47872.755,-3.1097675396715214,4.912441131799742,5.391184695710071,8.07188149528331,10.792059968930843,12.32185719081829,-3.90484972115275,-4.072405964857474,-0.0866697,-0.46227909,0.8818336800000001,-12.116439999999999,6.027699999999999,19.50228,72.0
1774821835.6869657,0.005341053009033203,2026-03-29T22:03:55.686,2026-03-29T18:03:55.686,-31936.545,-50295.284999999996,-86002.11,-50381.325,-16284.285,-20988.18,4116.96,-47874.33,-4.225750361168721,5.501884734956275,9.83774135858931,13.386564946610383,14.126241702034287,15.663414487852112,-11.045040047058736,-10.353557857357654,-0.09436011,-0.466978785,0.879331245,-10.84986,5.17314,21.77602,72.0
1774821835.6869755,9.775161743164062e-06,2026-03-29T22:03:55.686,2026-03-29T18:03:55.686,-31926.78,-50316.705,-86031.98999999999,-50403.015,-16310.16,-21022.739999999998,4125.375,-47859.39,-2.943560534989009,3.745661068926732,9.96117418471039,12.812862144380132,11.146385562272783,11.929610501901552,-13.843954377768675,-11.704504144654344,-0.09436011,-0.466978785,0.879331245,-10.84986,5.17314,21.77602,72.0
1774821835.689552,0.002576589584350586,2026-03-29T22:03:55.689,2026-03-29T18:03:55.689,-31924.89,-50332.095,-86031.94499999999,-50412.195,-16313.22,-21019.05,4190.445,-47846.115,-0.2443287828767841,0.12960730230680265,5.505033882936924,6.415907140819535,3.0686716778557344,2.645901448601166,-10.936824260108464,-7.619841896246429,-0.09436011,-0.466978785,0.879331245,-10.84986,5.17314,21.77602,72.0
1774821835.689566,1.3828277587890625e-05,2026-03-29T22:03:55.689,2026-03-29T18:03:55.689,-31908.239999999998,-50317.515,-86008.95,-50393.07,-16295.625,-21001.32,4192.0199999999995,-47832.075,2.159657670910173,-3.9797841898792674,-1.6940215727366774,-3.086946398900351,-6.548314160236768,-8.067288045852509,-3.3193405268743215,-0.16883514257953205,-0.09436011,-0.466978785,0.879331245,-10.84986,5.17314,21.77602,72.0
1774821835.695094,0.00552821159362793,2026-03-29T22:03:55.695,2026-03-29T18:03:55.695,-31881.465,-50281.11,-86003.145,-50391.854999999996,-16298.189999999999,-21005.594999999998,4198.635,-47801.34,2.8602235423396665,-6.796760778762719,-8.418790226895084,-11.444846653243674,-13.347483980624943,-15.302254856772885,5.972086943726551,7.058261635022604,-0.09436011,-0.466978785,0.879331245,-10.84986,5.17314,21.77602,72.0
1774821835.6951313,3.719329833984375e-05,2026-03-29T22:03:55.695,2026-03-29T18:03:55.695,-31873.995,-50274.0,-86012.50499999999,-50396.715,-16301.744999999999,-21012.75,4212.405,-47793.42,1.5786240240490639,-6.8575796213315146,-11.485513146702932,-14.762837239480637,-14.14195094156955,-15.609715424204197,13.072336063351592,10.707551875957039,-0.09436011,-0.466978785,0.879331245,-10.84986,5.17314,21.77602,72.0
1774821835.7003734,0.005242109298706055,2026-03-29T22:03:55.700,2026-03-29T18:03:55.700,-31892.715,-50300.009999999995,-86028.525,-50408.595,-16311.33,-21025.98,4198.86,-47812.59,-0.6995771799321167,-3.752750239708808,-9.249649679986218,-11.328721670352099,-8.42219182102687,-8.656662610154154,14.9071233976399,9.250336292815716,-0.09436011,-0.466978785,0.879331245,-10.84986,5.17314,21.77602,72.0
1774821835.7003968,2.3365020751953125e-05,2026-03-29T22:03:55.700,2026-03-29T18:03:55.700,-31899.015,-50331.6,-86067.72,-50448.825,-16348.14,-21061.305,4184.235,-47804.67,-2.3573399465783225,1.506091735601968,-2.490956438954287,-2.5146559070268157,1.3174925010823162,2.5066683174375073,10.534571714251552,3.636026364795629,-0.09436011,-0.466978785,0.879331245,-10.84986,5.17314,21.77602,72.0
1774821835.70363,0.003233194351196289,2026-03-29T22:03:55.703,2026-03-29T18:03:55.703,-31908.87,-50334.525,-86062.59,-50439.555,-16335.494999999999,-21041.37,4183.0199999999995,-47808.945,-2.1724504127280455,6.7388519758195455,5.799815473674947,7.728487037986543,10.63903609765096,12.759124021024446,1.6166706061302794,-3.276255293879064,-0.09436011,-0.466978785,0.879331245,-10.84986,5.17314,21.77602,72.0
1774821835.7036605,3.0517578125e-05,2026-03-29T22:03:55.703,2026-03-29T18:03:55.703,-31922.01,-50353.695,-86075.73,-50436.945,-16333.38,-21025.395,4179.6449999999995,-47817.45,-0.12306244441472208,9.46256170328178,11.71714945761012,14.624771946899386,15.172462671041393,17.250250395754776,-8.212705748319209,-8.182719167310024,-0.09436011,-0.466978785,0.879331245,-10.84986,5.17314,21.77602,72.0
1774821835.7060812,0.002420663833618164,2026-03-29T22:03:55.706,2026-03-29T18:03:55.706,-31911.795,-50325.75,-86034.015,-50387.445,-16289.279999999999,-20984.04,4162.32,-47842.47,2.526763154345379,8.048510602338194,12.272192077003767,14.805731415032405,12.673150042562403,13.70477387812133,-14.842493366019461,-8.942109076768832,-0.10241673,-0.467711205,0.877744335,-11.506039999999999,5.4936,23.53092,72.0
1774821835.7060971,1.5974044799804688e-05,2026-03-29T22:03:55.706,2026-03-29T18:03:55.706,-31878.585,-50314.185,-86030.50499999999,-50390.009999999995,-16296.93,-21003.12,4136.67,-47804.534999999996,3.947964253527839,2.640253512241146,6.903076176185887,7.9748937358228105,4.15166139023495,3.590344473660875,-15.419122085729054,-5.530967564764,-0.10241673,-0.467711205,0.877744335,-11.506039999999999,5.4936,23.53092,72.0
1774821835.7148893,0.00879216194152832,2026-03-29T22:03:55.714,2026-03-29T18:03:55.714,-31846.77,-50284.439999999995,-86010.795,-50393.205,-16313.175,-21037.815,4084.1099999999997,-47785.005,2.880027322172444,-4.667918686408418,-2.1010772897246213,-2.827650588683847,-6.500972572346703,-8.457277654614229,-9.580392723959593,0.08911207588170343,-0.10241673,-0.467711205,0.877744335,-11.506039999999999,5.4936,23.53092,72.0
1774821835.7149243,3.504753112792969e-05,2026-03-29T22:03:55.714,2026-03-29T18:03:55.714,-31819.545,-50238.405,-85970.655,-50370.345,-16297.965,-21027.239999999998,4114.53,-47770.515,-0.48716712874791385,-10.594798178830617,-10.547315200386034,-12.557313204222554,-14.275361596322623,-16.7465819634305,0.34890929921211444,5.066647041490036,-0.10241673,-0.467711205,0.877744335,-11.506039999999999,5.4936,23.53092,72.0
1774821835.7177696,0.002845287322998047,2026-03-29T22:03:55.717,2026-03-29T18:03:55.717,-31885.155,-50259.33,-85979.79,-50382.81,-16284.33,-20982.645,4224.0599999999995,-47830.545,-4.441218770180615,-12.129427334222846,-14.281733760602455,-16.521546071667387,-15.40299709570047,-17.22430889237267,10.297175673529104,7.1180297421594965,-0.10241673,-0.467711205,0.877744335,-11.506039999999999,5.4936,23.53092,72.0
1774821835.7177908,2.1219253540039062e-05,2026-03-29T22:03:55.717,2026-03-29T18:03:55.717,-31935.87,-50306.67,-86028.03,-50421.104999999996,-16307.505,-20997.855,4233.105,-47865.825,-6.601959091734833,-8.042302921787238,-11.23129687526115,-12.659041843099589,-9.199414945033002,-9.473215157067918,16.133342377754733,5.598234100557221,-0.10241673,-0.467711205,0.877744335,-11.506039999999999,5.4936,23.53092,72.0
1774821835.7178085,1.7642974853515625e-05,2026-03-29T22:03:55.717,2026-03-29T18:03:55.717,-31903.199999999997,-50300.189999999995,-86032.395,-50422.32,-16311.33,-21007.17,4235.355,-47835.18,-5.281315506980215,0.3026431972680189,-2.5390554150336864,-2.625938805385944,1.5184925566442384,2.9787411995341997,15.392127349383642,1.6722587987547366,-0.10241673,-0.467711205,0.877744335,-11.506039999999999,5.4936,23.53092,72.0
1774821835.7178164,7.867813110351562e-06,2026-03-29T22:03:55.717,2026-03-29T18:03:55.717,-31902.344999999998,-50289.299999999996,-86005.75499999999,-50391.045,-16276.005,-20963.204999999998,4239.72,-47832.93,-0.594364717386727,9.328257019673524,7.824492155670405,8.88986064722657,11.694185233970707,14.247988734690253,8.310882375175312,-2.438026190404696,-0.10241673,-0.467711205,0.877744335,-11.506039999999999,5.4936,23.53092,72.0
1774821835.72253,0.004713535308837891,2026-03-29T22:03:55.722,2026-03-29T18:03:55.722,-31886.414999999997,-50261.759999999995,-85968.54,-50353.38,-16242.615,-20933.325,4188.24,-47832.119999999995,5.354003964651321,14.762999762208041,14.868337449654652,16.357001209451443,16.41656520929601,18.87630567791196,-2.2560403534936206,-4.681857446413854,-0.10241673,-0.467711205,0.877744335,-11.506039999999999,5.4936,23.53092,72.0
1774821835.722553,2.3126602172851562e-05,2026-03-29T22:03:55.722,2026-03-29T18:03:55.722,-31853.565,-50235.93,-85942.62,-50323.32,-16218.269999999999,-20920.545,4133.43,-47824.02,9.410918011417076,13.662025472053246,14.986904491836745,16.070772443477654,13.303322969303732,14.48804270103268,-12.00650963085054,-4.214484868966128,-0.10241673,-0.467711205,0.877744335,-11.506039999999999,5.4936,23.53092,72.0
1774821835.72912,0.0065670013427734375,2026-03-29T22:03:55.729,2026-03-29T18:03:55.729,-31878.989999999998,-50263.875,-85974.165,-50353.965,-16249.59,-20953.079999999998,4195.845,-47826.225,9.025461808282914,5.972897019635576,7.8019584263022805,8.008536230892759,3.7188376239353604,3.0230409096550424,-16.953834600603333,-1.7122490167769058,-0.110534385,-0.47759887500000003,0.874448445,-11.79598,4.3491,25.97252,72.0
1774821835.7291389,1.8835067749023438e-05,2026-03-29T22:03:55.729,2026-03-29T18:03:55.729,-31929.84,-50333.67,-86057.73,-50444.1,-16343.46,-21049.245,4250.97,-47836.305,3.7492794028959784,-5.177904616565716,-3.5016988187596554,-4.068001857435431,-7.803755206444875,-10.100709272880392,-15.054670995010522,1.1480027595389026,-0.110534385,-0.47759887500000003,0.874448445,-11.79598,4.3491,25.97252,72.0
1774821835.7291548,1.5974044799804688e-05,2026-03-29T22:03:55.729,2026-03-29T18:03:55.729,-31942.98,-50359.86,-86090.4,-50476.545,-16376.939999999999,-21084.614999999998,4233.33,-47833.965,-4.2624224933441335,-14.736432336829088,-13.584412816508877,-14.364784198088476,-15.703473440351903,-18.54490718304561,-7.038043186967645,2.7085201108475934,-0.110534385,-0.47759887500000003,0.874448445,-11.79598,4.3491,25.97252,72.0
1774821835.7291605,5.7220458984375e-06,2026-03-29T22:03:55.729,2026-03-29T18:03:55.729,-31927.094999999998,-50346.54,-86071.68,-50456.475,-16361.279999999999,-21069.135,4144.995,-47826.18,-11.121570087403926,-18.02217020982664,-17.483700079139243,-17.84739110156231,-16.085656166476884,-18.12292456305584,3.892495995591765,2.2610787141565005,-0.110534385,-0.47759887500000003,0.874448445,-11.79598,4.3491,25.97252,72.0
1774821835.735941,0.006780385971069336,2026-03-29T22:03:55.735,2026-03-29T18:03:55.735,-31894.695,-50289.479999999996,-85991.48999999999,-50372.729999999996,-16279.83,-20986.29,4109.67,-47827.619999999995,-13.103076268299537,-13.025546317603837,-13.063613565838363,-12.720856696868218,-8.658337797899708,-8.891317561889007,13.351097937294776,0.3771462094614932,-0.110534385,-0.47759887500000003,0.874448445,-11.79598,4.3491,25.97252,72.0
1774821835.7359645,2.3603439331054688e-05,2026-03-29T22:03:55.735,2026-03-29T18:03:55.735,-31857.03,-50262.39,-85976.45999999999,-50351.67,-16258.904999999999,-20973.78,4120.605,-47810.205,-8.6357898662253,-1.5693789253987678,-2.166664627462337,-1.3657388258386185,3.060459535702552,4.7918793298953135,17.528004802607594,-1.5196816541350826,-0.110534385,-0.47759887500000003,0.874448445,-11.79598,4.3491,25.97252,72.0
1774821835.7378693,0.0019047260284423828,2026-03-29T22:03:55.737,2026-03-29T18:03:55.737,-31873.004999999997,-50289.03,-86013.54,-50386.049999999996,-16296.39,-21018.69,4161.96,-47796.479999999996,0.6655091110177784,11.316619674658474,10.148523224925432,10.76357814465063,13.4045015579764,16.3192101018466,14.710017625750947,-2.0663976581031727,-0.110534385,-0.47759887500000003,0.874448445,-11.79598,4.3491,25.97252,72.0
1774821835.737878,8.821487426757812e-06,2026-03-29T22:03:55.737,2026-03-29T18:03:55.737,-31927.545,-50316.93,-86026.59,-50400.18,-16326.945,-21058.965,4171.095,-47843.729999999996,10.55001757332492,19.618916450923994,17.973090349537895,17.771187899181275,17.30778180431132,20.03281315536032,5.964505688881543,-0.8170230445422235,-0.110534385,-0.47759887500000003,0.874448445,-11.79598,4.3491,25.97252,72.0
1774821835.7417216,0.003843545913696289,2026-03-29T22:03:55.741,2026-03-29T18:03:55.741,-31924.62,-50293.395,-85995.135,-50362.604999999996,-16295.58,-21026.969999999998,4159.3949999999995,-47885.58,16.095525813171715,19.171457458780413,17.402361467465532,16.20595613468185,12.801774428916826,14.017204332925877,-5.275360037013051,1.4601398990945884,-0.110534385,-0.47759887500000003,0.874448445,-11.79598,4.3491,25.97252,72.0
1774821835.741735,1.33514404296875e-05,2026-03-29T22:03:55.741,2026-03-29T18:03:55.741,-31890.239999999998,-50297.805,-86025.15,-50388.479999999996,-16289.955,-21001.094999999998,4119.4349999999995,-47848.545,14.168636319471972,9.749265879505817,8.489129957406819,6.777997173574623,2.0218768282744426,1.0991800980455682,-14.556159396522556,3.2250817216562058,-0.110534385,-0.47759887500000003,0.874448445,-11.79598,4.3491,25.97252,72.0
1774821835.7491512,0.007416248321533203,2026-03-29T22:03:55.749,2026-03-29T18:03:55.749,-31898.969999999998,-50317.29,-86019.25499999999,-50385.465,-16277.58,-20979.135,4192.245,-47824.47,5.1451670423466105,-4.631766336861608,-4.686245735588731,-5.9577182222879665,-9.798582776005977,-12.472726692957185,-18.154385287933366,3.1027470749462625,-0.11791962,-0.489561735,0.86803977,-7.3705799999999995,2.31952,25.636799999999997,72.0
1774821835.74917,1.8835067749023438e-05,2026-03-29T22:03:55.749,2026-03-29T18:03:55.749,-31958.145,-50376.465,-86055.795,-50417.009999999995,-16310.385,-21004.38,4259.205,-47853.54,-7.037297530498281,-17.439542486445966,-15.906250191552061,-15.81410310490831,-16.87660971904801,-20.056854433218774,-14.551972091019762,0.7751668549427404,-0.11791962,-0.489561735,0.86803977,-7.3705799999999995,2.31952,25.636799999999997,72.0
1774821835.7491865,1.6450881958007812e-05,2026-03-29T22:03:55.749,2026-03-29T18:03:55.749,-31944.329999999998,-50361.795,-86070.19499999999,-50436.45,-16317.72,-21000.285,4267.9349999999995,-47833.38,-16.620258592707692,-22.628627025406125,-19.78141615318932,-18.000802683744165,-15.725611069066208,-17.88414434539782,-5.063391665858501,-2.702913983813554,-0.11791962,-0.489561735,0.86803977,-7.3705799999999995,2.31952,25.636799999999997,72.0
1774821835.7491927,6.198883056640625e-06,2026-03-29T22:03:55.749,2026-03-29T18:03:55.749,-31923.18,-50326.83,-86070.465,-50452.244999999995,-16332.75,-21026.34,4236.4349999999995,-47819.07,-18.777449265415665,-17.52341535764103,-14.360896192090465,-11.474912795468086,-6.889967544468263,-6.947344101585849,6.637445707861197,-5.38774363274094,-0.11791962,-0.489561735,0.86803977,-7.3705799999999995,2.31952,25.636799999999997,72.0
1774821835.7550592,0.005866527557373047,2026-03-29T22:03:55.755,2026-03-29T18:03:55.755,-31881.42,-50307.795,-86056.73999999999,-50451.39,-16338.869999999999,-21039.795,4173.795,-47791.305,-12.04880731221395,-4.191287726725945,-2.1117619964570267,0.5518912689745226,5.303858971303715,7.4414304830937335,15.923305525867177,-5.504789753183513,-0.11791962,-0.489561735,0.86803977,-7.3705799999999995,2.31952,25.636799999999997,72.0
1774821835.7550955,3.62396240234375e-05,2026-03-29T22:03:55.755,2026-03-29T18:03:55.755,-31841.64,-50282.055,-86053.815,-50457.015,-16349.984999999999,-21039.255,4142.25,-47761.02,0.7752508545747118,11.398780411456652,11.22604992611072,12.202604746232915,14.871422743811765,18.234461775915438,19.02421222197601,-2.5150846996921006,-0.11791962,-0.489561735,0.86803977,-7.3705799999999995,2.31952,25.636799999999997,72.0
1774821835.7577395,0.002644062042236328,2026-03-29T22:03:55.757,2026-03-29T18:03:55.757,-31828.14,-50245.83,-86007.23999999999,-50423.895,-16318.89,-20998.755,4154.715,-47774.52,13.824704612541517,22.088422885982613,19.368627873230096,17.83115993711172,17.124661824391875,20.115380118309673,14.545571404915803,2.418537016217808,-0.11791962,-0.489561735,0.86803977,-7.3705799999999995,2.31952,25.636799999999997,72.0
1774821835.757766,2.6464462280273438e-05,2026-03-29T22:03:55.757,2026-03-29T18:03:55.757,-31836.195,-50238.314999999995,-85981.815,-50382.18,-16276.814999999999,-20968.695,4197.69,-47802.735,20.877128881102788,22.8615655571429,18.485414450019242,14.787223637833396,10.98974975377044,12.136497759376741,4.089881589608079,6.879374583116126,-0.11791962,-0.489561735,0.86803977,-7.3705799999999995,2.31952,25.636799999999997,72.0
1774821835.7617664,0.004000425338745117,2026-03-29T22:03:55.761,2026-03-29T18:03:55.761,-31817.34,-50276.07,-86047.73999999999,-50449.77,-16354.529999999999,-21053.34,4200.075,-47754.765,18.35477367279172,13.222962121954552,9.016993094681812,4.681468275596346,-0.468036696938321,-1.7911890486423214,-8.293024035351532,8.38839461141465,-0.11791962,-0.489561735,0.86803977,-7.3705799999999995,2.31952,25.636799999999997,72.0
1774821835.7617853,1.8835067749023438e-05,2026-03-29T22:03:55.761,2026-03-29T18:03:55.761,-31858.515,-50309.145,-86064.03,-50457.645,-16374.644999999999,-21104.01,4088.52,-47773.665,7.133598256737013,-2.51729963489667,-4.558738425958476,-7.462494860335681,-11.576401135060024,-14.814932172257874,-17.652479804992712,5.7482867134803755,-0.11791962,-0.489561735,0.86803977,-7.3705799999999995,2.31952,25.636799999999997,72.0
1774821835.7659843,0.004199028015136719,2026-03-29T22:03:55.765,2026-03-29T18:03:55.765,-31912.469999999998,-50322.6,-86032.665,-50396.625,-16307.324999999999,-21048.614999999998,4018.095,-47833.47,-7.7490659722439075,-17.208488301020726,-15.884482618327633,-15.726095478254694,-16.879913706065267,-20.525141486759097,-20.102690899602557,-0.1766127619766777,-0.12316863,-0.497618355,0.861997305,-5.5393799999999995,-1.11398,24.782239999999998,72.0
1774821835.766,1.5735626220703125e-05,2026-03-29T22:03:55.766,2026-03-29T18:03:55.766,-31962.51,-50322.375,-85990.68,-50337.854999999996,-16240.635,-20971.71,4126.635,-47892.645,-19.395935333004417,-24.160076078597555,-19.748259338853117,-16.213096236524883,-13.842955919258632,-16.130146340272336,-14.435234175641087,-6.70903625544208,-0.12316863,-0.497618355,0.861997305,-5.5393799999999995,-1.11398,24.782239999999998,72.0
1774821835.770003,0.004003047943115234,2026-03-29T22:03:55.770,2026-03-29T18:03:55.770,-31979.789999999997,-50323.634999999995,-85977.72,-50314.814999999995,-16210.305,-20933.594999999998,4258.71,-47919.24,-22.289302123175588,-20.229873305708523,-14.513312299437263,-8.913104581135872,-4.081213687667584,-3.8383482419411408,-2.70984622252814,-10.5854460014035,-0.12316863,-0.497618355,0.861997305,-5.5393799999999995,-1.11398,24.782239999999998,72.0
1774821835.7700224,1.9311904907226562e-05,2026-03-29T22:03:55.770,2026-03-29T18:03:55.770,-31952.475,-50326.02,-86007.555,-50344.695,-16248.599999999999,-20973.69,4183.5599999999995,-47885.805,-14.926834310529767,-7.253564621960168,-2.8040535822677986,2.393549930305051,7.486439080849863,10.24540775141919,10.464338468588672,-9.590675034167752,-0.12316863,-0.497618355,0.861997305,-5.5393799999999995,-1.11398,24.782239999999998,72.0
1774821835.778399,0.008376598358154297,2026-03-29T22:03:55.778,2026-03-29T18:03:55.778,-31948.425,-50344.38,-86050.98,-50406.84,-16319.564999999999,-21039.21,4184.1449999999995,-47867.445,-0.5843426819257695,8.840125754147527,9.836873110732773,12.100051732869714,15.126074412775496,19.16106913811325,19.723881945434254,-3.779891472896439,-0.12316863,-0.497618355,0.861997305,-5.5393799999999995,-1.11398,24.782239999999998,72.0
1774821835.778426,2.6941299438476562e-05,2026-03-29T22:03:55.778,2026-03-29T18:03:55.778,-31938.21,-50330.115,-86055.61499999999,-50438.655,-16343.595,-21041.864999999998,4240.98,-47848.229999999996,14.175220658200935,20.790392138228096,17.623448544137602,15.584269747420086,15.15467230511894,18.553161148593304,21.133033489767108,4.370568198655995,-0.12316863,-0.497618355,0.861997305,-5.5393799999999995,-1.11398,24.782239999999998,72.0
1774821835.7784436,1.7642974853515625e-05,2026-03-29T22:03:55.778,2026-03-29T18:03:55.778,-31879.215,-50238.9,-85959.09,-50356.305,-16259.894999999999,-20953.125,4275.18,-47840.265,22.551264838264895,23.33103642375501,17.219222918696552,11.444198852002518,7.740796470013922,8.819695992210505,13.866179009360172,11.030712090663709,-0.12316863,-0.497618355,0.861997305,-5.5393799999999995,-1.11398,24.782239999999998,72.0
1774821835.7784512,7.62939453125e-06,2026-03-29T22:03:55.778,2026-03-29T18:03:55.778,-31833.945,-50215.725,-85948.92,-50349.509999999995,-16257.734999999999,-20952.63,4176.8099999999995,-47836.17,20.674625912381185,15.533778933219148,9.173126568043878,2.0601411152348694,-3.252615523943678,-5.120544460594835,0.6666594027236927,12.836379213580848,-0.12316863,-0.497618355,0.861997305,-5.5393799999999995,-1.11398,24.782239999999998,72.0
1774821835.7819977,0.003546476364135742,2026-03-29T22:03:55.781,2026-03-29T18:03:55.781,-31891.905,-50288.085,-85996.53,-50384.295,-16288.965,-20986.695,4103.235,-47842.064999999995,9.40294433832297,1.1138577559669174,-2.523979400432072,-7.742220256481112,-12.277101128894088,-16.315721268430014,-13.165574603239444,8.587645797386568,-0.12316863,-0.497618355,0.861997305,-5.5393799999999995,-1.11398,24.782239999999998,72.0
1774821835.782018,2.0265579223632812e-05,2026-03-29T22:03:55.782,2026-03-29T18:03:55.782,-31927.68,-50322.555,-86044.59,-50425.784999999996,-16320.015,-21016.575,4126.724999999999,-47840.04,-6.093967454298202,-13.381251253041663,-12.458730804615943,-13.190271644987835,-14.916803844026267,-19.264809067883608,-21.89712625816527,-0.030834187653452947,-0.12316863,-0.497618355,0.861997305,-5.5393799999999995,-1.11398,24.782239999999998,72.0
1774821835.7873473,0.0053293704986572266,2026-03-29T22:03:55.787,2026-03-29T18:03:55.787,-31950.719999999998,-50363.145,-86104.305,-50487.975,-16385.13,-21084.344999999998,4104.945,-47863.53,-18.747339674469128,-21.598703985189346,-16.352752862243285,-11.924727478922414,-10.077068683841718,-12.64377228672903,-21.747541992933094,-9.116276474158719,-0.12255828,-0.49951044,0.856626225,-0.48832,-0.27468,28.139439999999997,72.0
1774821835.787363,1.5735626220703125e-05,2026-03-29T22:03:55.787,2026-03-29T18:03:55.787,-31925.43,-50347.845,-86087.16,-50475.195,-16376.49,-21071.835,4198.455,-47835.765,-22.854755014346527,-20.197430656441085,-12.925434627371617,-5.038244732012133,-0.4460106050742766,0.08817146730184787,-12.54083297736707,-14.33767094087963,-0.12255828,-0.49951044,0.856626225,-0.48832,-0.27468,28.139439999999997,72.0
1774821835.8034365,0.01607346534729004,2026-03-29T22:03:55.803,2026-03-29T18:03:55.803,-31899.69,-50314.545,-86043.59999999999,-50432.759999999995,-16334.505,-21022.965,4302.18,-47800.89,-16.67015161698533,-10.1898110717489,-4.239947924402014,3.6742361004257003,8.970884834317609,12.486669166835526,2.1065533516889547,-13.017939661979018,-0.12255828,-0.49951044,0.856626225,-0.48832,-0.27468,28.139439999999997,72.0
1774821835.8034508,1.430511474609375e-05,2026-03-29T22:03:55.803,2026-03-29T18:03:55.803,-31922.1,-50292.494999999995,-85996.53,-50372.235,-16268.715,-20962.395,4233.15,-47855.655,-3.133518963930124,3.7212688834422516,5.510048335218838,9.788443846068063,13.455468766680893,18.394098064673955,16.195498735353187,-5.499959601367984,-0.12255828,-0.49951044,0.856626225,-0.48832,-0.27468,28.139439999999997,72.0
1774821835.8034632,1.239776611328125e-05,2026-03-29T22:03:55.803,2026-03-29T18:03:55.803,-31900.86,-50271.975,-85977.98999999999,-50340.33,-16235.64,-20938.905,4176.8099999999995,-47856.375,11.556469340668974,15.399365038073363,12.072879200294144,10.52303649392297,10.964449684457952,15.019294109059052,23.807977013219727,4.897685219218183,-0.12255828,-0.49951044,0.856626225,-0.48832,-0.27468,28.139439999999997,72.0
1774821835.8034675,4.291534423828125e-06,2026-03-29T22:03:55.803,2026-03-29T18:03:55.803,-31896.36,-50286.24,-85993.605,-50346.81,-16246.08,-20955.87,4169.97,-47836.17,20.81999942428391,20.02053430718054,13.025624705001558,6.03395383524522,3.081277029700236,4.274478559725691,21.609808563199202,13.363683212826182,-0.12255828,-0.49951044,0.856626225,-0.48832,-0.27468,28.139439999999997,72.0
1774821835.8034728,5.245208740234375e-06,2026-03-29T22:03:55.803,2026-03-29T18:03:55.803,-31907.699999999997,-50311.215,-86020.02,-50376.869999999995,-16273.664999999999,-20970.945,4225.32,-47822.265,20.669772763551038,16.06020988510295,8.621220993567377,-0.8855443882919961,-5.921598340932321,-8.280263250747717,10.325912268313608,15.844407708372474,-0.12255828,-0.49951044,0.856626225,-0.48832,-0.27468,28.139439999999997,72.0
1774821835.8034768,4.0531158447265625e-06,2026-03-29T22:03:55.803,2026-03-29T18:03:55.803,-31932.719999999998,-50346.314999999995,-86080.905,-50457.15,-16361.234999999999,-21062.88,4219.0199999999995,-47831.49,11.42520310985943,5.706279730927893,1.327804458266395,-6.4544777974177805,-11.37779856833857,-16.313132690471967,-5.471532004529193,10.998631927056907,-0.12255828,-0.49951044,0.856626225,-0.48832,-0.27468,28.139439999999997,72.0
1774821835.8034813,4.5299530029296875e-06,2026-03-29T22:03:55.803,2026-03-29T18:03:55.803,-31913.055,-50326.604999999996,-86073.435,-50466.195,-16372.349999999999,-21075.165,4168.9349999999995,-47823.57,-2.5668690882983403,-6.350819955384778,-5.554545704328873,-7.960576901808525,-10.6546738992144,-15.929540911486678,-19.21665017608776,0.9083883055416857,-0.12255828,-0.49951044,0.856626225,-0.48832,-0.27468,28.139439999999997,72.0
1774821835.803485,3.5762786865234375e-06,2026-03-29T22:03:55.803,2026-03-29T18:03:55.803,-31884.12,-50306.49,-86056.02,-50441.13,-16347.105,-21053.34,4125.599999999999,-47804.49,-15.00556869611486,-15.082164880513332,-9.426462748850215,-5.1098187639014165,-4.446747460265011,-7.579891225854088,-25.093281394291655,-9.825082665839721,-0.12255828,-0.49951044,0.856626225,-0.48832,-0.27468,28.139439999999997,72.0
1774821835.8179567,0.014471769332885742,2026-03-29T22:03:55.817,2026-03-29T18:03:55.817,-31873.905,-50306.895,-86059.395,-50408.729999999996,-16311.24,-21019.995,4049.2799999999997,-47807.955,-20.50077740837824,-17.221064663230337,-9.340731352687461,0.014515761994445785,3.711057939144917,4.277955519165032,-20.515127693169546,-16.20289074961243,-0.12072723,-0.49511592,0.857114505,-1.89224,-1.6022999999999998,25.54524,72.0
1774821835.8179717,1.5020370483398438e-05,2026-03-29T22:03:55.817,2026-03-29T18:03:55.817,-31875.704999999998,-50303.34,-86039.685,-50377.14,-16268.67,-20971.98,4058.37,-47831.58,-16.914545079630173,-12.421868298073301,-6.041599646814511,4.285309044665306,9.4081409723578,13.54386437624243,-7.276323115900292,-15.178832723293459,-0.12072723,-0.49511592,0.857114505,-1.89224,-1.6022999999999998,25.54524,72.0
1774821835.8179889,1.71661376953125e-05,2026-03-29T22:03:55.817,2026-03-29T18:03:55.817,-31901.895,-50337.27,-86061.105,-50418.27,-16303.455,-20995.785,4191.93,-47825.189999999995,-6.161117859396855,-3.1049519627189204,-1.265700413103495,5.359234314270792,9.726472073388573,15.618838010648208,9.144638970943793,-7.1239137619154125,-0.12072723,-0.49511592,0.857114505,-1.89224,-1.6022999999999998,25.54524,72.0
1774821835.8179934,4.5299530029296875e-06,2026-03-29T22:03:55.817,2026-03-29T18:03:55.817,-31904.55,-50317.11,-86031.405,-50398.064999999995,-16286.805,-20976.795,4280.3099999999995,-47807.28,6.813538296489951,6.783411632729163,3.191339879957963,2.9594412544731763,4.746856236296549,9.703550113183299,21.860898994685005,4.302789660489545,-0.12072723,-0.49511592,0.857114505,-1.89224,-1.6022999999999998,25.54524,72.0
1774821835.817999,5.4836273193359375e-06,2026-03-29T22:03:55.817,2026-03-29T18:03:55.817,-31884.614999999998,-50269.994999999995,-86019.48,-50414.04,-16309.529999999999,-21004.29,4239.09,-47796.615,16.32885003415301,13.452422216805145,6.134393630767663,-1.0865231801101296,-2.5892670670775253,-0.9047007390272097,25.4833316402406,13.834453630860004,-0.12072723,-0.49511592,0.857114505,-1.89224,-1.6022999999999998,25.54524,72.0
1774821835.8180027,3.814697265625e-06,2026-03-29T22:03:55.818,2026-03-29T18:03:55.818,-31849.289999999997,-50273.865,-86050.665,-50462.865,-16371.224999999999,-21069.315,4229.82,-47765.43,18.466487265842222,14.668282391845237,7.120910769136477,-4.033474183537702,-8.153181227230927,-10.620793026085066,18.422383225411835,17.048020411904826,-0.12072723,-0.49511592,0.857114505,-1.89224,-1.6022999999999998,25.54524,72.0
1774821835.8180077,5.0067901611328125e-06,2026-03-29T22:03:55.818,2026-03-29T18:03:55.818,-31837.545,-50323.994999999995,-86125.36499999999,-50538.645,-16447.32,-21140.774999999998,4190.805,-47726.775,12.666353439380105,10.38914960519739,6.22456514034824,-3.915312574461707,-8.907597602497354,-14.504924226835143,3.594729980401416,12.435246978253343,-0.12072723,-0.49511592,0.857114505,-1.89224,-1.6022999999999998,25.54524,72.0
1774821835.8180113,3.5762786865234375e-06,2026-03-29T22:03:55.818,2026-03-29T18:03:55.818,-31864.32,-50328.72,-86108.355,-50511.284999999996,-16412.85,-21105.09,4171.7699999999995,-47757.06,1.7832445461440944,2.5304532744002617,3.735601525307619,-0.7549569612078071,-4.549173442365499,-10.78152899912644,-12.782821240026765,2.1156085851519246,-0.12072723,-0.49511592,0.857114505,-1.89224,-1.6022999999999998,25.54524,72.0
1774821835.828472,0.010460615158081055,2026-03-29T22:03:55.828,2026-03-29T18:03:55.828,-31944.059999999998,-50321.52,-86035.815,-50407.695,-16301.34,-20997.045,4186.845,-47855.88,-9.324199135622745,-5.904372246876774,0.07126019102123618,3.423483765406634,2.3677086751718064,-1.6551776522354418,-23.812564368407546,-9.14775582835503,-0.12072723,-0.49511592,0.857114505,-1.89224,-1.6022999999999998,25.54524,72.0
1774821835.8284872,1.52587890625e-05,2026-03-29T22:03:55.828,2026-03-29T18:03:55.828,-31952.475,-50307.03,-86003.81999999999,-50365.439999999995,-16259.039999999999,-20956.59,4180.095,-47881.17,-15.971971572143856,-11.927464721833791,-4.077808784061593,5.79960684535721,7.877200904222918,7.953668435343584,-24.839044496918756,-16.167323204966916,-0.12072723,-0.49511592,0.857114505,-1.89224,-1.6022999999999998,25.54524,72.0
1774821835.8285003,1.3113021850585938e-05,2026-03-29T22:03:55.828,2026-03-29T18:03:55.828,-31943.25,-50295.78,-86001.885,-50364.314999999995,-16260.93,-20963.114999999998,4172.625,-47884.814999999995,-15.616544195886785,-13.526066669923557,-7.5936496321047,4.48977975575834,8.816674765161439,13.0429693364758,-15.429671040518574,-15.742323951444623,-0.11657685,-0.50036493,0.86742942,-1.19028,-0.97664,28.44464,72.0
1774821835.8285048,4.5299530029296875e-06,2026-03-29T22:03:55.828,2026-03-29T18:03:55.828,-31896.315,-50276.924999999996,-85998.42,-50368.59,-16268.085,-20971.395,4204.08,-47832.03,-8.790092888870282,-10.23409204390742,-9.068909292317624,-0.2042140271230165,4.593626755198456,11.129453701492649,0.4362033113661657,-8.131416272450526,-0.11657685,-0.50036493,0.86742942,-1.19028,-0.97664,28.44464,72.0
1774821835.8314834,0.0029785633087158203,2026-03-29T22:03:55.831,2026-03-29T18:03:55.831,-31902.12,-50294.744999999995,-86031.81,-50409.99,-16313.535,-21021.524999999998,4217.625,-47826.81,1.3152670662082155,-3.222303885123386,-7.355914280594824,-5.793089075568071,-2.465275880458539,3.4633461888655965,16.054897690197315,3.096302157478334,-0.11657685,-0.50036493,0.86742942,-1.19028,-0.97664,28.44464,72.0
1774821835.8315043,2.09808349609375e-05,2026-03-29T22:03:55.831,2026-03-29T18:03:55.831,-31952.024999999998,-50329.89,-86062.31999999999,-50434.47,-16338.195,-21050.37,4143.78,-47880.405,10.34230024059806,5.075779308064882,-2.320911744025019,-8.911954472378632,-8.380372156720385,-5.738599346412367,24.844938871038682,12.748713187284785,-0.11657685,-0.50036493,0.86742942,-1.19028,-0.97664,28.44464,72.0
1774821835.83427,0.002765655517578125,2026-03-29T22:03:55.834,2026-03-29T18:03:55.834,-31935.824999999997,-50306.31,-86026.23,-50390.685,-16293.599999999999,-21010.41,4158.675,-47871.72,14.642079126372165,11.710743574029834,4.65550984086883,-7.256280448958264,-9.71637234830642,-11.588651218608172,23.13803792272947,16.43253691149372,-0.11657685,-0.50036493,0.86742942,-1.19028,-0.97664,28.44464,72.0
1774821835.8343,3.0040740966796875e-05,2026-03-29T22:03:55.834,2026-03-29T18:03:55.834,-31942.754999999997,-50320.305,-86024.745,-50382.63,-16284.24,-20998.53,4186.3949999999995,-47856.06,12.72517327657225,14.172772299456943,10.875935593433319,-1.0576968312859594,-5.513511987193233,-11.111188935242433,11.723767499689918,12.570733272814028,-0.11657685,-0.50036493,0.86742942,-1.19028,-0.97664,28.44464,72.0
1774821835.8407092,0.006409168243408203,2026-03-29T22:03:55.840,2026-03-29T18:03:55.840,-31945.364999999998,-50336.415,-86043.375,-50397.119999999995,-16297.92,-21010.005,4147.92,-47859.615,5.728285646075559,11.306136430789216,13.339980298184214,6.78175076132057,2.1111616275086056,-4.752274330455338,-4.50827559877497,3.0812524025310983,-0.11657685,-0.50036493,0.86742942,-1.19028,-0.97664,28.44464,72.0
1774821835.8407278,1.8596649169921875e-05,2026-03-29T22:03:55.840,2026-03-29T18:03:55.840,-31913.864999999998,-50313.24,-86040.18,-50397.705,-16300.664999999999,-21015.855,4118.355,-47849.58,-3.218808268991756,3.8704060107008167,10.210448529737794,12.069559900861865,9.044079894146966,3.949249829375432,-18.669458152314455,-7.576406993652874,-0.11657685,-0.50036493,0.86742942,-1.19028,-0.97664,28.44464,72.0
1774821835.8407493,2.1457672119140625e-05,2026-03-29T22:03:55.840,2026-03-29T18:03:55.840,-31886.01,-50275.17,-86020.155,-50387.939999999995,-16290.045,-20999.16,4162.1849999999995,-47827.979999999996,-10.387201016087227,-5.53290844606194,2.005797202223573,11.549708906918058,11.379160992680422,10.310363816989671,-24.81116525766611,-14.51227947460131,-0.11657685,-0.50036493,0.86742942,-1.19028,-0.97664,28.44464,72.0
1774821835.840754,4.76837158203125e-06,2026-03-29T22:03:55.840,2026-03-29T18:03:55.840,-31877.504999999997,-50277.645,-86028.03,-50400.585,-16298.279999999999,-20992.545,4228.47,-47800.259999999995,-12.987229126300464,-13.273648457172307,-8.204816978850484,4.797691136975246,7.569306891876405,11.007129380228253,-20.44172445636831,-14.668538163792594,-0.11657685,-0.50036493,0.86742942,-1.19028,-0.97664,28.44464,72.0
1774821835.846625,0.0058710575103759766,2026-03-29T22:03:55.846,2026-03-29T18:03:55.846,-31890.42,-50311.755,-86066.91,-50438.88,-16333.83,-21028.95,4195.845,-47789.145,-10.226842340988144,-16.05580574676414,-15.902407786658188,-5.283482793668359,-0.642669593055442,5.8004482609013195,-7.548551902674389,-8.17836315193079,-0.107604705,-0.50964225,0.87560811,9.17126,0.30519999999999997,25.69784,72.0
