unix_time_s,dt_s,UTC,LOCAL,EMG1_Raw,EMG2_Raw,EMG3_Raw,EMG4_Raw,EMG5_Raw,EMG6_Raw,EMG7_Raw,EMG8_Raw,EMG1_Filtered,EMG2_Filtered,EMG3_Filtered,EMG4_Filtered,EMG5_Filtered,EMG6_Filtered,EMG7_Filtered,EMG8_Filtered,Accel1_Raw,Accel2_Raw,Accel3_Raw,Gyro1_Raw,Gyro2_Raw,Gyro3_Raw,Battery
1774823140.3165374,,2026-03-29T22:25:40.316,2026-03-29T18:25:40.316,-33669.045,-43915.32,-83377.935,-50253.93,-12046.859999999999,-17389.305,5729.94,-69795.045,1.1590067192374127,0.27830407223449705,-1.0757251306602804,-2.3666175690828015,-1.5887782214179305,0.5213481289507044,0.9890019822563271,2.043403705719494,0.158996175,-0.938168985,0.47399781,15.54994,-64.64135999999999,32.976859999999995,69.0
1774823140.316553,1.5735626220703125e-05,2026-03-29T22:25:40.316,2026-03-29T18:25:40.316,-33733.89,-43898.58,-83341.935,-50214.555,-12010.005,-17359.739999999998,5739.389999999999,-69857.28,1.2305214426751507,5.805675634999795,4.944813059992912,3.188394003139265,3.196344793288307,2.084729501430572,5.1447130723187575,0.8863302731239274,0.158996175,-0.938168985,0.47399781,15.54994,-64.64135999999999,32.976859999999995,69.0
1774823140.316568,1.4781951904296875e-05,2026-03-29T22:25:40.316,2026-03-29T18:25:40.316,-33740.325,-43874.505,-83310.84,-50177.564999999995,-11974.68,-17335.035,5754.375,-69911.325,0.8466448260819198,8.963070894962863,8.90697670062019,7.563410405547472,6.703628571390071,2.840515270228797,6.915396560917596,-0.7674479313845075,0.166808655,-0.91930917,0.470640885,9.506979999999999,-62.59652,37.55486,69.0
1774823140.3165762,8.344650268554688e-06,2026-03-29T22:25:40.316,2026-03-29T18:25:40.316,-33724.89,-43891.155,-83325.42,-50194.979999999996,-11995.38,-17360.684999999998,5754.6449999999995,-69884.685,0.08117640443143898,8.338110871107862,9.147014907428032,8.985525446834847,7.529416489210767,2.4918285099858957,5.381961783994409,-2.3510623520640688,0.166808655,-0.91930917,0.470640885,9.506979999999999,-62.59652,37.55486,69.0
1774823140.3211832,0.004606962203979492,2026-03-29T22:25:40.321,2026-03-29T18:25:40.321,-33738.525,-43911.405,-83337.97499999999,-50212.935,-12016.305,-17363.61,5740.83,-69875.81999999999,-0.8312682585792026,4.115804589613186,5.5693355711510835,6.828020165056421,5.348848617006457,1.1684016905778234,1.206677333707818,-3.2183950907321934,0.166808655,-0.91930917,0.470640885,9.506979999999999,-62.59652,37.55486,69.0
1774823140.3212676,8.440017700195312e-05,2026-03-29T22:25:40.321,2026-03-29T18:25:40.321,-33748.604999999996,-43904.79,-83348.81999999999,-50223.104999999996,-12020.58,-17351.864999999998,5742.8099999999995,-69892.875,-1.5522725748108799,-1.9610253218253715,-0.31306155733911173,1.8889165712929687,1.041536528321789,-0.6138421890216352,-3.6516605231875907,-2.9094527701156605,0.166808655,-0.91930917,0.470640885,9.506979999999999,-62.59652,37.55486,69.0
1774823140.3242943,0.003026723861694336,2026-03-29T22:25:40.324,2026-03-29T18:25:40.324,-33728.265,-43886.384999999995,-83352.825,-50229.63,-12021.255,-17340.704999999998,5753.79,-69883.47,-1.755279981937254,-7.30814616274693,-6.022898578196086,-3.896128755164218,-3.6672556177103717,-2.1488663037623232,-6.859240055545148,-1.386864501393928,0.166808655,-0.91930917,0.470640885,9.506979999999999,-62.59652,37.55486,69.0
1774823140.3243103,1.5974044799804688e-05,2026-03-29T22:25:40.324,2026-03-29T18:25:40.324,-33720.84,-43886.384999999995,-83352.87,-50233.095,-12029.445,-17354.655,5750.054999999999,-69877.8,-1.2664302529165143,-9.600852099674015,-9.171793387196423,-8.208202808604296,-6.9017967106641205,-2.8212361894098654,-6.8306178204005015,0.8760244069090071,0.166808655,-0.91930917,0.470640885,9.506979999999999,-62.59652,37.55486,69.0
1774823140.3300664,0.0057561397552490234,2026-03-29T22:25:40.330,2026-03-29T18:25:40.330,-33730.424999999996,-43901.729999999996,-83352.375,-50231.79,-12030.615,-17359.605,5758.29,-69866.325,-0.17308757766887664,-7.790067463490824,-8.470297911436898,-9.27560475982113,-7.385417764810745,-2.3596829270204074,-3.511908233786941,3.0245327552666135,0.166808655,-0.91930917,0.470640885,9.506979999999999,-62.59652,37.55486,69.0
1774823140.3300815,1.5020370483398438e-05,2026-03-29T22:25:40.330,2026-03-29T18:25:40.330,-33730.29,-43910.1,-83364.12,-50242.005,-12034.664999999999,-17357.265,5753.205,-69856.65,1.15968759630618,-2.587141451381558,-4.2624847789820635,-6.607051186618175,-4.943764866372852,-0.9553806759876059,1.5632714005107984,4.144578380057758,0.166808655,-0.91930917,0.470640885,9.506979999999999,-62.59652,37.55486,69.0
1774823140.3361824,0.006100893020629883,2026-03-29T22:25:40.336,2026-03-29T18:25:40.336,-33689.25,-43894.395,-83371.77,-50254.064999999995,-12046.859999999999,-17370.225,5745.42,-69827.625,2.196043220126392,3.809064369054091,1.640094884045337,-1.221668419251116,-0.5636700293491126,0.8115420896829894,5.985629816282492,3.6560578925605665,0.166808655,-0.91930917,0.470640885,9.506979999999999,-62.59652,37.55486,69.0
1774823140.3361995,1.71661376953125e-05,2026-03-29T22:25:40.336,2026-03-29T18:25:40.336,-33665.805,-43883.055,-83359.34999999999,-50244.345,-12040.875,-17368.11,5749.469999999999,-69801.61499999999,2.437937927520545,8.64221732757663,6.746398108264801,4.73392837184291,4.010085960650805,2.21274973518716,7.617991044707794,1.6059772005555384,0.166808655,-0.91930917,0.470640885,9.506979999999999,-62.59652,37.55486,69.0
1774823140.3362153,1.5735626220703125e-05,2026-03-29T22:25:40.336,2026-03-29T18:25:40.336,-33713.505,-43885.979999999996,-83334.51,-50208.84,-12002.31,-17330.265,5757.344999999999,-69850.98,1.6580820623834336,9.792565253044705,8.949799238924527,8.84160340396521,6.973390268901631,2.6797344273810997,5.630182147372265,-1.2847753729522688,0.16564899,-0.899716935,0.472471935,3.79974,-62.24554,42.89586,69.0
1774823140.336222,6.67572021484375e-06,2026-03-29T22:25:40.336,2026-03-29T18:25:40.336,-33733.08,-43891.29,-83350.17,-50224.814999999995,-12019.23,-17348.265,5748.344999999999,-69874.69499999999,0.05058300615324782,6.715053798234055,7.407787722387981,9.399862255396815,7.175421849888637,2.0450097719402254,0.9185781383943739,-3.869199914279709,0.16564899,-0.899716935,0.472471935,3.79974,-62.24554,42.89586,69.0
1774823140.3402274,0.00400543212890625,2026-03-29T22:25:40.340,2026-03-29T18:25:40.340,-33709.5,-43888.814999999995,-83345.31,-50227.064999999995,-12029.22,-17357.805,5755.815,-69835.59,-1.7886968360146487,0.7022735279134547,2.864804157330517,6.137547350216625,4.563341562793085,0.6084209192528492,-4.3010271696245095,-5.033997667523173,0.16564899,-0.899716935,0.472471935,3.79974,-62.24554,42.89586,69.0
1774823140.3402445,1.71661376953125e-05,2026-03-29T22:25:40.340,2026-03-29T18:25:40.340,-33723.27,-43893.54,-83340.72,-50219.189999999995,-12020.13,-17352.855,5749.695,-69852.78,-3.0731472910273534,-5.656968901487154,-2.7064644072003077,0.3492113330388454,0.18829015458091658,-1.0021061549006018,-7.541103804530631,-4.184438345141343,0.16564899,-0.899716935,0.472471935,3.79974,-62.24554,42.89586,69.0
1774823140.3443477,0.004103183746337891,2026-03-29T22:25:40.344,2026-03-29T18:25:40.344,-33718.049999999996,-43898.13,-83356.47,-50230.215,-12025.035,-17361.72,5743.26,-69852.555,-3.1588934200119914,-9.5979745987248,-6.973061335702908,-5.617287634927327,-4.221836579412833,-2.112054007230432,-7.2326030605860305,-1.5402930514098006,0.16564899,-0.899716935,0.472471935,3.79974,-62.24554,42.89586,69.0
1774823140.3443696,2.193450927734375e-05,2026-03-29T22:25:40.344,2026-03-29T18:25:40.344,-33706.665,-43904.295,-83359.89,-50231.655,-12025.89,-17362.079999999998,5734.9349999999995,-69844.995,-1.8607631177434734,-9.392139851208603,-8.232153750418307,-9.319518023905953,-6.947312124063709,-2.2947445237947703,-3.485752275157671,1.9022559129001197,0.16564899,-0.899716935,0.472471935,3.79974,-62.24554,42.89586,69.0
1774823140.3485668,0.004197120666503906,2026-03-29T22:25:40.348,2026-03-29T18:25:40.348,-33717.42,-43922.835,-83371.14,-50245.064999999995,-12043.619999999999,-17380.26,5732.955,-69841.62,0.4022844716123803,-5.114510087098786,-6.096943371169804,-9.231319122064408,-6.946563284558565,-1.544173410053423,1.948359840542492,4.74831499762869,0.16564899,-0.899716935,0.472471935,3.79974,-62.24554,42.89586,69.0
1774823140.348593,2.6226043701171875e-05,2026-03-29T22:25:40.348,2026-03-29T18:25:40.348,-33745.455,-43911.63,-83352.555,-50225.13,-12025.26,-17363.79,5756.535,-69858.045,2.7247732420595123,1.3786322212023374,-1.5982315193350511,-5.381990930155717,-4.250496577449948,-0.25081808962183666,6.502679755906252,5.776651122889833,0.16564899,-0.899716935,0.472471935,3.79974,-62.24554,42.89586,69.0
1774823140.354799,0.006206035614013672,2026-03-29T22:25:40.354,2026-03-29T18:25:40.354,-33696.09,-43890.435,-83378.16,-50261.625,-12060.72,-17393.445,5759.505,-69818.4,4.073550420782892,7.259181142281852,3.3150018648624906,0.6492083703617839,0.06631956857929912,1.0000115998749175,8.01406720264186,4.467997237636933,0.16564899,-0.899716935,0.472471935,3.79974,-62.24554,42.89586,69.0
1774823140.354817,1.7881393432617188e-05,2026-03-29T22:25:40.354,2026-03-29T18:25:40.354,-33696.494999999995,-43896.42,-83379.23999999999,-50262.03,-12060.0,-17389.53,5741.46,-69825.59999999999,3.747543198856577,9.969115688809094,6.633457857008597,6.386174012104546,4.317584421330831,1.7037863627258911,5.754970966725924,1.258377205844305,0.16564899,-0.899716935,0.472471935,3.79974,-62.24554,42.89586,69.0
1774823140.3562908,0.0014739036560058594,2026-03-29T22:25:40.356,2026-03-29T18:25:40.356,-33726.645,-43887.24,-83335.31999999999,-50207.985,-12009.734999999999,-17342.864999999998,5751.764999999999,-69866.37,1.7334270356712722,8.344725663144859,7.120046166892808,9.484564376309379,6.865040904367177,1.651767749198904,0.7825124257959476,-2.6034276375983354,0.1599117,-0.8891578800000001,0.476011965,1.46496,-62.59652,44.16244,69.0
1774823140.3563037,1.2874603271484375e-05,2026-03-29T22:25:40.356,2026-03-29T18:25:40.356,-33709.365,-43884.36,-83333.11499999999,-50198.625,-11995.47,-17325.855,5743.71,-69863.805,-1.2207422467550497,3.123348360442213,4.76657014797629,8.702856835691028,6.747447457791963,0.9875209076738928,-4.562446602242762,-5.5482344611409005,0.1599117,-0.8891578800000001,0.476011965,1.46496,-62.59652,44.16244,69.0
1774823140.360073,0.003769397735595703,2026-03-29T22:25:40.360,2026-03-29T18:25:40.360,-33708.645,-43904.25,-83349.22499999999,-50209.11,-12000.42,-17328.285,5730.929999999999,-69849.63,-3.876408606441458,-3.391750027215646,0.7077346511923918,4.4068934733867176,4.038355674769609,0.09140041713032798,-7.766239837074644,-6.330701802338727,0.1599117,-0.8891578800000001,0.476011965,1.46496,-62.59652,44.16244,69.0
1774823140.3600926,1.9550323486328125e-05,2026-03-29T22:25:40.360,2026-03-29T18:25:40.360,-33731.055,-43929.27,-83387.655,-50256.494999999995,-12047.445,-17369.954999999998,5725.44,-69843.42,-5.025680265961626,-8.355971586578708,-3.3303202370524607,-1.6012869707251611,-0.19805630354730142,-0.6331570368125954,-7.331974089419769,-4.557342003016769,0.1599117,-0.8891578800000001,0.476011965,1.46496,-62.59652,44.16244,69.0
1774823140.3642042,0.004111528396606445,2026-03-29T22:25:40.364,2026-03-29T18:25:40.364,-33733.305,-43925.49,-83378.655,-50248.53,-12033.765,-17355.239999999998,5752.349999999999,-69855.705,-4.042413303683428,-9.637577862572785,-5.7771346752569475,-6.850671566365707,-4.327607328386805,-0.9530750941383602,-3.48109106850323,-0.8735362196807934,0.1599117,-0.8891578800000001,0.476011965,1.46496,-62.59652,44.16244,69.0
1774823140.3642137,9.5367431640625e-06,2026-03-29T22:25:40.364,2026-03-29T18:25:40.364,-33712.83,-43910.909999999996,-83372.48999999999,-50247.045,-12029.039999999999,-17345.79,5767.92,-69821.145,-1.2104871024993433,-6.7424688262580394,-5.831031065251543,-9.232721217224137,-6.775679701448107,-0.8807740783015542,1.963279301930971,3.275626171444163,0.1599117,-0.8891578800000001,0.476011965,1.46496,-62.59652,44.16244,69.0
1774823140.374539,0.010325193405151367,2026-03-29T22:25:40.374,2026-03-29T18:25:40.374,-33706.034999999996,-43891.604999999996,-83359.665,-50242.185,-12026.295,-17344.98,5752.98,-69833.43,2.339070935094367,-1.003581472630954,-3.697183018945013,-7.858907248268755,-6.62351117983638,-0.6052363953263029,6.448675755531789,6.218872838708752,0.1599117,-0.8891578800000001,0.476011965,1.46496,-62.59652,44.16244,69.0
1774823140.374559,2.002716064453125e-05,2026-03-29T22:25:40.374,2026-03-29T18:25:40.374,-33721.11,-43889.715,-83340.135,-50219.64,-12008.07,-17330.309999999998,5761.889999999999,-69853.905,5.080788674507688,5.037341241250847,-0.394140314729763,-3.389758708533005,-3.9473741607282213,-0.33593597647065815,7.899873508075897,6.735123323555584,0.1599117,-0.8891578800000001,0.476011965,1.46496,-62.59652,44.16244,69.0
1774823140.3745768,1.7881393432617188e-05,2026-03-29T22:25:40.374,2026-03-29T18:25:40.374,-33717.735,-43892.955,-83335.95,-50203.845,-11997.945,-17324.864999999998,5768.73,-69848.325,5.755442531535855,8.766629697315915,2.738788205771049,2.285840679960595,0.22172859802066627,-0.1629165012576282,5.68462262742656,4.557156922809037,0.1599117,-0.8891578800000001,0.476011965,1.46496,-62.59652,44.16244,69.0
1774823140.3745835,6.67572021484375e-06,2026-03-29T22:25:40.374,2026-03-29T18:25:40.374,-33718.185,-43907.85,-83364.165,-50228.82,-12026.16,-17358.255,5751.719999999999,-69834.15,3.9498291420640075,8.640191921777278,4.59223188721698,6.864319186040548,4.296062430148523,-0.02039039470670471,0.8862560275845509,0.49628046593956526,0.1599117,-0.8891578800000001,0.476011965,1.46496,-62.59652,44.16244,69.0
1774823140.3745914,7.867813110351562e-06,2026-03-29T22:25:40.374,2026-03-29T18:25:40.374,-33711.165,-43915.005,-83379.825,-50246.595,-12047.085,-17394.075,5732.054999999999,-69820.515,0.32745457303650444,4.825732515370831,4.665020521427934,8.576224255711969,6.73273886522752,0.2271020153527758,-4.233089293704003,-3.865268642830857,0.14514123,-0.8865333750000001,0.479796135,2.24322,-65.22124,47.6875,69.0
1774823140.3745975,6.198883056640625e-06,2026-03-29T22:25:40.374,2026-03-29T18:25:40.374,-33728.04,-43912.89,-83364.25499999999,-50229.0,-12029.715,-17381.745,5718.465,-69851.79,-3.61241201500878,-0.9229436860437538,3.14869357104143,6.872118665132314,6.612391385929176,0.6371742807688509,-7.309864766227685,-6.793842206053054,0.14514123,-0.8865333750000001,0.479796135,2.24322,-65.22124,47.6875,69.0
1774823140.3839316,0.009334087371826172,2026-03-29T22:25:40.383,2026-03-29T18:25:40.383,-33722.729999999996,-43911.494999999995,-83354.44499999999,-50228.775,-12036.914999999999,-17381.43,5727.014999999999,-69839.19,-6.161013872847652,-6.079711139574927,0.740882731998138,2.5780204023171875,3.980687011186669,1.0856295719980114,-6.979009850376988,-7.091266314123851,0.14514123,-0.8865333750000001,0.479796135,2.24322,-65.22124,47.6875,69.0
1774823140.3839512,1.9550323486328125e-05,2026-03-29T22:25:40.383,2026-03-29T18:25:40.383,-33740.415,-43913.7,-83348.73,-50227.064999999995,-12029.13,-17359.649999999998,5744.07,-69856.69499999999,-6.14699553608253,-8.466630998906052,-1.6825731673793598,-2.5111167471172724,-0.17142692462142592,1.289801277378876,-3.480341022959505,-4.578098901457311,0.14514123,-0.8865333750000001,0.479796135,2.24322,-65.22124,47.6875,69.0
1774823140.3950844,0.011133193969726562,2026-03-29T22:25:40.395,2026-03-29T18:25:40.395,-33723.18,-43899.479999999996,-83354.58,-50238.09,-12032.055,-17340.03,5750.1449999999995,-69841.305,-3.474349386743808,-7.1789199368905035,-3.379523171647294,-6.397395335456282,-4.279027580224934,0.966120745116528,1.498399704604249,-0.1821627646659546,0.14514123,-0.8865333750000001,0.479796135,2.24322,-65.22124,47.6875,69.0
1774823140.3951015,1.71661376953125e-05,2026-03-29T22:25:40.395,2026-03-29T18:25:40.395,-33704.325,-43884.18,-83339.86499999999,-50223.96,-12022.47,-17324.684999999998,5772.42,-69806.11499999999,0.7959109043418535,-2.918988375886914,-3.9295979922445854,-7.6707710588456175,-6.787759023489711,0.039573809187088235,5.645145285820352,4.4054037730926465,0.14514123,-0.8865333750000001,0.479796135,2.24322,-65.22124,47.6875,69.0
1774823140.395117,1.5497207641601562e-05,2026-03-29T22:25:40.395,2026-03-29T18:25:40.395,-33716.7,-43899.119999999995,-83361.23999999999,-50243.67,-12044.699999999999,-17352.09,5755.724999999999,-69812.415,4.87140252472631,2.3786510183088017,-3.275807408827521,-6.007806935154626,-6.7358588225961755,-1.2251602586174197,7.107785950570434,7.37746435748368,0.14514123,-0.8865333750000001,0.479796135,2.24322,-65.22124,47.6875,69.0
1774823140.3951235,6.4373016357421875e-06,2026-03-29T22:25:40.395,2026-03-29T18:25:40.395,-33710.715,-43891.11,-83354.44499999999,-50233.95,-12036.24,-17356.86,5743.26,-69821.01,6.987931838856391,6.4337969827357515,-1.6655497331367435,-2.2085263148237937,-4.118824657218332,-2.2740504994552144,5.325750798042908,7.515325476574461,0.14514123,-0.8865333750000001,0.479796135,2.24322,-65.22124,47.6875,69.0
1774823140.395131,7.62939453125e-06,2026-03-29T22:25:40.395,2026-03-29T18:25:40.395,-33699.284999999996,-43872.975,-83326.00499999999,-50200.47,-12000.689999999999,-17331.84,5769.719999999999,-69812.09999999999,6.177271401361746,7.608073846705649,0.44398594371680583,2.1970720611643912,0.09947933378132008,-2.5046172174116164,1.2334297504508571,4.679913798778718,0.14514123,-0.8865333750000001,0.479796135,2.24322,-65.22124,47.6875,69.0
1774823140.395137,5.9604644775390625e-06,2026-03-29T22:25:40.395,2026-03-29T18:25:40.395,-33721.244999999995,-43880.805,-83312.91,-50181.165,-11978.595,-17315.73,5771.655,-69833.97,2.706862047302361,5.562831456002562,2.47906360142664,5.575760875099774,4.337027938209908,-1.5933215574601771,-3.2315787909479825,-0.1034311846629122,0.14514123,-0.8865333750000001,0.479796135,2.24322,-65.22124,47.6875,69.0
1774823140.3962646,0.001127481460571289,2026-03-29T22:25:40.396,2026-03-29T18:25:40.396,-33732.854999999996,-43895.924999999996,-83332.845,-50204.88,-12003.84,-17345.88,5753.025,-69839.055,-2.0070178812107415,1.3256261890893952,3.8473368294101746,6.788637371196033,6.980238441807026,0.26306547710489697,-6.056187424029696,-5.009267127586977,0.1318356,-0.87865986,0.484923075,1.526,-69.43299999999999,51.868739999999995,69.0
1774823140.396276,1.1444091796875e-05,2026-03-29T22:25:40.396,2026-03-29T18:25:40.396,-33725.34,-43904.88,-83352.465,-50222.43,-12013.875,-17338.995,5773.455,-69820.965,-5.984146141863784,-3.224803061794252,4.065998817817734,5.5445630589776,6.992798987118086,2.343682996994689,-6.066756029922579,-8.098954348474559,0.1318356,-0.87865986,0.484923075,1.526,-69.43299999999999,51.868739999999995,69.0
1774823140.4003527,0.004076719284057617,2026-03-29T22:25:40.400,2026-03-29T18:25:40.400,-33734.655,-43913.835,-83350.89,-50220.72,-12009.914999999999,-17323.649999999998,5774.3099999999995,-69826.905,-7.517970751936632,-6.196801181967959,2.922852583462047,2.417683001160742,4.319813741273878,3.679930710828956,-3.4120331353907276,-8.077058485459155,0.1318356,-0.87865986,0.484923075,1.526,-69.43299999999999,51.868739999999995,69.0
1774823140.4003744,2.1696090698242188e-05,2026-03-29T22:25:40.400,2026-03-29T18:25:40.400,-33732.27,-43922.295,-83353.095,-50225.4,-12015.404999999999,-17324.37,5770.125,-69821.955,-5.908707955683128,-6.470544574302582,0.6220892358414245,-1.4272179053032552,-0.06922661055591026,3.5078111897259237,0.5819356617588974,-4.82782739294527,0.1318356,-0.87865986,0.484923075,1.526,-69.43299999999999,51.868739999999995,69.0
1774823140.4050007,0.004626274108886719,2026-03-29T22:25:40.405,2026-03-29T18:25:40.405,-33721.244999999995,-43926.21,-83373.66,-50250.195,-12042.225,-17348.355,5760.224999999999,-69797.16,-1.7766649284274996,-4.104779733884583,-2.1733976837965443,-4.665883281306621,-4.524700228953145,1.6837798800610355,4.079764612826466,0.48661525634788366,0.1318356,-0.87865986,0.484923075,1.526,-69.43299999999999,51.868739999999995,69.0
1774823140.4050145,1.3828277587890625e-05,2026-03-29T22:25:40.405,2026-03-29T18:25:40.405,-33720.659999999996,-43918.74,-83387.025,-50261.939999999995,-12053.654999999999,-17354.295,5761.304999999999,-69801.12,3.181790960688735,-0.2268681487503579,-4.481328676229227,-6.24354494407527,-7.329782340570189,-1.1560585184096417,5.588907733182363,5.826996389824441,0.1318356,-0.87865986,0.484923075,1.526,-69.43299999999999,51.868739999999995,69.0
1774823140.408653,0.0036385059356689453,2026-03-29T22:25:40.408,2026-03-29T18:25:40.408,-33723.854999999996,-43905.465,-83379.87,-50243.715,-12037.005,-17342.055,5761.9349999999995,-69826.455,6.896439400742312,3.505019318002235,-5.327419568504074,-5.678121160538318,-7.357834754203111,-3.8064744634108987,4.596480480286356,9.046603111254234,0.1318356,-0.87865986,0.484923075,1.526,-69.43299999999999,51.868739999999995,69.0
1774823140.4086747,2.1696090698242188e-05,2026-03-29T22:25:40.408,2026-03-29T18:25:40.408,-33733.665,-43908.75,-83380.635,-50234.265,-12027.779999999999,-17341.155,5762.205,-69837.03,7.78987236585907,5.610195324226163,-4.161974068895158,-3.175577730928507,-4.52463659675462,-5.009835872888793,1.7193030536473692,8.74688313862599,0.1318356,-0.87865986,0.484923075,1.526,-69.43299999999999,51.868739999999995,69.0
1774823140.4164128,0.0077381134033203125,2026-03-29T22:25:40.416,2026-03-29T18:25:40.416,-33734.7,-43915.77,-83388.285,-50245.244999999995,-12029.805,-17342.73,5754.195,-69823.62,5.444821145279766,5.362122005804078,-1.1851480907713217,0.44812080919531744,0.14584462528850228,-4.054568550931066,-1.6606894519410318,4.882463160100014,0.1318356,-0.87865986,0.484923075,1.526,-69.43299999999999,51.868739999999995,69.0
1774823140.4164295,1.6689300537109375e-05,2026-03-29T22:25:40.416,2026-03-29T18:25:40.416,-33729.525,-43911.405,-83377.08,-50250.735,-12030.48,-17340.48,5748.344999999999,-69816.105,0.7913944145885807,3.01520405190436,2.6020143791177377,4.006672019343214,4.882580860243939,-1.1690964326347926,-4.067110134162964,-1.144710470035247,0.1318356,-0.87865986,0.484923075,1.526,-69.43299999999999,51.868739999999995,69.0
1774823140.416467,3.743171691894531e-05,2026-03-29T22:25:40.416,2026-03-29T18:25:40.416,-33741.945,-43910.505,-83362.72499999999,-50241.33,-12020.76,-17330.399999999998,5757.165,-69830.73,-4.2663195485681324,-0.3738252781239549,5.706323589372141,6.289884093671387,7.832676266733384,2.498866389620282,-4.577504786627737,-6.975091323366097,0.120299985,-0.866880105,0.492003135,-3.83026,-72.42396,53.80676,69.0
1774823140.4164767,9.775161743164062e-06,2026-03-29T22:25:40.416,2026-03-29T18:25:40.416,-33720.479999999996,-43910.145,-83366.09999999999,-50240.295,-12019.095,-17325.045,5763.105,-69825.15,-7.631746339589591,-3.419888103129703,6.732352755876525,6.441404816345861,7.783958146996499,5.3420285230784295,-3.163259966583705,-10.20500591202788,0.120299985,-0.866880105,0.492003135,-3.83026,-72.42396,53.80676,69.0
1774823140.4204607,0.003983974456787109,2026-03-29T22:25:40.420,2026-03-29T18:25:40.420,-33701.895,-43917.84,-83368.62,-50236.02,-12022.47,-17318.88,5774.76,-69792.61499999999,-7.883608334269396,-4.966949499179653,5.019961424942386,4.27036283571212,4.664347196161321,6.005950411922024,-0.6039003807765202,-9.376426983346008,0.120299985,-0.866880105,0.492003135,-3.83026,-72.42396,53.80676,69.0
1774823140.420479,1.8358230590820312e-05,2026-03-29T22:25:40.420,2026-03-29T18:25:40.420,-33750.18,-43916.445,-83364.03,-50234.22,-12026.07,-17319.645,5769.585,-69817.36499999999,-4.871915080029072,-4.509501476332906,1.0336153965684491,0.38921594842080337,-0.3881938570175117,4.034131003266272,1.9369193854336946,-4.636690691574678,0.120299985,-0.866880105,0.492003135,-3.83026,-72.42396,53.80676,69.0
1774823140.4245377,0.0040585994720458984,2026-03-29T22:25:40.424,2026-03-29T18:25:40.424,-33744.24,-43912.619999999995,-83376.765,-50250.015,-12038.355,-17336.385,5756.445,-69825.23999999999,0.20521107865117777,-2.334874290699373,-3.715313350757091,-3.906502164488688,-5.431597611541114,0.1379657084615652,3.4455506340355107,2.2311905687231093,0.120299985,-0.866880105,0.492003135,-3.83026,-72.42396,53.80676,69.0
1774823140.4245656,2.7894973754882812e-05,2026-03-29T22:25:40.424,2026-03-29T18:25:40.424,-33731.729999999996,-43914.555,-83370.42,-50238.81,-12024.585,-17326.845,5755.275,-69807.42,5.279384082162086,0.6386598575155361,-7.235662692452625,-7.0298330713888175,-8.461340062660325,-4.056554500239677,3.4552904658972885,8.463689542034656,0.120299985,-0.866880105,0.492003135,-3.83026,-72.42396,53.80676,69.0
1774823140.4321008,0.007535219192504883,2026-03-29T22:25:40.432,2026-03-29T18:25:40.432,-33693.57,-43906.14,-83377.26,-50249.88,-12037.59,-17341.649999999998,5756.085,-69761.295,8.25325632704975,3.2418543364472363,-7.903362771896085,-7.671917769552643,-8.20700332909515,-6.696103032225554,2.155072053093404,11.425816683591316,0.120299985,-0.866880105,0.492003135,-3.83026,-72.42396,53.80676,69.0
1774823140.4321241,2.3365020751953125e-05,2026-03-29T22:25:40.432,2026-03-29T18:25:40.432,-33714.27,-43908.705,-83367.62999999999,-50239.799999999996,-12031.109999999999,-17335.44,5763.915,-69780.78,7.864184280747475,4.499530072680548,-5.222195787058537,-5.354629403853928,-4.667435374338535,-6.526025210479996,0.20999962156089988,9.731200335894757,0.120299985,-0.866880105,0.492003135,-3.83026,-72.42396,53.80676,69.0
1774823140.434356,0.0022318363189697266,2026-03-29T22:25:40.434,2026-03-29T18:25:40.434,-33757.83,-43907.04,-83348.45999999999,-50217.57,-12009.555,-17315.73,5768.1449999999995,-69827.265,4.216819398506397,3.980059988904983,-0.137056827206484,-0.7312364111065612,0.8418859400632355,-3.4833438670098036,-1.5790414013514726,3.894396761131653,0.120299985,-0.866880105,0.492003135,-3.83026,-72.42396,53.80676,69.0
1774823140.4343722,1.621246337890625e-05,2026-03-29T22:25:40.434,2026-03-29T18:25:40.434,-33769.979999999996,-43901.325,-83328.84,-50193.405,-11984.13,-17293.995,5770.844999999999,-69852.735,-1.2379334069392658,1.93363330702618,5.283318273870422,4.539574467686221,6.169609333332749,1.222373327820755,-2.6025887651255606,-3.7934480477335395,0.120299985,-0.866880105,0.492003135,-3.83026,-72.42396,53.80676,69.0
1774823140.4365344,0.0021622180938720703,2026-03-29T22:25:40.436,2026-03-29T18:25:40.436,-33750.315,-43911.18,-83342.52,-50204.115,-11994.255,-17311.14,5737.815,-69824.88,-6.277503650563502,-0.8191654792508851,8.696491844238002,8.363514282496013,9.165776739181883,5.595792898727681,-2.624577087571356,-10.15721089449208,0.116393745,-0.85778589,0.494932815,-7.63,-71.21842,59.65134,69.0
1774823140.4365504,1.5974044799804688e-05,2026-03-29T22:25:40.436,2026-03-29T18:25:40.436,-33739.604999999996,-43914.78,-83352.645,-50214.555,-12007.664999999999,-17339.355,5723.73,-69807.825,-8.809866569256922,-3.2027301330849864,8.515781535422086,9.04315502738849,8.551238648956602,7.71061504050907,-1.7813799255693339,-12.455095384118412,0.116393745,-0.85778589,0.494932815,-7.63,-71.21842,59.65134,69.0
1774823140.440537,0.0039865970611572266,2026-03-29T22:25:40.440,2026-03-29T18:25:40.440,-33735.284999999996,-43903.08,-83352.95999999999,-50219.055,-12015.945,-17347.23,5735.969999999999,-69806.47499999999,-7.739457637451179,-4.29261375787976,4.658678743742118,6.042313701793164,4.467000205978299,6.56175492073288,-0.45009523900532034,-9.57155050748599,0.116393745,-0.85778589,0.494932815,-7.63,-71.21842,59.65134,69.0
1774823140.4405522,1.52587890625e-05,2026-03-29T22:25:40.440,2026-03-29T18:25:40.440,-33735.06,-43897.455,-83354.58,-50228.46,-12027.645,-17343.27,5769.09,-69814.44,-3.4401861644933875,-3.6675532459356033,-1.3434553241049545,0.3332462668016588,-1.5336771464769523,2.536240153303815,0.9205672095072464,-2.5611825675610067,0.116393745,-0.85778589,0.494932815,-7.63,-71.21842,59.65134,69.0
1774823140.444978,0.004425764083862305,2026-03-29T22:25:40.444,2026-03-29T18:25:40.444,-33734.475,-43919.055,-83372.22,-50239.259999999995,-12030.795,-17334.989999999998,5794.605,-69787.89,2.3680634014907005,-1.577092759157366,-6.9564880623602185,-5.879212576596509,-7.06968380481746,-2.7148611377127607,1.9408826981526488,5.723078578942286,0.116393745,-0.85778589,0.494932815,-7.63,-71.21842,59.65134,69.0
1774823140.4449928,1.4781951904296875e-05,2026-03-29T22:25:40.444,2026-03-29T18:25:40.444,-33711.165,-43920.045,-83396.16,-50274.54,-12067.92,-17363.34,5776.2,-69749.73,7.302792417451407,1.1447828567635354,-9.72993530380114,-10.002869558040679,-9.876282807525792,-6.960924398637082,2.3477713183017075,11.79468706358726,0.116393745,-0.85778589,0.494932815,-7.63,-71.21842,59.65134,69.0
1774823140.451118,0.006125211715698242,2026-03-29T22:25:40.451,2026-03-29T18:25:40.451,-33700.005,-43913.744999999995,-83395.26,-50275.034999999996,-12066.885,-17358.255,5760.719999999999,-69739.425,9.29351554022241,3.398437298698123,-8.38511937501898,-10.152326394231828,-8.735223516211594,-8.344922584231945,2.030834051920975,13.014116729908256,0.116393745,-0.85778589,0.494932815,-7.63,-71.21842,59.65134,69.0
1774823140.4511433,2.5272369384765625e-05,2026-03-29T22:25:40.451,2026-03-29T18:25:40.451,-33717.24,-43908.075,-83369.655,-50242.229999999996,-12032.865,-17327.745,5760.2699999999995,-69764.985,7.450894942017959,4.256199945251582,-3.4134703543149687,-6.024340981318585,-4.0073459603401735,-6.195439880935942,1.0490844262380672,8.750258528214731,0.116393745,-0.85778589,0.494932815,-7.63,-71.21842,59.65134,69.0
1774823140.4511676,2.4318695068359375e-05,2026-03-29T22:25:40.451,2026-03-29T18:25:40.451,-33752.655,-43902.99,-83333.925,-50197.725,-11989.619999999999,-17294.355,5766.705,-69813.81,2.4656930406585063,3.3485158676031417,3.0987680216878863,0.8579383501126265,2.466641002815169,-1.3430087275102145,-0.3540640712995705,0.7047522776406706,0.116393745,-0.85778589,0.494932815,-7.63,-71.21842,59.65134,69.0
1774823140.4511793,1.1682510375976562e-05,2026-03-29T22:25:40.451,2026-03-29T18:25:40.451,-33752.295,-43912.935,-83348.09999999999,-50211.405,-12001.949999999999,-17304.48,5765.8949999999995,-69814.44,-3.6422886903957523,1.0356304035853916,8.3591283617614,7.69197089920236,8.078806342614456,4.204187446578848,-1.7651460830030428,-7.767011394060901,0.116393745,-0.85778589,0.494932815,-7.63,-71.21842,59.65134,69.0
1774823140.4564357,0.0052564144134521484,2026-03-29T22:25:40.456,2026-03-29T18:25:40.456,-33741.854999999996,-43921.17,-83368.75499999999,-50235.39,-12027.779999999999,-17327.16,5758.38,-69795.045,-8.338739964588548,-1.7209125187250167,10.086021046718958,11.54605309310663,10.506275037647564,8.096148855585543,-2.6841353706596345,-13.067616494192318,0.11340303,-0.85241481,0.49462764000000004,-8.8508,-71.7983,63.023799999999994,69.0
1774823140.456456,2.0265579223632812e-05,2026-03-29T22:25:40.456,2026-03-29T18:25:40.456,-33759.72,-43921.979999999996,-83364.25499999999,-50228.189999999995,-12020.265,-17315.505,5760.2699999999995,-69823.395,-9.626861661225394,-3.750087282030896,7.514682252291015,10.636410850457942,8.678026252059583,8.638296939117062,-2.6884761126931513,-12.90212807628871,0.11340303,-0.85241481,0.49462764000000004,-8.8508,-71.7983,63.023799999999994,69.0
1774823140.4602268,0.0037708282470703125,2026-03-29T22:25:40.460,2026-03-29T18:25:40.460,-33743.924999999996,-43916.895,-83360.97,-50226.345,-12018.24,-17312.535,5777.594999999999,-69807.23999999999,-6.900352460614629,-4.1712916724906,1.7409343385246767,5.165734652404187,3.2516303699811577,5.526687388984615,-1.6318375829680356,-7.28395768161676,0.11340303,-0.85241481,0.49462764000000004,-8.8508,-71.7983,63.023799999999994,69.0
1774823140.4602475,2.0742416381835938e-05,2026-03-29T22:25:40.460,2026-03-29T18:25:40.460,-33743.835,-43930.53,-83362.275,-50224.5,-12017.835,-17316.63,5774.8949999999995,-69793.155,-1.2311351809673583,-2.7876980419686945,-4.754013497356503,-2.6767661802242158,-3.613949653394614,0.004096224409669217,0.21789101912126443,1.4448442412970228,0.11340303,-0.85241481,0.49462764000000004,-8.8508,-71.7983,63.023799999999994,69.0
1774823140.4648716,0.004624128341674805,2026-03-29T22:25:40.464,2026-03-29T18:25:40.464,-33752.835,-43938.63,-83370.735,-50231.744999999995,-12024.18,-17321.13,5772.735,-69778.53,5.045993479191314,-0.19178463913137328,-9.187745405853473,-9.594955573241108,-9.116060916537059,-5.6382674300197095,2.199805771726425,9.599718904363398,0.11340303,-0.85241481,0.49462764000000004,-8.8508,-71.7983,63.023799999999994,69.0
1774823140.4648876,1.5974044799804688e-05,2026-03-29T22:25:40.464,2026-03-29T18:25:40.464,-33726.465,-43916.04,-83380.72499999999,-50249.475,-12039.435,-17336.34,5761.17,-69765.435,9.294492974573457,2.4786401936092894,-9.687673222988677,-12.589937264547132,-10.956680126890008,-9.012509851617521,3.479093334078103,13.726120846089678,0.11340303,-0.85241481,0.49462764000000004,-8.8508,-71.7983,63.023799999999994,69.0
1774823140.4687712,0.0038836002349853516,2026-03-29T22:25:40.468,2026-03-29T18:25:40.468,-33701.13,-43904.52,-83382.61499999999,-50255.909999999996,-12047.715,-17349.03,5758.155,-69755.48999999999,9.68794362989939,4.03864791673155,-6.092899421377845,-10.281582503180262,-8.309145222059561,-8.643841079594596,3.4018608759436346,12.078777380392946,0.11340303,-0.85241481,0.49462764000000004,-8.8508,-71.7983,63.023799999999994,69.0
1774823140.4688017,3.0517578125e-05,2026-03-29T22:25:40.468,2026-03-29T18:25:40.468,-33684.84,-43921.215,-83405.52,-50281.515,-12076.83,-17379.18,5750.73,-69718.815,6.001724986974234,3.7906199007749075,0.0016464199512556343,-3.554926381795889,-2.1936106443608256,-4.612540100572017,1.8333583826598336,5.366372571295581,0.11340303,-0.85241481,0.49462764000000004,-8.8508,-71.7983,63.023799999999994,69.0
1774823140.5228052,0.05400347709655762,2026-03-29T22:25:40.522,2026-03-29T18:25:40.522,-33729.57,-43922.88,-83375.595,-50241.689999999995,-12038.85,-17336.34,5754.195,-69770.79,-0.261885614074412,1.8495237510283034,5.965939150297305,4.775988142759752,4.9110309230098785,1.449553884912839,-0.6968155000300068,-3.5593520918615664,0.11340303,-0.85241481,0.49462764000000004,-8.8508,-71.7983,63.023799999999994,69.0
1774823140.52282,1.4781951904296875e-05,2026-03-29T22:25:40.522,2026-03-29T18:25:40.522,-33769.395,-43916.04,-83343.69,-50200.784999999996,-11997.99,-17291.204999999998,5774.445,-69835.68,-6.483860062606441,-0.898896168925377,9.288786009627936,11.160852672222306,10.073820358594887,7.018506732407355,-3.1505160118253035,-10.930743212238154,0.11340303,-0.85241481,0.49462764000000004,-8.8508,-71.7983,63.023799999999994,69.0
1774823140.522833,1.3113021850585938e-05,2026-03-29T22:25:40.522,2026-03-29T18:25:40.522,-33742.53,-43920.18,-83356.11,-50209.47,-12007.574999999999,-17296.875,5778.179999999999,-69811.785,-10.027351637145372,-3.198038428412035,8.649752871062109,12.849300011257949,11.127502221316663,9.728050065174479,-4.407152467377767,-13.671782369578963,0.105285375,-0.84802029,0.488951385,-2.79258,-75.4607,65.84689999999999,69.0
1774823140.5228376,4.5299530029296875e-06,2026-03-29T22:25:40.522,2026-03-29T18:25:40.522,-33751.619999999995,-43934.715,-83361.465,-50209.47,-12006.539999999999,-17298.765,5764.995,-69795.675,-9.362535545179366,-3.999615376694948,4.444489705653121,9.09468374975724,7.586130335662928,8.374268507143402,-3.7853214616286146,-10.691516755140857,0.105285375,-0.84802029,0.488951385,-2.79258,-75.4607,65.84689999999999,69.0
1774823140.522843,5.245208740234375e-06,2026-03-29T22:25:40.522,2026-03-29T18:25:40.522,-33765.479999999996,-43932.104999999996,-83371.05,-50221.485,-12016.619999999999,-17308.755,5741.505,-69802.83,-4.733869213719468,-2.952617187399629,-1.4458241258996614,1.4894752585565882,0.8724467051674364,3.449725627334828,-1.4126413236457147,-3.314567321952416,0.105285375,-0.84802029,0.488951385,-2.79258,-75.4607,65.84689999999999,69.0
1774823140.5228472,4.291534423828125e-06,2026-03-29T22:25:40.522,2026-03-29T18:25:40.522,-33741.72,-43922.159999999996,-83385.45,-50247.854999999996,-12040.965,-17329.995,5736.105,-69794.01,1.9246648491015519,-0.5687139401609465,-6.51134315857562,-6.720797835596054,-6.252678506566551,-3.029255138562644,1.756843775807744,5.319012317653622,0.105285375,-0.84802029,0.488951385,-2.79258,-75.4607,65.84689999999999,69.0
1774823140.522852,4.76837158203125e-06,2026-03-29T22:25:40.522,2026-03-29T18:25:40.522,-33734.43,-43919.055,-83386.935,-50256.585,-12045.465,-17331.3,5753.205,-69787.17,7.8000666335289415,2.0193138408200633,-8.699405775429554,-12.044253770729858,-10.830518719844447,-8.34516370907805,4.322932476677288,11.607050099752,0.105285375,-0.84802029,0.488951385,-2.79258,-75.4607,65.84689999999999,69.0
1774823140.5228555,3.5762786865234375e-06,2026-03-29T22:25:40.522,2026-03-29T18:25:40.522,-33725.205,-43909.74,-83380.36499999999,-50256.54,-12048.975,-17331.84,5777.775,-69779.205,10.39571683841345,3.5952682458822736,-7.25167270554153,-12.249710896742263,-10.941247445747898,-10.218212247878691,5.067715793582987,13.000013010465683,0.105285375,-0.84802029,0.488951385,-2.79258,-75.4607,65.84689999999999,69.0
1774823140.5228603,4.76837158203125e-06,2026-03-29T22:25:40.522,2026-03-29T18:25:40.522,-33727.77,-43911.99,-83377.75499999999,-50255.325,-12048.93,-17331.03,5782.635,-69778.665,8.600149054516159,3.43781164980461,-2.9483968492113766,-7.312950265783107,-6.516405860432356,-7.7854458552994155,3.5454524634602786,9.034208356082893,0.105285375,-0.84802029,0.488951385,-2.79258,-75.4607,65.84689999999999,69.0
1774823140.5228639,3.5762786865234375e-06,2026-03-29T22:25:40.522,2026-03-29T18:25:40.522,-33723.765,-43912.755,-83370.465,-50245.965,-12040.695,-17323.38,5771.429999999999,-69780.42,3.1677071304147573,1.6609425583428876,2.3078836219826364,0.6045675862262868,0.6201495170059701,-1.999427046905777,0.3428682780895343,1.4651878782042682,0.105285375,-0.84802029,0.488951385,-2.79258,-75.4607,65.84689999999999,69.0
1774823140.5228689,5.0067901611328125e-06,2026-03-29T22:25:40.522,2026-03-29T18:25:40.522,-33712.335,-43914.42,-83364.39,-50234.354999999996,-12035.34,-17317.62,5779.53,-69776.055,-3.599084578855345,-0.8488394657220166,6.348668403524171,8.11937023274384,7.506506330076801,4.738107271919737,-3.1394857445036,-6.523123404643993,0.105285375,-0.84802029,0.488951385,-2.79258,-75.4607,65.84689999999999,69.0
1774823140.5228724,3.5762786865234375e-06,2026-03-29T22:25:40.522,2026-03-29T18:25:40.522,-33740.549999999996,-43923.465,-83355.84,-50219.369999999995,-12021.435,-17301.69,5784.57,-69776.415,-8.831240488159867,-2.868715498135346,7.643241025200894,12.093951372034502,11.278963934687194,9.570548105467086,-5.307925171847301,-11.670427741657484,0.105285375,-0.84802029,0.488951385,-2.79258,-75.4607,65.84689999999999,69.0
1774823140.522877,4.5299530029296875e-06,2026-03-29T22:25:40.522,2026-03-29T18:25:40.522,-33751.08,-43921.125,-83361.555,-50231.43,-12033.225,-17312.76,5768.73,-69772.995,-10.317519944284822,-3.436303144789619,5.868505854166991,10.961229446495924,10.370913861998195,10.398983183524724,-5.119362718726005,-11.97250503222055,0.10229466,-0.8483254650000001,0.486021705,6.60758,-79.45882,67.32712,69.0
1774823140.5228803,3.337860107421875e-06,2026-03-29T22:25:40.522,2026-03-29T18:25:40.522,-33733.17,-43919.909999999996,-83368.575,-50235.255,-12034.755,-17310.96,5760.09,-69767.055,-7.444763759177064,-2.3147212734565414,1.9381342258473622,5.339132427985866,5.168618439507793,6.798245675358705,-2.5942175034500057,-7.448683713541614,0.10229466,-0.8483254650000001,0.486021705,6.60758,-79.45882,67.32712,69.0
1774823140.522885,4.76837158203125e-06,2026-03-29T22:25:40.522,2026-03-29T18:25:40.522,-33719.534999999996,-43902.314999999995,-83362.635,-50229.63,-12030.795,-17303.94,5786.099999999999,-69777.72,-1.4516185691851329,-0.09806976842804827,-2.469053419186076,-2.3037612686902307,-2.1529845373918066,0.23487147587306645,1.158703843487977,-0.05786519516122176,0.10229466,-0.8483254650000001,0.486021705,6.60758,-79.45882,67.32712,69.0
1774823140.522889,3.814697265625e-06,2026-03-29T22:25:40.522,2026-03-29T18:25:40.522,-33743.43,-43917.255,-83369.34,-50235.84,-12036.779999999999,-17311.14,5785.83,-69794.09999999999,5.109547146134797,2.093040673168575,-5.637409371891833,-8.751423904199317,-8.54447864978634,-6.52463771058533,4.434722344607071,7.161755269987102,0.10229466,-0.8483254650000001,0.486021705,6.60758,-79.45882,67.32712,69.0
1774823140.5228932,4.291534423828125e-06,2026-03-29T22:25:40.522,2026-03-29T18:25:40.522,-33742.619999999995,-43929.18,-83385.135,-50251.049999999996,-12050.82,-17327.565,5769.135,-69779.7,9.46654037661176,3.1731631190277123,-6.477857913166868,-11.409891177272014,-11.359332696980118,-10.57977225355119,5.721730958376923,11.345201554981786,0.10229466,-0.8483254650000001,0.486021705,6.60758,-79.45882,67.32712,69.0
1774823140.5228968,3.5762786865234375e-06,2026-03-29T22:25:40.522,2026-03-29T18:25:40.522,-33734.655,-43931.564999999995,-83395.75499999999,-50263.2,-12062.52,-17338.005,5772.554999999999,-69757.65,9.804602768826317,2.630623965727409,-4.872000223517319,-9.351637738880857,-9.455750742697868,-10.145407997499175,4.413120912599769,10.927115307050641,0.10229466,-0.8483254650000001,0.486021705,6.60758,-79.45882,67.32712,69.0
1774823140.5229023,5.4836273193359375e-06,2026-03-29T22:25:40.522,2026-03-29T18:25:40.522,-33726.015,-43934.58,-83406.105,-50275.395,-12078.09,-17357.265,5761.62,-69743.34,6.024091284496613,0.7749270457099687,-1.6063289785104375,-3.614045574296954,-3.661455288296678,-5.344562911456252,1.1019599026218319,6.205036431564835,0.10229466,-0.8483254650000001,0.486021705,6.60758,-79.45882,67.32712,69.0
1774823140.5229056,3.337860107421875e-06,2026-03-29T22:25:40.522,2026-03-29T18:25:40.522,-33736.905,-43936.29,-83399.31,-50266.575,-12072.33,-17360.055,5749.11,-69754.815,-0.2384555998777495,-1.4289907042431982,2.0182017598202897,3.3284691972201217,3.58832878721947,1.8106399216634772,-2.6900310622592145,-0.849799628634576,0.10229466,-0.8483254650000001,0.486021705,6.60758,-79.45882,67.32712,69.0
1774823140.5229108,5.245208740234375e-06,2026-03-29T22:25:40.522,2026-03-29T18:25:40.522,-33752.25,-43933.14,-83384.09999999999,-50249.384999999995,-12056.805,-17347.635,5736.51,-69789.23999999999,-6.324074326586291,-2.8542774244319418,4.704978305026912,8.6475423565117,9.279983129354365,8.259518738669597,-5.223762915941814,-7.420375879259005,0.10229466,-0.8483254650000001,0.486021705,6.60758,-79.45882,67.32712,69.0
1774823140.5229144,3.5762786865234375e-06,2026-03-29T22:25:40.522,2026-03-29T18:25:40.522,-33772.229999999996,-43937.729999999996,-83378.52,-50239.845,-12046.635,-17331.21,5728.545,-69820.155,-9.68571344576563,-2.783649077727982,5.601367690891726,10.316910855778577,11.079812888236575,11.205528061571679,-5.356096135950933,-10.959848534721237,0.10229466,-0.8483254650000001,0.486021705,6.60758,-79.45882,67.32712,69.0
1774823140.5229192,4.76837158203125e-06,2026-03-29T22:25:40.522,2026-03-29T18:25:40.522,-33761.97,-43925.58,-83364.97499999999,-50227.2,-12032.369999999999,-17304.165,5747.3099999999995,-69807.23999999999,-8.956417148100401,-1.2702831610923975,4.523940793757296,7.866891489390018,8.293411023640274,9.336788839580437,-3.067245547364037,-10.158176739067326,0.10436985,-0.851743425,0.48303099,11.8265,-81.74781999999999,71.81356,69.0
1774823140.5229228,3.5762786865234375e-06,2026-03-29T22:25:40.522,2026-03-29T18:25:40.522,-33750.945,-43930.395,-83376.855,-50244.93,-12053.295,-17324.055,5767.469999999999,-69772.005,-4.502465245445844,0.8937412652489153,1.939617545190154,2.4663643294878423,2.130712373357718,3.4182628878670975,0.5467335935785493,-5.404276006928001,0.10436985,-0.851743425,0.48303099,11.8265,-81.74781999999999,71.81356,69.0
1774823140.5229273,4.5299530029296875e-06,2026-03-29T22:25:40.522,2026-03-29T18:25:40.522,-33746.354999999996,-43934.265,-83390.08499999999,-50262.165,-12068.414999999999,-17337.78,5787.224999999999,-69763.59,1.7605404359749388,2.584757225764621,-1.2409641272243828,-3.643591914342553,-4.822500257738752,-4.015346288269225,3.8061481544757068,1.4055256438780628,0.10436985,-0.851743425,0.48303099,11.8265,-81.74781999999999,71.81356,69.0
1774823140.5229309,3.5762786865234375e-06,2026-03-29T22:25:40.522,2026-03-29T18:25:40.522,-33746.715,-43926.57,-83374.245,-50245.47,-12052.17,-17317.89,5791.32,-69774.3,7.19582183068882,2.923538761486065,-3.963932932285462,-8.085550855438452,-9.693833661637727,-9.746019342383654,5.242567872588591,7.616580774706666,0.10436985,-0.851743425,0.48303099,11.8265,-81.74781999999999,71.81356,69.0
1774823140.5275242,0.004593372344970703,2026-03-29T22:25:40.527,2026-03-29T18:25:40.527,-33737.49,-43921.17,-83365.515,-50234.354999999996,-12039.074999999999,-17301.285,5783.355,-69768.765,9.557410359106225,1.7271428243161706,-5.339017458757101,-9.256974781226875,-10.513125200787034,-11.272310811612666,4.273358356699323,10.830297750382668,0.10436985,-0.851743425,0.48303099,11.8265,-81.74781999999999,71.81356,69.0
1774823140.5275412,1.6927719116210938e-05,2026-03-29T22:25:40.527,2026-03-29T18:25:40.527,-33740.01,-43927.244999999995,-83359.845,-50224.68,-12027.42,-17291.52,5783.985,-69769.44,7.916152041245344,-0.3939883023168449,-4.890036821476504,-6.875302472048686,-7.007897857005223,-7.9106866563345415,1.4396015070159798,9.807634172387143,0.10436985,-0.851743425,0.48303099,11.8265,-81.74781999999999,71.81356,69.0
1774823140.5275557,1.4543533325195312e-05,2026-03-29T22:25:40.527,2026-03-29T18:25:40.527,-33758.909999999996,-43948.17,-83374.33499999999,-50235.345,-12037.455,-17303.67,5781.96,-69757.47,3.019397009503275,-2.344722865951946,-2.7049320140725066,-1.9915838879730399,-0.6854456811190883,-1.1090951836031708,-1.8906360087457297,4.9346499163898665,0.10436985,-0.851743425,0.48303099,11.8265,-81.74781999999999,71.81356,69.0
1774823140.5275629,7.152557373046875e-06,2026-03-29T22:25:40.527,2026-03-29T18:25:40.527,-33742.44,-43936.424999999996,-83386.53,-50253.93,-12058.38,-17325.0,5763.915,-69735.15,-3.0512073105169755,-3.1046072778551896,0.5523055603585798,3.4791918166281954,5.817535438952012,6.174340432099531,-4.192617429311657,-1.917298333404284,0.10436985,-0.851743425,0.48303099,11.8265,-81.74781999999999,71.81356,69.0
1774823140.5324702,0.004907369613647461,2026-03-29T22:25:40.532,2026-03-29T18:25:40.532,-33725.744999999995,-43917.659999999996,-83383.37999999999,-50254.875,-12060.045,-17326.89,5751.045,-69747.12,-7.765819251211052,-2.254241574496847,3.796344474123192,7.4978019693739935,9.83561976083064,10.762107686915005,-4.495591791318778,-8.088968918190256,0.10436985,-0.851743425,0.48303099,11.8265,-81.74781999999999,71.81356,69.0
1774823140.5324907,2.0503997802734375e-05,2026-03-29T22:25:40.532,2026-03-29T18:25:40.532,-33739.515,-43915.725,-83370.915,-50239.979999999996,-12044.88,-17311.005,5765.175,-69774.3,-9.198577405641348,-0.19965249178038946,5.838070912380829,8.630861518151947,9.765613303432456,10.652418465299863,-2.7963585077471977,-11.140213490464008,0.10436985,-0.851743425,0.48303099,11.8265,-81.74781999999999,71.81356,69.0
1774823140.5368447,0.004354000091552734,2026-03-29T22:25:40.536,2026-03-29T18:25:40.536,-33747.39,-43921.08,-83364.885,-50231.655,-12037.59,-17306.774999999998,5782.86,-69773.625,-6.809636114653528,2.023050314844873,5.8001385890774735,6.527618361976681,5.702488494912296,5.902081052455034,0.0026303946056832153,-9.799580577886221,0.098205315,-0.860166255,0.47918578500000003,13.8866,-84.17416,77.09352,69.0
1774823140.5368576,1.2874603271484375e-05,2026-03-29T22:25:40.536,2026-03-29T18:25:40.536,-33753.015,-43934.354999999996,-83377.89,-50245.424999999996,-12055.455,-17335.44,5778.315,-69756.525,-1.6424250886207215,3.268191945647318,3.4975133482069927,2.0063067171353723,-0.6293690671200072,-1.3965081617863384,2.571864679660577,-4.496002511566937,0.098205315,-0.860166255,0.47918578500000003,13.8866,-84.17416,77.09352,69.0
1774823140.5439782,0.007120609283447266,2026-03-29T22:25:40.543,2026-03-29T18:25:40.543,-33749.595,-43928.595,-83385.675,-50258.7,-12076.244999999999,-17368.695,5767.5599999999995,-69757.02,4.13214630664993,2.865423791046517,-0.38323865217686415,-3.2554098082170726,-6.607278254765513,-8.03753541281233,3.796041128674665,2.75004777113919,0.098205315,-0.860166255,0.47918578500000003,13.8866,-84.17416,77.09352,69.0
1774823140.5439956,1.7404556274414062e-05,2026-03-29T22:25:40.543,2026-03-29T18:25:40.543,-33745.815,-43931.07,-83393.595,-50265.99,-12081.824999999999,-17362.53,5757.615,-69764.895,8.12523680333236,0.9723887579361081,-4.432466026480257,-7.3134028267087094,-9.79384564568212,-11.116365788321074,3.263842186706116,9.067598434035501,0.098205315,-0.860166255,0.47918578500000003,13.8866,-84.17416,77.09352,69.0
1774823140.5440118,1.621246337890625e-05,2026-03-29T22:25:40.544,2026-03-29T18:25:40.544,-33734.52,-43933.77,-83393.28,-50262.884999999995,-12074.625,-17342.235,5754.87,-69748.69499999999,8.713811236392282,-1.4875366136781023,-7.0016216564961935,-8.64136886162678,-8.926995567566342,-9.309410492570064,1.3882239165231056,11.853243712936363,0.098205315,-0.860166255,0.47918578500000003,13.8866,-84.17416,77.09352,69.0
1774823140.5440183,6.4373016357421875e-06,2026-03-29T22:25:40.544,2026-03-29T18:25:40.544,-33733.034999999996,-43941.6,-83399.04,-50266.619999999995,-12074.445,-17332.065,5752.08,-69742.08,5.696239238016927,-3.277581641666993,-6.873502278981573,-6.686140150712076,-4.416921511757206,-3.451114741625446,-0.8660921157339466,9.842095271607654,0.098205315,-0.860166255,0.47918578500000003,13.8866,-84.17416,77.09352,69.0
1774823140.5600111,0.01599287986755371,2026-03-29T22:25:40.560,2026-03-29T18:25:40.560,-33757.335,-43937.055,-83382.3,-50245.83,-12050.234999999999,-17303.399999999998,5764.815,-69778.62,0.35750447287691434,-3.467671378161618,-3.8471011522392606,-2.1034346191943234,1.8435205909678072,3.8469945492027136,-2.4810435530156494,3.6927997208600902,0.098205315,-0.860166255,0.47918578500000003,13.8866,-84.17416,77.09352,69.0
1774823140.560037,2.574920654296875e-05,2026-03-29T22:25:40.560,2026-03-29T18:25:40.560,-33767.325,-43935.705,-83377.215,-50234.85,-12032.595,-17283.87,5772.42,-69784.56,-5.074828162567868,-1.9120272144646075,1.0470884201019384,3.4285808399721454,7.2686043073886095,9.362899620704392,-2.8505879443802398,-4.188358742049978,0.098205315,-0.860166255,0.47918578500000003,13.8866,-84.17416,77.09352,69.0
1774823140.5600843,4.744529724121094e-05,2026-03-29T22:25:40.560,2026-03-29T18:25:40.560,-33764.265,-43934.31,-83378.565,-50232.24,-12028.59,-17284.095,5769.2699999999995,-69783.525,-8.35528331337412,0.6588989732105404,5.858966724780114,7.787115379007759,9.642570370612972,10.694027639526018,-1.9973242316983426,-10.564405144795684,0.098205315,-0.860166255,0.47918578500000003,13.8866,-84.17416,77.09352,69.0
1774823140.560093,8.58306884765625e-06,2026-03-29T22:25:40.560,2026-03-29T18:25:40.560,-33749.28,-43931.43,-83383.02,-50244.075,-12045.914999999999,-17300.475,5768.73,-69768.63,-8.144819494286212,2.985232034475093,8.488307561258484,9.197436648492756,8.021864170449952,7.312680849668934,-0.4694915681094686,-12.690548943358081,0.098205315,-0.860166255,0.47918578500000003,13.8866,-84.17416,77.09352,69.0
1774823140.560105,1.2159347534179688e-05,2026-03-29T22:25:40.560,2026-03-29T18:25:40.560,-33737.534999999996,-43932.104999999996,-83382.345,-50258.205,-12069.9,-17322.975,5764.1849999999995,-69749.37,-4.5567598173526065,3.897039624329826,7.61276147450939,6.957531395874335,3.111594476078235,0.7794967017254828,0.9887086935685411,-9.506591637332466,0.088561785,-0.87902607,0.478331295,16.28242,-86.34107999999999,76.3,69.0
1774823140.5601113,6.198883056640625e-06,2026-03-29T22:25:40.560,2026-03-29T18:25:40.560,-33733.034999999996,-43929.45,-83377.665,-50257.305,-12074.31,-17334.315,5756.625,-69741.45,0.897751445413649,2.9010603024419273,3.359350938233392,1.798429721107147,-3.0342481631095843,-5.973504111726214,1.8023307160559012,-2.176056976270536,0.088561785,-0.87902607,0.478331295,16.28242,-86.34107999999999,76.3,69.0
1774823140.560119,7.62939453125e-06,2026-03-29T22:25:40.560,2026-03-29T18:25:40.560,-33753.915,-43936.02,-83378.43,-50250.465,-12063.779999999999,-17323.245,5762.07,-69766.83,5.940852667832679,0.44122700929326186,-2.62377972449714,-4.308502523316283,-7.864573876790705,-9.962127862954686,1.7855359152913093,6.305885557415844,0.088561785,-0.87902607,0.478331295,16.28242,-86.34107999999999,76.3,69.0
1774823140.5601249,5.9604644775390625e-06,2026-03-29T22:25:40.560,2026-03-29T18:25:40.560,-33761.565,-43937.415,-83378.43,-50248.08,-12056.85,-17309.7,5775.4349999999995,-69775.92,8.475168114176835,-2.302353889003451,-7.790606624418565,-8.878408423550631,-9.385983725021184,-9.476535871368194,1.1359440056055354,12.324209439610678,0.088561785,-0.87902607,0.478331295,16.28242,-86.34107999999999,76.3,69.0
1774823140.571592,0.011467218399047852,2026-03-29T22:25:40.571,2026-03-29T18:25:40.571,-33752.205,-43937.729999999996,-83385.54,-50254.695,-12062.789999999999,-17312.309999999998,5776.335,-69752.52,7.455765948880158,-3.983609986068996,-9.788768008500782,-9.921806781673471,-6.987381101393742,-4.822247567052865,0.250979659426744,13.192375010968231,0.088561785,-0.87902607,0.478331295,16.28242,-86.34107999999999,76.3,69.0
1774823140.5716124,2.0265579223632812e-05,2026-03-29T22:25:40.571,2026-03-29T18:25:40.571,-33747.705,-43938.854999999996,-83388.555,-50255.055,-12063.465,-17312.85,5781.105,-69734.295,3.324764338018208,-3.7528329368706363,-7.547854646760534,-6.827738126658218,-1.6929828097838917,1.848938066698402,-0.5029997646488574,8.370818136414929,0.088561785,-0.87902607,0.478331295,16.28242,-86.34107999999999,76.3,69.0
1774823140.5716305,1.811981201171875e-05,2026-03-29T22:25:40.571,2026-03-29T18:25:40.571,-33753.869999999995,-43948.755,-83395.75499999999,-50265.18,-12074.22,-17319.465,5777.594999999999,-69730.245,-2.1742551479862056,-1.6845701516231821,-1.853283477706006,-0.7212500921784638,4.264799071722733,7.53085073251441,-0.9384275849962471,-0.205949761650023,0.088561785,-0.87902607,0.478331295,16.28242,-86.34107999999999,76.3,69.0
1774823140.5716372,6.67572021484375e-06,2026-03-29T22:25:40.571,2026-03-29T18:25:40.571,-33764.04,-43950.915,-83395.485,-50266.89,-12075.66,-17319.465,5770.26,-69737.04,-6.7275625947657245,1.2437527247703606,4.901580306493722,5.912220458945068,8.379942333546158,9.721727536603604,-1.0535680585430875,-8.887487877483604,0.088561785,-0.87902607,0.478331295,16.28242,-86.34107999999999,76.3,69.0
1774823140.5741184,0.002481222152709961,2026-03-29T22:25:40.574,2026-03-29T18:25:40.574,-33754.229999999996,-43935.705,-83392.47,-50265.585,-12081.285,-17327.835,5762.61,-69744.105,-8.424394603252905,3.6179932221656226,9.724289649758877,10.231424034894248,8.927771856992903,7.534224757708718,-0.9354683521196495,-13.864300594528356,0.088561785,-0.87902607,0.478331295,16.28242,-86.34107999999999,76.3,69.0
1774823140.5741265,8.106231689453125e-06,2026-03-29T22:25:40.574,2026-03-29T18:25:40.574,-33748.965,-43934.939999999995,-83382.165,-50249.115,-12072.24,-17320.32,5761.125,-69734.7,-6.563071073008947,4.274248483872481,10.366819757266455,10.271249392766869,5.696534093885024,2.0607272890215413,-0.6524879637619616,-12.858428232258445,0.088561785,-0.87902607,0.478331295,16.28242,-86.34107999999999,76.3,69.0
1774823140.5837944,0.00966787338256836,2026-03-29T22:25:40.583,2026-03-29T18:25:40.583,-33762.869999999995,-43948.125,-83390.44499999999,-50246.775,-12067.965,-17314.559999999998,5758.5599999999995,-69740.73,-1.9477695215166548,2.871374818652109,6.392269231397677,5.860776395054319,0.08122455305290897,-4.159410441565043,-0.21914375068946157,-6.188490312123597,0.08374002,-0.895566555,0.473448495,19.04448,-86.14269999999999,75.15549999999999,69.0
1774823140.5838132,1.8835067749023438e-05,2026-03-29T22:25:40.583,2026-03-29T18:25:40.583,-33746.715,-43943.715,-83396.565,-50255.009999999995,-12071.925,-17316.09,5762.16,-69715.395,3.4533753619707985,0.0667444157437118,-0.5497365357399118,-1.2124040750311456,-5.508430122422962,-8.31571149210606,0.34976969124205876,3.2991295071637907,0.08374002,-0.895566555,0.473448495,19.04448,-86.14269999999999,75.15549999999999,69.0
1774823140.58383,1.6927719116210938e-05,2026-03-29T22:25:40.583,2026-03-29T18:25:40.583,-33739.784999999996,-43936.02,-83391.97499999999,-50254.65,-12060.09,-17302.095,5772.69,-69716.34,7.346711316766463,-2.7947129355395144,-7.404696234521149,-7.914429914360027,-8.680311994767406,-8.602301983371957,0.9524713646492099,11.443033292898418,0.08374002,-0.895566555,0.473448495,19.04448,-86.14269999999999,75.15549999999999,69.0
1774823140.5838363,6.198883056640625e-06,2026-03-29T22:25:40.583,2026-03-29T18:25:40.583,-33732.765,-43942.32,-83412.62999999999,-50281.2,-12071.835,-17311.905,5772.554999999999,-69711.61499999999,8.091604533255463,-4.329948716560648,-11.072202174875166,-11.277512508554674,-8.091936302608252,-5.012289291123707,1.3685590195303856,14.608343009082937,0.08374002,-0.895566555,0.473448495,19.04448,-86.14269999999999,75.15549999999999,69.0
1774823140.583845,8.58306884765625e-06,2026-03-29T22:25:40.583,2026-03-29T18:25:40.583,-33724.26,-43945.38,-83420.235,-50294.924999999996,-12083.535,-17320.545,5766.03,-69691.455,5.399298575105618,-3.7903840268236144,-9.830572043025043,-9.739505611000673,-4.033248064830777,0.7029599847448207,1.336170847477227,11.334336844079694,0.08374002,-0.895566555,0.473448495,19.04448,-86.14269999999999,75.15549999999999,69.0
1774823140.5838518,6.9141387939453125e-06,2026-03-29T22:25:40.583,2026-03-29T18:25:40.583,-33734.52,-43943.445,-83405.11499999999,-50280.255,-12084.029999999999,-17322.255,5761.08,-69697.89,0.4502250006277409,-1.4289692577439017,-4.162125870830149,-3.893882010179578,1.7001809611211116,5.876561037088285,0.7131687585192762,3.0291316288484307,0.08374002,-0.895566555,0.473448495,19.04448,-86.14269999999999,75.15549999999999,69.0
1774823140.591605,0.007753133773803711,2026-03-29T22:25:40.591,2026-03-29T18:25:40.591,-33748.695,-43932.869999999995,-83374.83,-50250.15,-12060.945,-17302.14,5763.96,-69729.61499999999,-4.6215336590857605,1.619091841270274,3.4240688230230476,3.720883405512822,6.595491180853527,8.170238831133048,-0.3744617932670647,-6.628526457213344,0.08374002,-0.895566555,0.473448495,19.04448,-86.14269999999999,75.15549999999999,69.0
1774823140.5916228,1.7881393432617188e-05,2026-03-29T22:25:40.591,2026-03-29T18:25:40.591,-33756.93,-43922.025,-83353.5,-50228.865,-12043.26,-17284.5,5774.804999999999,-69758.86499999999,-7.652770991610769,3.885498267083321,9.513036696600244,9.729457377746233,8.529800812704769,6.63995612851327,-1.5089648550091115,-13.330556880793658,0.08374002,-0.895566555,0.473448495,19.04448,-86.14269999999999,75.15549999999999,69.0
1774823140.591638,1.52587890625e-05,2026-03-29T22:25:40.591,2026-03-29T18:25:40.591,-33774.615,-43928.595,-83352.87,-50221.215,-12041.955,-17288.64,5778.855,-69773.44499999999,-7.382043688969799,4.280931855133345,11.342805849778646,11.438920059938644,6.706046349177756,2.1337213818505534,-2.134576880723495,-14.086108582309011,0.08374002,-0.895566555,0.473448495,19.04448,-86.14269999999999,75.15549999999999,69.0
1774823140.5916448,6.67572021484375e-06,2026-03-29T22:25:40.591,2026-03-29T18:25:40.591,-33766.244999999995,-43933.68,-83363.04,-50232.06,-12054.51,-17301.87,5776.92,-69757.38,-3.981883915649588,2.622844140564451,8.079535244947374,8.074100447557049,1.9973880398203205,-3.151025064823625,-1.836284753223224,-8.581799833760103,0.08374002,-0.895566555,0.473448495,19.04448,-86.14269999999999,75.15549999999999,69.0
1774823140.5988843,0.007239580154418945,2026-03-29T22:25:40.598,2026-03-29T18:25:40.598,-33754.409999999996,-43936.02,-83372.67,-50245.74,-12068.145,-17309.34,5776.469999999999,-69737.04,1.036498820583868,-0.2785031892697067,1.2096830507546146,1.1486039176526086,-3.4574206694461345,-6.728909537621769,-0.6012666089772369,0.6755736045218635,0.089416275,-0.910703235,0.464903595,20.585739999999998,-81.76308,75.15549999999999,69.0
1774823140.598902,1.7642974853515625e-05,2026-03-29T22:25:40.598,2026-03-29T18:25:40.598,-33750.0,-43931.205,-83370.87,-50241.915,-12062.295,-17299.17,5782.32,-69737.13,5.497828942654003,-3.0171440169286785,-6.14087699619144,-6.2150583938004145,-7.226336653833143,-6.998592461866996,1.0956193696028351,9.505721310736847,0.089416275,-0.910703235,0.464903595,20.585739999999998,-81.76308,75.15549999999999,69.0
1774823140.6005712,0.001669168472290039,2026-03-29T22:25:40.600,2026-03-29T18:25:40.600,-33748.965,-43932.465,-83374.37999999999,-50245.424999999996,-12061.755,-17293.454999999998,5780.969999999999,-69733.395,7.514165149992121,-4.276683310272623,-10.647132114284512,-10.711381979518128,-7.68186012136263,-3.9714336492842484,2.463645964057693,13.964136132938942,0.089416275,-0.910703235,0.464903595,20.585739999999998,-81.76308,75.15549999999999,69.0
1774823140.6005828,1.1682510375976562e-05,2026-03-29T22:25:40.600,2026-03-29T18:25:40.600,-33753.915,-43939.305,-83383.515,-50255.865,-12070.89,-17300.745,5778.719999999999,-69733.935,6.292541128426006,-3.468198702803185,-10.312489748023825,-10.363899190430647,-4.722406475902185,0.7802581313891366,2.76982608591888,12.131533278199711,0.089416275,-0.910703235,0.464903595,20.585739999999998,-81.76308,75.15549999999999,69.0
1774823140.6092925,0.00870966911315918,2026-03-29T22:25:40.609,2026-03-29T18:25:40.609,-33765.39,-43945.65,-83387.52,-50256.36,-12068.505,-17298.27,5774.76,-69747.48,2.4484647914869138,-1.0095257369055197,-5.370659705300236,-5.417955562405734,0.2120799450028823,4.917376242344559,1.735513932329201,4.95817898546278,0.089416275,-0.910703235,0.464903595,20.585739999999998,-81.76308,75.15549999999999,69.0
1774823140.6093135,2.09808349609375e-05,2026-03-29T22:25:40.609,2026-03-29T18:25:40.609,-33762.69,-43944.525,-83387.52,-50257.08,-12070.755,-17301.329999999998,5772.96,-69742.98,-2.300252151058811,1.8882911997696283,1.8539538777435454,1.8009795468491256,4.831825788887132,6.478093841552116,-0.25953330657717494,-4.2178630472503915,0.089416275,-0.910703235,0.464903595,20.585739999999998,-81.76308,75.15549999999999,69.0
1774823140.609331,1.7404556274414062e-05,2026-03-29T22:25:40.609,2026-03-29T18:25:40.609,-33758.505,-43938.09,-83379.015,-50247.0,-12060.225,-17289.405,5782.455,-69738.20999999999,-5.908557451176209,3.8192799017767287,8.050277499629626,7.989663585673629,7.067751322929968,4.8153744065815705,-2.3006369293412643,-11.23848348923626,0.089416275,-0.910703235,0.464903595,20.585739999999998,-81.76308,75.15549999999999,69.0
1774823140.609338,7.152557373046875e-06,2026-03-29T22:25:40.609,2026-03-29T18:25:40.609,-33755.67,-43938.09,-83382.20999999999,-50250.33,-12064.275,-17292.105,5785.5599999999995,-69729.885,-6.894693481342108,3.8693802623933715,10.45959598820652,10.403076099333733,6.01656962598512,0.8767349295937914,-3.3595040335349693,-13.036157516952448,0.089416275,-0.910703235,0.464903595,20.585739999999998,-81.76308,75.15549999999999,69.0
1774823140.612526,0.003187894821166992,2026-03-29T22:25:40.612,2026-03-29T18:25:40.612,-33751.53,-43936.47,-83382.75,-50251.275,-12066.84,-17298.63,5776.785,-69724.8,-4.953156247735877,2.0543958414630965,8.124029650746747,8.097969292862375,2.31970625566834,-3.3011033860587604,-2.8183166428598927,-8.996739423811928,0.089416275,-0.910703235,0.464903595,20.585739999999998,-81.76308,75.15549999999999,69.0
1774823140.6125393,1.33514404296875e-05,2026-03-29T22:25:40.612,2026-03-29T18:25:40.612,-33752.655,-43940.744999999995,-83386.98,-50255.909999999996,-12073.275,-17306.415,5770.485,-69722.28,-1.0336541827176753,-0.703111877588727,2.2695732531636694,2.3076846824753883,-2.1913259561403517,-5.624957674314544,-0.8270127596801004,-1.1574687225175269,0.089416275,-0.910703235,0.464903595,20.585739999999998,-81.76308,75.15549999999999,69.0
1774823140.6166835,0.004144191741943359,2026-03-29T22:25:40.616,2026-03-29T18:25:40.616,-33748.244999999995,-43941.869999999995,-83389.545,-50258.79,-12076.605,-17307.36,5768.865,-69714.63,3.1247260016829554,-3.0410685575733396,-4.331071306410674,-4.204910951162876,-5.398513519409385,-4.989498455823013,1.7106935492959516,6.817944842573163,0.10424778,-0.9284644200000001,0.45300177,23.97346,-75.26232,74.66718,69.0
1774823140.6167004,1.6927719116210938e-05,2026-03-29T22:25:40.616,2026-03-29T18:25:40.616,-33743.07,-43941.465,-83392.73999999999,-50260.994999999995,-12079.035,-17310.329999999998,5767.0199999999995,-69706.89,5.774892778231866,-3.833435240016179,-8.68693707619223,-8.481179967564861,-5.905343648391303,-1.8137201814204589,3.5460623642218603,11.372228032036357,0.10424778,-0.9284644200000001,0.45300177,23.97346,-75.26232,74.66718,69.0
1774823140.6207435,0.004043102264404297,2026-03-29T22:25:40.620,2026-03-29T18:25:40.620,-33743.025,-43931.7,-83378.61,-50246.415,-12067.02,-17299.89,5772.87,-69715.62,5.902629336117197,-2.7379429024511346,-8.964931138541488,-8.735845962193233,-3.663025097164788,2.195684465522033,3.7044776694035804,10.66604241502322,0.10424778,-0.9284644200000001,0.45300177,23.97346,-75.26232,74.66718,69.0
1774823140.6207595,1.5974044799804688e-05,2026-03-29T22:25:40.620,2026-03-29T18:25:40.620,-33758.369999999995,-43939.305,-83385.0,-50254.604999999996,-12075.48,-17305.875,5783.219999999999,-69728.715,3.6089008980271577,-0.34724301290256127,-5.270496777118625,-5.115665592786043,0.07536641652765153,4.93181596822653,2.005702953172037,5.325729597128001,0.10424778,-0.9284644200000001,0.45300177,23.97346,-75.26232,74.66718,69.0
1774823140.6299388,0.009179353713989258,2026-03-29T22:25:40.629,2026-03-29T18:25:40.629,-33771.96,-43942.545,-83382.25499999999,-50250.96,-12071.205,-17305.29,5782.1849999999995,-69745.68,-0.00780802548361796,2.125066737185084,0.5046341164609124,0.4821988396773946,3.427901722042169,4.9752891657738285,-0.7933528554920543,-1.9800261958997876,0.10424778,-0.9284644200000001,0.45300177,23.97346,-75.26232,74.66718,69.0
1774823140.6299534,1.4543533325195312e-05,2026-03-29T22:25:40.629,2026-03-29T18:25:40.629,-33750.405,-43938.045,-83381.12999999999,-50250.555,-12073.77,-17315.145,5757.075,-69730.425,-3.3828083468608328,3.459834508786732,5.6508208045435655,5.398550494692375,4.831881933710403,2.327774286921797,-3.3318003321338416,-7.87850612375035,0.10424778,-0.9284644200000001,0.45300177,23.97346,-75.26232,74.66718,69.0
1774823140.6299653,1.1920928955078125e-05,2026-03-29T22:25:40.629,2026-03-29T18:25:40.629,-33731.685,-43934.895,-83379.87,-50248.665,-12073.68,-17313.704999999998,5737.32,-69712.965,-5.170628406281766,3.037486057132859,7.929109553706548,7.493991020437654,3.7885620274907836,-1.5869182502604098,-4.309114031191472,-9.872711165162924,0.10424778,-0.9284644200000001,0.45300177,23.97346,-75.26232,74.66718,69.0
1774823140.6299691,3.814697265625e-06,2026-03-29T22:25:40.629,2026-03-29T18:25:40.629,-33752.07,-43954.064999999995,-83397.375,-50262.21,-12085.74,-17319.78,5739.12,-69717.78,-4.779813997931414,1.1308932352569336,6.559178117046611,6.097414483686537,1.04173549243259,-4.661469240496503,-3.154657751985111,-7.411792468066557,0.10424778,-0.9284644200000001,0.45300177,23.97346,-75.26232,74.66718,69.0
1774823140.6324656,0.002496480941772461,2026-03-29T22:25:40.632,2026-03-29T18:25:40.632,-33768.135,-43949.07,-83400.39,-50268.33,-12093.48,-17324.145,5760.855,-69744.285,-2.545002421665547,-1.2549534371901199,2.463669935091112,2.1915280193133886,-1.8765329510083524,-5.210178609521413,-0.35606711162290167,-1.9860341404942485,0.10424778,-0.9284644200000001,0.45300177,23.97346,-75.26232,74.66718,69.0
1774823140.6324785,1.2874603271484375e-05,2026-03-29T22:25:40.632,2026-03-29T18:25:40.632,-33761.61,-43941.78,-83386.035,-50252.759999999995,-12074.715,-17296.695,5789.969999999999,-69733.44,0.49914908006079606,-2.9073546400354635,-2.294025080444007,-2.197836918734991,-3.4762473374426444,-2.8715811131333053,2.7402019854422246,3.728276703348691,0.10424778,-0.9284644200000001,0.45300177,23.97346,-75.26232,74.66718,69.0
1774823140.6367087,0.0042302608489990234,2026-03-29T22:25:40.636,2026-03-29T18:25:40.636,-33752.88,-43949.924999999996,-83398.995,-50264.595,-12079.89,-17288.37,5785.29,-69710.48999999999,3.1039813090157793,-3.0229630577688287,-5.554041046260493,-5.05234727708955,-3.0741938821312282,1.1671847316522823,4.578134051069503,7.199311601350313,0.12292449,-0.94811769,0.43994028,32.48854,-64.04621999999999,74.71296,69.0
1774823140.6367364,2.765655517578125e-05,2026-03-29T22:25:40.636,2026-03-29T18:25:40.636,-33743.295,-43952.04,-83408.895,-50276.025,-12090.689999999999,-17296.425,5778.585,-69692.805,4.3210710282251785,-1.6033030679752749,-6.055614790418849,-5.3062695949877146,-1.0984707764176533,4.758645181236095,4.176944758008698,7.179287957530895,0.12292449,-0.94811769,0.43994028,32.48854,-64.04621999999999,74.71296,69.0
1774823140.6407452,0.004008769989013672,2026-03-29T22:25:40.640,2026-03-29T18:25:40.640,-33773.31,-43948.17,-83387.83499999999,-50252.354999999996,-12068.595,-17275.41,5786.55,-69736.905,3.831588217915344,0.5681666840038724,-3.9177978929039523,-3.2351179824670426,1.2099463592841133,5.9102897121062234,1.6537672795003528,4.131365846155746,0.12292449,-0.94811769,0.43994028,32.48854,-64.04621999999999,74.71296,69.0
1774823140.640761,1.5735626220703125e-05,2026-03-29T22:25:40.640,2026-03-29T18:25:40.640,-33780.42,-43944.615,-83382.705,-50248.17,-12067.605,-17275.95,5786.235,-69746.13,1.9854259188360979,2.348097607635826,-0.4254305862159353,-0.15062141175177776,2.519062275009916,3.8573659808991674,-1.7942489316080363,-0.19026837994672893,0.12292449,-0.94811769,0.43994028,32.48854,-64.04621999999999,74.71296,69.0
1774823140.644876,0.004115104675292969,2026-03-29T22:25:40.644,2026-03-29T18:25:40.644,-33766.74,-43945.83,-83392.37999999999,-50259.195,-12079.71,-17287.425,5783.085,-69723.09,-0.4191566580157442,2.8310160921721175,2.7076092933724283,2.375284638130964,2.1493733320481785,-0.4730997715392055,-4.45932948227656,-3.718322471718664,0.12292449,-0.94811769,0.43994028,32.48854,-64.04621999999999,74.71296,69.0
1774823140.644899,2.288818359375e-05,2026-03-29T22:25:40.644,2026-03-29T18:25:40.644,-33761.88,-43949.79,-83398.36499999999,-50266.485,-12086.865,-17295.3,5781.6449999999995,-69707.655,-2.485169866779256,1.8120516990763822,4.187585844343724,3.3159798500283735,0.4325374974506169,-4.875169648944605,-4.972094791374471,-5.0743236290761775,0.12292449,-0.94811769,0.43994028,32.48854,-64.04621999999999,74.71296,69.0
1774823140.648683,0.0037841796875,2026-03-29T22:25:40.648,2026-03-29T18:25:40.648,-33769.935,-43945.92,-83388.19499999999,-50257.619999999995,-12079.98,-17289.27,5782.005,-69727.095,-3.5403035918585926,-0.12268746511785016,3.678070664613972,2.6100929432309394,-1.5067181226524677,-6.973250990388175,-3.006032835489919,-4.10294078006437,0.12292449,-0.94811769,0.43994028,32.48854,-64.04621999999999,74.71296,69.0
1774823140.648712,2.8848648071289062e-05,2026-03-29T22:25:40.648,2026-03-29T18:25:40.648,-33763.68,-43946.415,-83390.985,-50268.104999999996,-12095.324999999999,-17302.5,5778.9,-69718.5,-3.3237200633450406,-1.9199130404779978,1.8003325379101143,1.0221898907409348,-2.419009470228415,-5.475518632381128,0.5259427198128265,-1.7334774938083997,0.12292449,-0.94811769,0.43994028,32.48854,-64.04621999999999,74.71296,69.0
1774823140.6527488,0.004036903381347656,2026-03-29T22:25:40.652,2026-03-29T18:25:40.652,-33756.119999999995,-43951.77,-83400.705,-50278.545,-12105.135,-17312.445,5772.599999999999,-69697.53,-2.0050683757352066,-2.6230737381578146,-0.3330949828181485,-0.4149732558439779,-1.6725144274569872,-0.9202620702104469,3.8973420002656254,0.6722815642009938,0.12292449,-0.94811769,0.43994028,32.48854,-64.04621999999999,74.71296,69.0
1774823140.6527634,1.4543533325195312e-05,2026-03-29T22:25:40.652,2026-03-29T18:25:40.652,-33739.695,-43952.58,-83411.73,-50289.255,-12112.47,-17312.94,5771.969999999999,-69686.73,-0.07322681940229987,-1.8781889847236866,-1.75149262801053,-1.0218256134688561,0.35237333561542195,4.500333466663291,5.416666351817887,2.0795687964478256,0.12292449,-0.94811769,0.43994028,32.48854,-64.04621999999999,74.71296,69.0
1774823140.657107,0.004343748092651367,2026-03-29T22:25:40.657,2026-03-29T18:25:40.657,-33718.049999999996,-43952.13,-83422.845,-50298.075,-12119.31,-17317.305,5765.3099999999995,-69665.48999999999,1.8379181925062376,-0.11546675187525786,-2.0745353390092838,-0.7990500206741713,2.449514377314112,7.992699437341888,4.279002133231246,2.232060237595885,0.13708461,-0.951230475,0.427245,40.94258,-51.33464,75.88798,69.0
1774823140.6571689,6.175041198730469e-05,2026-03-29T22:25:40.657,2026-03-29T18:25:40.657,-33736.725,-43947.54,-83400.61499999999,-50266.034999999996,-12089.115,-17295.255,5758.335,-69688.485,3.1285281218892367,1.6878917343214859,-1.56573959689391,-0.30005314097946767,3.266445855810208,7.586524720040635,0.9899205824123202,1.5949961123594554,0.13708461,-0.951230475,0.427245,40.94258,-51.33464,75.88798,69.0
1774823140.660784,0.003615140914916992,2026-03-29T22:25:40.660,2026-03-29T18:25:40.660,-33773.445,-43940.43,-83370.555,-50229.09,-12049.38,-17257.68,5768.099999999999,-69750.63,3.3848450231976575,2.536915474632291,-0.82115894787752,-0.1661481957046936,2.1069823017486664,3.2103772892845326,-2.8610696010209473,0.8954643884633089,0.13708461,-0.951230475,0.427245,40.94258,-51.33464,75.88798,69.0
1774823140.660796,1.1920928955078125e-05,2026-03-29T22:25:40.660,2026-03-29T18:25:40.660,-33773.04,-43941.645,-83370.105,-50237.64,-12060.18,-17267.13,5776.5599999999995,-69755.805,2.4902114743086217,1.9582173307596138,-0.32553483384214454,-0.6379601116218564,-0.5976436982793626,-3.156672684817716,-5.375243428417283,0.5859672716431292,0.13708461,-0.951230475,0.427245,40.94258,-51.33464,75.88798,69.0
1774823140.6649313,0.0041353702545166016,2026-03-29T22:25:40.664,2026-03-29T18:25:40.664,-33769.215,-43945.604999999996,-83372.44499999999,-50242.455,-12067.695,-17276.76,5782.1849999999995,-69742.53,0.6796381324512968,0.2608065850652709,-0.16081308812487047,-1.3604756990182048,-3.4383191721510578,-8.383078623260252,-5.286728171988355,0.5736299147126634,0.13708461,-0.951230475,0.427245,40.94258,-51.33464,75.88798,69.0
1774823140.66496,2.86102294921875e-05,2026-03-29T22:25:40.664,2026-03-29T18:25:40.664,-33769.305,-43951.365,-83377.08,-50248.439999999995,-12078.27,-17286.885,5776.38,-69734.97,-1.488223973059796,-1.6240199631654737,-0.03458303339986625,-1.6119167532834249,-4.753515541418314,-9.724062477643043,-2.6013094504093632,0.37013886225046977,0.13708461,-0.951230475,0.427245,40.94258,-51.33464,75.88798,69.0
1774823140.6688583,0.0038983821868896484,2026-03-29T22:25:40.668,2026-03-29T18:25:40.668,-33761.205,-43959.645,-83392.73999999999,-50268.104999999996,-12099.465,-17301.915,5771.969999999999,-69715.845,-3.2657978081811727,-2.6426114199735316,0.4150166579212327,-0.8196309872354067,-3.560393718005855,-6.245517901258935,1.3916756222558764,-0.4562424111049475,0.13708461,-0.951230475,0.427245,40.94258,-51.33464,75.88798,69.0
1774823140.6688697,1.1444091796875e-05,2026-03-29T22:25:40.668,2026-03-29T18:25:40.668,-33744.42,-43961.265,-83405.97,-50283.314999999995,-12112.47,-17309.655,5775.705,-69698.565,-3.9515517158676925,-2.194465427294168,1.258252170560938,0.962513280763224,-0.18355381146158314,0.6000849678572935,4.746252170655092,-1.8410000464531735,0.13708461,-0.951230475,0.427245,40.94258,-51.33464,75.88798,69.0
1774823140.674237,0.005367279052734375,2026-03-29T22:25:40.674,2026-03-29T18:25:40.674,-33760.845,-43968.104999999996,-83402.50499999999,-50274.99,-12101.49,-17295.885,5780.295,-69722.505,-3.1655054122359783,-0.4739967632827988,2.11425780639763,2.9367347053268125,3.791914462573616,7.579534057952894,5.817186014438816,-3.110861064014475,0.13708461,-0.951230475,0.427245,40.94258,-51.33464,75.88798,69.0
1774823140.6742687,3.170967102050781e-05,2026-03-29T22:25:40.674,2026-03-29T18:25:40.674,-33789.555,-43972.604999999996,-83394.54,-50258.88,-12080.475,-17272.53,5788.304999999999,-69739.38,-1.05782040508104,1.6114505781789437,2.3257092100128,3.9242012471651715,6.269236935836842,11.214657644262557,4.072474878447745,-3.3153598120969776,0.13708461,-0.951230475,0.427245,40.94258,-51.33464,75.88798,69.0
1774823140.6789355,0.004666805267333984,2026-03-29T22:25:40.678,2026-03-29T18:25:40.678,-33755.895,-43945.965,-83394.405,-50268.689999999995,-12093.345,-17286.165,5777.82,-69724.755,1.663219990551005,2.9141231063222817,1.3863296362485955,3.0403972125642382,5.734780804248248,9.51460562347853,0.3566798771701299,-1.837300453204487,0.13708461,-0.9259009500000001,0.41479386,38.65358,-41.40038,73.72106,69.0
1774823140.6789458,1.0251998901367188e-05,2026-03-29T22:25:40.678,2026-03-29T18:25:40.678,-33740.19,-43934.759999999995,-83379.015,-50258.43,-12090.105,-17285.76,5775.48,-69714.045,3.9421476602228953,2.6650786045989405,-0.6357102423003844,0.3060719067548645,2.131109514482422,3.041605270821143,-3.5253717758062604,1.082026482704572,0.13708461,-0.9259009500000001,0.41479386,38.65358,-41.40038,73.72106,69.0
1774823140.7063544,0.027408599853515625,2026-03-29T22:25:40.706,2026-03-29T18:25:40.706,-33738.435,-43945.47,-83395.98,-50275.439999999995,-12108.015,-17306.145,5772.33,-69697.89,4.7805724905722755,0.9106412898625366,-2.9633559214556433,-3.1855697413814954,-2.9782935720982544,-5.25196911722932,-5.696266486941438,4.257752344863316,0.13708461,-0.9259009500000001,0.41479386,38.65358,-41.40038,73.72106,69.0
1774823140.706372,1.7642974853515625e-05,2026-03-29T22:25:40.706,2026-03-29T18:25:40.706,-33725.205,-43957.755,-83421.62999999999,-50301.81,-12137.13,-17337.96,5759.955,-69669.36,3.6827630330865815,-1.4754353989740707,-4.40369431950967,-5.704618025760961,-7.092646641258674,-11.38279129327243,-5.1235091817448515,6.044735153270532,0.13708461,-0.9259009500000001,0.41479386,38.65358,-41.40038,73.72106,69.0
1774823140.7063885,1.6450881958007812e-05,2026-03-29T22:25:40.706,2026-03-29T18:25:40.706,-33726.78,-43959.645,-83420.64,-50298.975,-12136.14,-17338.32,5760.405,-69665.22,0.9397028828145777,-3.2263062111313836,-3.960895134463459,-5.750029122738128,-8.004497801983971,-12.26061406849382,-2.1138605580697805,5.190709949157813,0.13708461,-0.9259009500000001,0.41479386,38.65358,-41.40038,73.72106,69.0
1774823140.7063951,6.67572021484375e-06,2026-03-29T22:25:40.706,2026-03-29T18:25:40.706,-33785.28,-43954.74,-83380.36499999999,-50245.11,-12077.505,-17279.64,5780.295,-69748.02,-2.4078043861598375,-3.3471965282029505,-1.4533733770703448,-2.9081599794551254,-4.9686342430907295,-7.242620043857723,1.8540679301992073,1.6163044930962374,0.13708461,-0.9259009500000001,0.41479386,38.65358,-41.40038,73.72106,69.0
1774823140.7064028,7.62939453125e-06,2026-03-29T22:25:40.706,2026-03-29T18:25:40.706,-33788.655,-43946.775,-83364.705,-50228.865,-12059.82,-17256.825,5787.405,-69757.605,-4.954777663176409,-1.66487026046311,2.2256935638608604,1.7741429221525558,0.8042076231494164,1.4631117700217187,4.866939435249409,-3.335159873912944,0.13708461,-0.9259009500000001,0.41479386,38.65358,-41.40038,73.72106,69.0
1774823140.7064068,4.0531158447265625e-06,2026-03-29T22:25:40.706,2026-03-29T18:25:40.706,-33765.885,-43941.555,-83365.245,-50227.65,-12058.02,-17250.614999999998,5774.355,-69738.255,-5.528764497085017,1.0364332858055965,5.406810994991322,6.159863019066874,6.626988362641604,9.780163698710677,5.511542110782683,-7.39095037011981,0.13708461,-0.9259009500000001,0.41479386,38.65358,-41.40038,73.72106,69.0
1774823140.7064111,4.291534423828125e-06,2026-03-29T22:25:40.706,2026-03-29T18:25:40.706,-33740.595,-43940.835,-83380.77,-50242.59,-12075.615,-17268.255,5766.255,-69711.48,-3.7406296555951344,3.382387139715939,6.413298679312061,8.013034863226359,9.601070774429314,13.690041683437398,3.545042492829844,-8.410292167733198,0.13708461,-0.9259009500000001,0.41479386,38.65358,-41.40038,73.72106,69.0
1774823140.7064147,3.5762786865234375e-06,2026-03-29T22:25:40.706,2026-03-29T18:25:40.706,-33731.865,-43951.455,-83398.68,-50259.195,-12091.545,-17283.015,5761.71,-69694.69499999999,-0.22562254034480217,4.106345381492067,4.44128403994433,6.143540193105174,8.064258252445333,11.183870113826607,-0.020838761024798678,-5.509736633298786,0.13708461,-0.9259009500000001,0.41479386,38.65358,-41.40038,73.72106,69.0
1774823140.7064197,5.0067901611328125e-06,2026-03-29T22:25:40.706,2026-03-29T18:25:40.706,-33761.205,-43973.64,-83420.595,-50283.72,-12116.564999999999,-17308.53,5739.48,-69706.575,3.567276627336141,2.723600567150867,0.0901180618882363,1.117251480727488,2.4963241760279917,3.2867783512735325,-3.446423625365098,0.337372755989264,0.127257975,-0.88805925,0.40344135000000003,29.085559999999997,-32.38172,70.94373999999999,69.0
1774823140.7064233,3.5762786865234375e-06,2026-03-29T22:25:40.706,2026-03-29T18:25:40.706,-33769.619999999995,-43973.549999999996,-83419.65,-50294.295,-12133.08,-17329.905,5743.575,-69697.62,5.976881772327318,-0.17328690253565135,-4.777440541441923,-4.874408043512071,-4.60286028740962,-6.364783127301033,-5.125130982780751,6.594437000124581,0.127257975,-0.88805925,0.40344135000000003,29.085559999999997,-32.38172,70.94373999999999,69.0
1774823140.7064276,4.291534423828125e-06,2026-03-29T22:25:40.706,2026-03-29T18:25:40.706,-33763.32,-43962.119999999995,-83392.065,-50268.96,-12105.539999999999,-17304.795,5759.955,-69713.01,5.870317441380056,-3.16895437628367,-7.84162262270224,-8.983376754175572,-9.84996567480945,-13.21667699493289,-4.34746867814017,10.279741874144905,0.127257975,-0.88805925,0.40344135000000003,29.085559999999997,-32.38172,70.94373999999999,69.0
1774823140.7064312,3.5762786865234375e-06,2026-03-29T22:25:40.706,2026-03-29T18:25:40.706,-33723.63,-43955.325,-83392.73999999999,-50272.65,-12109.545,-17307.36,5784.705,-69676.02,3.186221628778212,-4.720047521623073,-7.444974313188843,-9.077117935711769,-10.605998816689365,-13.964059595114838,-1.5998273999601338,9.407657351508082,0.127257975,-0.88805925,0.40344135000000003,29.085559999999997,-32.38172,70.94373999999999,69.0
1774823140.7064357,4.5299530029296875e-06,2026-03-29T22:25:40.706,2026-03-29T18:25:40.706,-33760.395,-43964.955,-83373.56999999999,-50240.744999999995,-12082.545,-17287.29,5806.17,-69703.02,-0.9844292679457751,-3.94771979459547,-3.4783789248120796,-4.844645980017395,-6.305136200276784,-8.152326855582722,1.7270593196597515,4.047377085748516,0.127257975,-0.88805925,0.40344135000000003,29.085559999999997,-32.38172,70.94373999999999,69.0
1774823140.7064388,3.0994415283203125e-06,2026-03-29T22:25:40.706,2026-03-29T18:25:40.706,-33801.075,-43957.89,-83368.70999999999,-50239.89,-12084.705,-17277.165,5800.23,-69743.565,-4.842393157739282,-1.1216799675913731,2.435750061477035,1.936854887138603,1.1853426474494717,1.566782064306942,4.050149478453404,-3.561040425788436,0.127257975,-0.88805925,0.40344135000000003,29.085559999999997,-32.38172,70.94373999999999,69.0
1774823140.7088675,0.002428770065307617,2026-03-29T22:25:40.708,2026-03-29T18:25:40.708,-33766.065,-43952.4,-83381.625,-50260.365,-12105.765,-17286.66,5785.514999999999,-69719.22,-6.668031171131695,2.4259110131559116,7.608734132124334,8.15499152017122,8.385590453708502,10.661735773753083,4.358800992882787,-9.953512789753951,0.127257975,-0.88805925,0.40344135000000003,29.085559999999997,-32.38172,70.94373999999999,69.0
1774823140.708893,2.5510787963867188e-05,2026-03-29T22:25:40.708,2026-03-29T18:25:40.708,-33779.79,-43968.195,-83385.98999999999,-50254.38,-12092.13,-17272.079999999998,5778.179999999999,-69716.97,-5.6023260641234645,4.934229235670626,9.52548451960304,10.811889176743728,11.838649143257578,14.855308725159212,2.6577048205571985,-12.045921409927402,0.127257975,-0.88805925,0.40344135000000003,29.085559999999997,-32.38172,70.94373999999999,69.0
1774823140.712948,0.004055023193359375,2026-03-29T22:25:40.712,2026-03-29T18:25:40.712,-33761.7,-43953.884999999995,-83388.51,-50255.189999999995,-12089.835,-17271.09,5773.635,-69714.45,-2.0596388783178896,5.091075031161787,7.079012749414801,8.485411388730519,9.78354332363681,12.151484798647715,-0.10744216827993873,-8.640295632902118,0.127257975,-0.88805925,0.40344135000000003,29.085559999999997,-32.38172,70.94373999999999,69.0
1774823140.712968,2.002716064453125e-05,2026-03-29T22:25:40.712,2026-03-29T18:25:40.712,-33761.025,-43958.79,-83394.09,-50258.61,-12091.185,-17271.809999999998,5772.87,-69715.08,2.429692740237907,2.714936558263862,1.188650176362966,2.0827248373324188,3.0503890971137384,3.7877298074128487,-2.5712002199612263,-1.0898860347786412,0.127257975,-0.88805925,0.40344135000000003,29.085559999999997,-32.38172,70.94373999999999,69.0
1774823140.7169974,0.004029273986816406,2026-03-29T22:25:40.716,2026-03-29T18:25:40.716,-33762.465,-43960.59,-83399.67,-50263.965,-12100.68,-17284.905,5771.385,-69696.09,5.889106909688917,-1.1112362009050323,-5.535502157767947,-5.509874951115193,-5.276224147910276,-6.342611751823894,-3.6311741087918565,7.238473911232291,0.1159665,-0.85864038,0.394102995,16.984379999999998,-27.284879999999998,65.55696,69.0
1774823140.717009,1.1682510375976562e-05,2026-03-29T22:25:40.717,2026-03-29T18:25:40.717,-33724.619999999995,-43947.134999999995,-83424.825,-50300.955,-12144.555,-17325.855,5758.92,-69668.595,6.780582215060399,-4.539653039820759,-9.964643288275186,-10.74706940052329,-11.287954761951559,-13.522831283760818,-2.947314430989505,12.490920548205304,0.1159665,-0.85864038,0.394102995,16.984379999999998,-27.284879999999998,65.55696,69.0
1774823140.7242172,0.007208108901977539,2026-03-29T22:25:40.724,2026-03-29T18:25:40.724,-33739.38,-43971.884999999995,-83456.50499999999,-50332.59,-12171.42,-17344.215,5739.795,-69676.33499999999,4.701608293700513,-5.85743195905396,-9.926040333061362,-11.101558067772663,-12.105631072509246,-14.428522007765952,-1.0289827019883062,12.138112863189214,0.1159665,-0.85864038,0.394102995,16.984379999999998,-27.284879999999998,65.55696,69.0
1774823140.7242348,1.7642974853515625e-05,2026-03-29T22:25:40.724,2026-03-29T18:25:40.724,-33792.255,-43983.72,-83433.465,-50296.725,-12127.32,-17300.204999999998,5748.075,-69736.59,0.5725865566383959,-4.344983667063837,-5.276831840934847,-6.294930729910025,-7.267630166702498,-8.676785315025537,1.0967792384427117,6.20775276441479,0.1159665,-0.85864038,0.394102995,16.984379999999998,-27.284879999999998,65.55696,69.0
1774823140.7242477,1.2874603271484375e-05,2026-03-29T22:25:40.724,2026-03-29T18:25:40.724,-33794.729999999996,-43970.445,-83413.08,-50275.979999999996,-12105.494999999999,-17279.82,5773.995,-69748.875,-3.774916984091482,-0.6614790065286623,1.9570807966774377,1.5218177754732418,1.0197799630240238,1.0172840379398171,2.4336915191381587,-2.6685284539270864,0.1159665,-0.85864038,0.394102995,16.984379999999998,-27.284879999999998,65.55696,69.0
1774823140.724252,4.291534423828125e-06,2026-03-29T22:25:40.724,2026-03-29T18:25:40.724,-33763.5,-43952.4,-83397.19499999999,-50271.615,-12104.91,-17280.899999999998,5789.34,-69720.165,-6.422749067013138,3.446536904417992,8.474449612202156,8.74486384083795,8.901974094088978,10.137419819854964,2.4890913118889464,-10.44210617335252,0.1159665,-0.85864038,0.394102995,16.984379999999998,-27.284879999999998,65.55696,69.0
1774823140.7289548,0.00470280647277832,2026-03-29T22:25:40.728,2026-03-29T18:25:40.728,-33759.63,-43956.765,-83399.44499999999,-50280.84,-12112.605,-17286.795,5788.125,-69710.58,-6.226746485678268,5.982665539613299,11.225028947714769,12.000779414492749,12.687710458811981,14.48992639371848,1.4442684433272304,-13.523785308650758,0.1159665,-0.85864038,0.394102995,16.984379999999998,-27.284879999999998,65.55696,69.0
1774823140.7289753,2.0503997802734375e-05,2026-03-29T22:25:40.728,2026-03-29T18:25:40.728,-33766.92,-43966.125,-83410.73999999999,-50289.03,-12119.805,-17294.489999999998,5767.335,-69720.03,-3.3207529296184286,5.678447939113316,8.85393747813483,9.74006580350611,10.592854547245091,12.146741105302349,-0.029301314938535692,-10.466665972824325,0.1159665,-0.85864038,0.394102995,16.984379999999998,-27.284879999999998,65.55696,69.0
1774823140.7340035,0.005028247833251953,2026-03-29T22:25:40.734,2026-03-29T18:25:40.734,-33746.94,-43949.61,-83391.84,-50264.325,-12100.545,-17276.489999999998,5781.6449999999995,-69704.145,0.9622770430158752,2.629006271970347,2.3726707560114124,2.9802253532208267,3.5857232969502797,4.301099218687987,-1.1734464562470084,-2.6551717845979868,0.1159665,-0.85864038,0.394102995,16.984379999999998,-27.284879999999998,65.55696,69.0
1774823140.7340336,3.0040740966796875e-05,2026-03-29T22:25:40.734,2026-03-29T18:25:40.734,-33749.145,-43960.005,-83407.72499999999,-50277.78,-12115.664999999999,-17292.735,5780.34,-69698.06999999999,4.708704463851853,-1.732801708812226,-5.2768476163887605,-5.16008441051241,-5.068117914451407,-5.344101313449935,-1.5332241737710108,6.3318836775798335,0.1159665,-0.85864038,0.394102995,16.984379999999998,-27.284879999999998,65.55696,69.0
1774823140.7370815,0.003047943115234375,2026-03-29T22:25:40.737,2026-03-29T18:25:40.737,-33761.115,-43966.755,-83413.8,-50283.314999999995,-12120.39,-17298.989999999998,5777.099999999999,-69708.78,6.292050032160805,-5.319052540219455,-10.574723385332959,-10.918276999846192,-11.343690485233058,-12.339864507492694,-1.132769447120402,12.386467030887037,0.106261935,-0.840757125,0.392394015,3.9676,-20.860419999999998,60.6585,69.0
1774823140.7371037,2.2172927856445312e-05,2026-03-29T22:25:40.737,2026-03-29T18:25:40.737,-33758.1,-43960.095,-83404.305,-50272.335,-12109.275,-17289.27,5781.285,-69706.665,5.090960898127175,-6.396771559161823,-11.06217105126746,-11.646714804288452,-12.345357421137715,-13.559409472978988,-0.3724776828855603,12.778496912745778,0.106261935,-0.840757125,0.392394015,3.9676,-20.860419999999998,60.6585,69.0
1774823140.7411451,0.004041433334350586,2026-03-29T22:25:40.741,2026-03-29T18:25:40.741,-33731.775,-43959.825,-83418.345,-50292.45,-12130.38,-17305.47,5780.205,-69668.19,1.735039342906559,-4.431893866308593,-6.495091777020981,-7.041951516219984,-7.652649490836006,-8.602508788959186,0.25966097867004,7.406554973288961,0.106261935,-0.840757125,0.392394015,3.9676,-20.860419999999998,60.6585,69.0
1774823140.741161,1.5974044799804688e-05,2026-03-29T22:25:40.741,2026-03-29T18:25:40.741,-33717.375,-43966.979999999996,-83435.67,-50312.744999999995,-12152.835,-17326.845,5767.74,-69654.105,-2.219720842539043,-0.35307036847480366,1.0344622989291234,0.7314837882643319,0.5064199287365451,0.09752025765629206,0.47813578792168,-1.1895980308892966,0.106261935,-0.840757125,0.392394015,3.9676,-20.860419999999998,60.6585,69.0
1774823140.7449653,0.0038042068481445312,2026-03-29T22:25:40.744,2026-03-29T18:25:40.744,-33740.055,-43961.49,-83412.54,-50284.979999999996,-12125.07,-17300.295,5770.9349999999995,-69687.63,-5.020411040812043,3.8948367203130414,8.068702553526784,8.071195849996077,8.323657948770412,8.475566776018216,0.3262195134475952,-9.045307357689536,0.106261935,-0.840757125,0.392394015,3.9676,-20.860419999999998,60.6585,69.0
1774823140.7449908,2.5510787963867188e-05,2026-03-29T22:25:40.744,2026-03-29T18:25:40.744,-33768.315,-43949.88,-83389.59,-50257.125,-12093.84,-17272.53,5776.245,-69730.47,-5.506148430471372,6.289530452895942,11.390339613715488,11.624486347406206,12.203279507368544,12.748308538773081,0.0842123067159611,-12.626811745511933,0.106261935,-0.840757125,0.392394015,3.9676,-20.860419999999998,60.6585,69.0
1774823140.7491982,0.0042073726654052734,2026-03-29T22:25:40.749,2026-03-29T18:25:40.749,-33754.229999999996,-43936.424999999996,-83383.155,-50252.4,-12089.295,-17268.885,5788.08,-69735.06,-3.596106718273443,5.704025965974491,9.509944390601527,9.834291258925328,10.42796703277452,11.132473481326503,0.03860604114119245,-10.445790508435893,0.106261935,-0.840757125,0.392394015,3.9676,-20.860419999999998,60.6585,69.0
1774823140.7492285,3.0279159545898438e-05,2026-03-29T22:25:40.749,2026-03-29T18:25:40.749,-33754.365,-43949.115,-83395.89,-50266.08,-12104.369999999999,-17281.665,5780.385,-69732.765,-0.2682176154191314,2.440862657703661,3.339663160269706,3.624122529713039,3.921158841039248,4.583281495704894,0.26891830462158967,-3.6837426575341623,0.106261935,-0.840757125,0.392394015,3.9676,-20.860419999999998,60.6585,69.0
1774823140.753011,0.003782510757446289,2026-03-29T22:25:40.753,2026-03-29T18:25:40.753,-33763.95,-43969.725,-83421.94499999999,-50292.81,-12129.93,-17298.899999999998,5761.485,-69734.34,2.937420589751986,-1.927285476943223,-4.25379937333181,-4.079966330362011,-4.233196682208019,-3.7489041489674864,0.5889907016982527,4.4385149311893395,0.106261935,-0.840757125,0.392394015,3.9676,-20.860419999999998,60.6585,69.0
1774823140.7530448,3.3855438232421875e-05,2026-03-29T22:25:40.753,2026-03-29T18:25:40.753,-33745.905,-43974.81,-83434.455,-50305.77,-12143.115,-17308.17,5775.03,-69698.06999999999,4.639766820382975,-5.325554910625083,-9.795439461079733,-9.741795785046984,-10.263259201362567,-10.042072364668444,0.6778032558632199,10.213194169789737,0.106261935,-0.840757125,0.392394015,3.9676,-20.860419999999998,60.6585,69.0
1774823140.7569208,0.0038759708404541016,2026-03-29T22:25:40.756,2026-03-29T18:25:40.756,-33744.915,-43978.14,-83426.58,-50293.665,-12130.74,-17296.739999999998,5786.46,-69675.48,4.221357256885205,-6.173960309306439,-10.808361931590222,-10.852625274266472,-11.46584686442605,-11.565721988184691,0.3142568621631434,11.16358636619954,0.087707295,-0.83178498,0.39282126,-17.56426,-18.785059999999998,52.677519999999994,69.0
1774823140.756936,1.52587890625e-05,2026-03-29T22:25:40.756,2026-03-29T18:25:40.756,-33749.01,-43974.674999999996,-83413.62,-50277.465,-12117.6,-17288.46,5774.04,-69691.005,2.047122797159984,-4.1292106223734635,-6.930272209088801,-7.048803851949522,-7.423504594174424,-7.865975552999477,-0.4366716199483214,7.120297903778894,0.087707295,-0.83178498,0.39282126,-17.56426,-18.785059999999998,52.677519999999994,69.0
1774823140.7610831,0.004147052764892578,2026-03-29T22:25:40.761,2026-03-29T18:25:40.761,-33729.705,-43962.615,-83410.29,-50275.17,-12118.05,-17293.05,5762.205,-69697.665,-0.7775060134779934,-0.21965588781353057,-0.032673202139958654,-0.2091541766498089,-0.13212508030258083,-0.8588068865351298,-1.2126355809505693,0.18139472206320742,0.087707295,-0.83178498,0.39282126,-17.56426,-18.785059999999998,52.677519999999994,69.0
1774823140.761094,1.0967254638671875e-05,2026-03-29T22:25:40.761,2026-03-29T18:25:40.761,-33774.435,-43964.189999999995,-83399.58,-50261.31,-12102.345,-17278.649999999998,5756.76,-69731.91,-2.9657926761018527,3.677288421176675,6.689579453198731,6.478609290508892,6.988175338177935,6.1564302763392655,-1.5393031125323906,-6.372478881113589,0.087707295,-0.83178498,0.39282126,-17.56426,-18.785059999999998,52.677519999999994,69.0
1774823140.7655625,0.004468441009521484,2026-03-29T22:25:40.765,2026-03-29T18:25:40.765,-33774.615,-43957.395,-83409.3,-50276.61,-12119.13,-17294.265,5757.615,-69728.58,-3.6444242170121277,5.747400379699229,10.211796899292192,10.015603920838572,10.706690900301647,10.057270031213703,-1.1130696518668173,-9.648316476141254,0.087707295,-0.83178498,0.39282126,-17.56426,-18.785059999999998,52.677519999999994,69.0
1774823140.7655728,1.0251998901367188e-05,2026-03-29T22:25:40.765,2026-03-29T18:25:40.765,-33758.325,-43949.655,-83399.44499999999,-50266.71,-12114.9,-17295.524999999998,5768.865,-69722.86499999999,-2.705169386287073,5.093518863553072,9.051409442264285,8.944211174853795,9.454544926402374,9.291347741855404,-0.015553313631972978,-8.43630064708452,0.087707295,-0.83178498,0.39282126,-17.56426,-18.785059999999998,52.677519999999994,69.0
1774823140.7762141,0.010641336441040039,2026-03-29T22:25:40.776,2026-03-29T18:25:40.776,-33751.935,-43957.845,-83400.66,-50265.99,-12113.82,-17291.34,5797.844999999999,-69711.03,-0.7700965486589789,2.124953292684199,3.891105952488854,3.941923522306429,3.982085270680917,4.4798423906463105,1.2761805501096968,-3.641912339362918,0.087707295,-0.83178498,0.39282126,-17.56426,-18.785059999999998,52.677519999999994,69.0
1774823140.7762277,1.3589859008789062e-05,2026-03-29T22:25:40.776,2026-03-29T18:25:40.776,-33756.57,-43977.284999999996,-83411.45999999999,-50278.005,-12121.695,-17288.19,5805.315,-69701.67,1.1783728387416406,-1.6866062760834082,-2.807708210492287,-2.580985030458204,-3.071176858323006,-1.9948768109730932,2.1085916181221673,2.2914298540577267,0.087707295,-0.83178498,0.39282126,-17.56426,-18.785059999999998,52.677519999999994,69.0
1774823140.7762396,1.1920928955078125e-05,2026-03-29T22:25:40.776,2026-03-29T18:25:40.776,-33772.275,-43989.165,-83413.08,-50275.979999999996,-12114.494999999999,-17274.465,5799.33,-69705.405,2.2950379182093106,-4.5434435014655925,-7.98725091079294,-7.649518703064273,-8.4541909897668,-7.167260381193345,1.9934698479228425,6.627979123938897,0.087707295,-0.83178498,0.39282126,-17.56426,-18.785059999999998,52.677519999999994,69.0
1774823140.7762437,4.0531158447265625e-06,2026-03-29T22:25:40.776,2026-03-29T18:25:40.776,-33768.81,-43974.854999999996,-83417.04,-50281.155,-12120.39,-17288.19,5784.66,-69709.545,2.245601959084054,-5.17904135638322,-9.39953260599634,-9.088337284358602,-9.808840794863482,-8.850245150637042,0.8893092609605022,7.618146681889602,0.087707295,-0.83178498,0.39282126,-17.56426,-18.785059999999998,52.677519999999994,69.0
1774823140.7762487,5.0067901611328125e-06,2026-03-29T22:25:40.776,2026-03-29T18:25:40.776,-33742.35,-43946.82,-83417.715,-50294.34,-12139.92,-17310.555,5774.715,-69715.34999999999,1.2878747242787212,-3.423272660881699,-6.584940131762413,-6.453295323058693,-6.70243138991043,-6.554108634155971,-0.7379476827312038,5.204699713906289,0.057800145000000004,-0.8467385550000001,0.39794820000000003,-35.28112,-22.0507,49.274539999999995,69.0
1774823140.7762523,3.5762786865234375e-06,2026-03-29T22:25:40.776,2026-03-29T18:25:40.776,-33754.185,-43955.009999999995,-83417.48999999999,-50294.295,-12140.505,-17298.765,5777.73,-69720.03,0.052449215562504585,-0.22187632074480557,-0.9963077131602941,-1.1329018404485682,-0.7369560757389708,-1.580183890861328,-2.12151959022464,0.8715870014810043,0.057800145000000004,-0.8467385550000001,0.39794820000000003,-35.28112,-22.0507,49.274539999999995,69.0
1774823140.7810633,0.00481104850769043,2026-03-29T22:25:40.781,2026-03-29T18:25:40.781,-33752.61,-43957.395,-83419.29,-50295.195,-12140.414999999999,-17289.54,5777.054999999999,-69709.545,-0.832740433772945,2.869827986315668,4.74751452890257,4.377412584554424,5.272013974252468,3.6919569462867687,-2.570842113913466,-3.21457777748909,0.057800145000000004,-0.8467385550000001,0.39794820000000003,-35.28112,-22.0507,49.274539999999995,69.0
1774823140.7810855,2.2172927856445312e-05,2026-03-29T22:25:40.781,2026-03-29T18:25:40.781,-33731.055,-43958.655,-83422.485,-50295.555,-12139.605,-17289.09,5768.1449999999995,-69687.315,-1.0624876058238697,4.449112405317036,8.09606642951165,7.650878639935108,8.627679824542284,6.942231316493323,-1.82658100507314,-5.291390182659808,0.057800145000000004,-0.8467385550000001,0.39794820000000003,-35.28112,-22.0507,49.274539999999995,69.0
1774823140.7853029,0.004217386245727539,2026-03-29T22:25:40.785,2026-03-29T18:25:40.785,-33738.479999999996,-43961.174999999996,-83406.33,-50278.905,-12126.734999999999,-17282.52,5765.67,-69693.93,-0.7555062191462072,3.9075711648387874,7.704453789084007,7.398596374077281,7.963555582082685,6.929091564120341,-0.20679215668251336,-4.769020437773494,0.057800145000000004,-0.8467385550000001,0.39794820000000003,-35.28112,-22.0507,49.274539999999995,69.0
1774823140.785324,2.1219253540039062e-05,2026-03-29T22:25:40.785,2026-03-29T18:25:40.785,-33753.915,-43975.215,-83423.205,-50296.545,-12141.045,-17289.945,5770.3949999999995,-69690.33,-0.30487102271600475,1.6566839553336212,3.9643987051335885,3.9615471875076156,3.7897571147635807,3.9437992299386595,1.5368927646623582,-2.341225706176776,0.057800145000000004,-0.8467385550000001,0.39794820000000003,-35.28112,-22.0507,49.274539999999995,69.0
1774823140.7992685,0.013944387435913086,2026-03-29T22:25:40.799,2026-03-29T18:25:40.799,-33737.265,-43975.53,-83448.495,-50325.93,-12174.525,-17324.46,5768.82,-69665.355,-0.08684730884480722,-1.1407933708770506,-1.2750088144808394,-0.9530857949090751,-1.8383137989775458,-0.4544259531863751,2.5839185500245843,0.5406143733435916,0.057800145000000004,-0.8467385550000001,0.39794820000000003,-35.28112,-22.0507,49.274539999999995,69.0
1774823140.7992942,2.574920654296875e-05,2026-03-29T22:25:40.799,2026-03-29T18:25:40.799,-33750.765,-43973.46,-83435.44499999999,-50311.845,-12166.92,-17322.57,5778.9,-69690.42,-0.2108689755059448,-3.17061607241822,-5.62119683538294,-5.1184902915006605,-6.330261480976098,-4.2399135054149415,2.4460924334410583,2.492609009034797,0.057800145000000004,-0.8467385550000001,0.39794820000000003,-35.28112,-22.0507,49.274539999999995,69.0
1774823140.799315,2.0742416381835938e-05,2026-03-29T22:25:40.799,2026-03-29T18:25:40.799,-33773.805,-43966.305,-83410.65,-50279.13,-12131.055,-17285.76,5790.0599999999995,-69728.13,-0.4611896813027844,-3.5889269627640163,-7.234838575193104,-6.798286474552813,-7.754096687726022,-5.851718695537341,1.2024263950582144,2.8678914623685254,0.057800145000000004,-0.8467385550000001,0.39794820000000003,-35.28112,-22.0507,49.274539999999995,69.0
1774823140.7993248,9.775161743164062e-06,2026-03-29T22:25:40.799,2026-03-29T18:25:40.799,-33758.82,-43966.17,-83414.87999999999,-50280.03,-12128.175,-17281.53,5780.07,-69700.95,-0.46267572052690953,-2.3702491117383624,-5.605004408142999,-5.461752337710556,-5.662733544237596,-4.827601966783509,-0.5487215783771626,1.9444671766292874,0.057800145000000004,-0.8467385550000001,0.39794820000000003,-35.28112,-22.0507,49.274539999999995,69.0
1774823140.799337,1.2159347534179688e-05,2026-03-29T22:25:40.799,2026-03-29T18:25:40.799,-33745.95,-43961.4,-83416.455,-50289.615,-12138.345,-17290.98,5770.035,-69685.29,0.033351446980343986,-0.24023657345493585,-1.6783362853683568,-1.9148087754708354,-1.2028172561799326,-1.8889793459430675,-1.9906474289391665,0.5936424228595997,0.026184015,-0.874814655,0.40124409,-46.28358,-26.2472,42.05656,69.0
1774823140.7993467,9.775161743164062e-06,2026-03-29T22:25:40.799,2026-03-29T18:25:40.799,-33751.755,-43961.985,-83412.72,-50289.525,-12132.09,-17280.36,5770.26,-69687.765,0.9244191573998818,1.737642386024464,2.667896151253266,2.159792208835503,3.4985310593650505,1.5032831118276815,-2.4853153936064443,-0.32494278253697534,0.026184015,-0.874814655,0.40124409,-46.28358,-26.2472,42.05656,69.0
1774823140.8038473,0.004500627517700195,2026-03-29T22:25:40.803,2026-03-29T18:25:40.803,-33752.655,-43973.595,-83427.56999999999,-50306.625,-12141.404999999999,-17280.899999999998,5769.8099999999995,-69675.12,1.7463574451039021,2.692546677458007,5.523446223603867,4.999657516452083,6.3468884012313085,3.8672919525404237,-1.8660269976468917,-0.46866138723281164,0.026184015,-0.874814655,0.40124409,-46.28358,-26.2472,42.05656,69.0
1774823140.8038745,2.7179718017578125e-05,2026-03-29T22:25:40.803,2026-03-29T18:25:40.803,-33765.435,-43971.884999999995,-83415.105,-50301.0,-12146.49,-17282.204999999998,5771.474999999999,-69693.20999999999,1.9087486525206283,2.329624169510213,5.784240363208354,5.5203915819215945,6.2118756064256155,4.342890104446759,-0.48643634829557536,-0.13377331671025156,0.026184015,-0.874814655,0.40124409,-46.28358,-26.2472,42.05656,69.0
1774823140.8052783,0.00140380859375,2026-03-29T22:25:40.805,2026-03-29T18:25:40.805,-33765.84,-43969.365,-83415.23999999999,-50294.34,-12141.09,-17279.73,5774.804999999999,-69706.845,1.0595603347073002,0.9981981355179413,3.565168679003599,3.71099722414417,3.363879960228939,2.9827612218523796,0.9836749192258765,0.04598289463245915,0.026184015,-0.874814655,0.40124409,-46.28358,-26.2472,42.05656,69.0
1774823140.80529,1.1682510375976562e-05,2026-03-29T22:25:40.805,2026-03-29T18:25:40.805,-33757.604999999996,-43969.994999999995,-83420.775,-50298.615,-12146.535,-17291.385,5772.78,-69692.04,-0.6296882494432089,-0.5541675919604949,0.04056727635085112,0.5341070530898598,-0.7456991261643543,0.6065562206440941,1.897570176481852,-0.39090777489118966,0.026184015,-0.874814655,0.40124409,-46.28358,-26.2472,42.05656,69.0
1774823140.8091583,0.0038683414459228516,2026-03-29T22:25:40.809,2026-03-29T18:25:40.809,-33747.84,-43951.005,-83390.94,-50275.215,-12128.355,-17279.505,5763.105,-69687.765,-2.444695240041711,-1.588032697335758,-3.165222799299258,-2.574553426263857,-4.215728112776559,-1.6601802122615466,1.9279127497425999,-1.3508209473974635,0.026184015,-0.874814655,0.40124409,-46.28358,-26.2472,42.05656,69.0
1774823140.8091905,3.218650817871094e-05,2026-03-29T22:25:40.809,2026-03-29T18:25:40.809,-33730.65,-43944.884999999995,-83395.125,-50281.74,-12135.465,-17281.485,5760.224999999999,-69668.955,-3.428558897161929,-1.7228802271772075,-4.725593848501018,-4.351825255544259,-5.57333579370543,-2.9140769205718255,1.178636701905704,-2.1828728455674984,0.026184015,-0.874814655,0.40124409,-46.28358,-26.2472,42.05656,69.0
1774823140.812867,0.0036764144897460938,2026-03-29T22:25:40.812,2026-03-29T18:25:40.812,-33753.33,-43956.045,-83386.75499999999,-50264.235,-12118.14,-17262.495,5776.605,-69695.955,-2.876655594028713,-1.0669976134058476,-4.154323936779928,-4.209664672714256,-4.394324061434496,-2.8238607267136686,0.07722607466790114,-2.0777084825956247,0.026184015,-0.874814655,0.40124409,-46.28358,-26.2472,42.05656,69.0
1774823140.8128905,2.3603439331054688e-05,2026-03-29T22:25:40.812,2026-03-29T18:25:40.812,-33777.63,-43965.36,-83377.665,-50245.695,-12099.51,-17247.6,5792.76,-69720.39,-0.7741406424659709,-0.08894671114352289,-1.9250614702034163,-2.4010642975905183,-1.407535715886558,-1.6724548691714352,-0.87204205571841,-0.6360362867024305,0.026184015,-0.874814655,0.40124409,-46.28358,-26.2472,42.05656,69.0
1774823140.8171,0.0042095184326171875,2026-03-29T22:25:40.817,2026-03-29T18:25:40.817,-33756.795,-43964.729999999996,-83404.125,-50277.284999999996,-12130.74,-17282.655,5781.33,-69700.31999999999,2.076557744953664,0.6731028634863574,0.8399026035875654,0.17886360397688159,1.9235101299945778,-0.12156105551418898,-1.3310051639058331,1.7460186649709837,-0.001281735,-0.90380628,0.40148823,-52.83012,-33.46518,33.75512,69.0
1774823140.8171175,1.7404556274414062e-05,2026-03-29T22:25:40.817,2026-03-29T18:25:40.817,-33734.655,-43953.615,-83405.61,-50283.854999999996,-12139.064999999999,-17294.309999999998,5777.6849999999995,-69692.715,4.3517815485469455,0.8963156860010176,2.926976490836685,2.428941306099488,4.112475950826728,1.1473531727606874,-1.2440513067365,3.9439946470748963,-0.001281735,-0.90380628,0.40148823,-52.83012,-33.46518,33.75512,69.0
1774823140.82135,0.004232645034790039,2026-03-29T22:25:40.821,2026-03-29T18:25:40.821,-33741.9,-43956.99,-83387.205,-50257.439999999995,-12109.275,-17259.255,5791.86,-69702.345,4.823145375186217,0.6058346046903974,3.5613218437783676,3.5060430167282486,4.311987337074263,1.7285271854611015,-0.7900397431929468,4.643863326348328,-0.001281735,-0.90380628,0.40148823,-52.83012,-33.46518,33.75512,69.0
1774823140.821375,2.47955322265625e-05,2026-03-29T22:25:40.821,2026-03-29T18:25:40.821,-33751.17,-43968.33,-83390.58,-50249.025,-12097.35,-17239.05,5787.63,-69699.555,3.0069024343095903,0.10346269862577176,2.679968915784137,3.1253840455109976,2.6318610186061724,1.5980288600259505,-0.22759107707808846,3.0908864263241775,-0.001281735,-0.90380628,0.40148823,-52.83012,-33.46518,33.75512,69.0
1774823140.826394,0.005019187927246094,2026-03-29T22:25:40.826,2026-03-29T18:25:40.826,-33763.14,-43964.549999999996,-83404.75499999999,-50267.564999999995,-12115.845,-17254.53,5783.849999999999,-69706.34999999999,-0.49175879617106977,-0.2461917771453172,0.8603508366610455,1.5992825611726502,-0.0002963474971178081,1.0182348730370845,0.2568363005301643,-0.36537588406503735,-0.001281735,-0.90380628,0.40148823,-52.83012,-33.46518,33.75512,69.0
1774823140.8264115,1.7404556274414062e-05,2026-03-29T22:25:40.826,2026-03-29T18:25:40.826,-33761.7,-43958.564999999995,-83417.44499999999,-50289.795,-12140.91,-17276.805,5774.76,-69716.745,-4.154005611293121,-0.23987009898777079,-1.0186475383732596,-0.3630894245157986,-2.3330129567735165,0.3309460036727897,0.6078490142624122,-4.272054613419241,-0.001281735,-0.90380628,0.40148823,-52.83012,-33.46518,33.75512,69.0
1774823140.8292687,0.002857208251953125,2026-03-29T22:25:40.829,2026-03-29T18:25:40.829,-33762.869999999995,-43969.77,-83419.605,-50288.445,-12135.285,-17265.329999999998,5773.995,-69712.065,-6.208508864402038,0.056655909308303616,-2.196281573549988,-1.98019795868623,-3.383503228864415,-0.22951536949798804,0.8495188844061128,-6.690205866869961,-0.001281735,-0.90380628,0.40148823,-52.83012,-33.46518,33.75512,69.0
1774823140.8292823,1.3589859008789062e-05,2026-03-29T22:25:40.829,2026-03-29T18:25:40.829,-33753.42,-43967.159999999996,-83425.275,-50302.034999999996,-12147.525,-17273.52,5767.245,-69707.25,-5.490284897598906,0.37060627971244536,-2.332361787190759,-2.701307364733389,-2.8498064943001635,-0.6060723393506677,0.9833686169389227,-6.162736089318212,-0.001281735,-0.90380628,0.40148823,-52.83012,-33.46518,33.75512,69.0
1774823140.8330743,0.0037920475006103516,2026-03-29T22:25:40.833,2026-03-29T18:25:40.833,-33737.49,-43971.345,-83419.37999999999,-50293.89,-12131.82,-17261.73,5777.054999999999,-69698.43,-2.080161222218641,0.40895176860355453,-1.5756484431345572,-2.3755536379395625,-1.1708297581775466,-0.8571081092585529,0.928402934757888,-2.5476216232372884,-0.001281735,-0.90380628,0.40148823,-52.83012,-33.46518,33.75512,69.0
1774823140.8330865,1.2159347534179688e-05,2026-03-29T22:25:40.833,2026-03-29T18:25:40.833,-33772.86,-43993.89,-83412.94499999999,-50283.134999999995,-12116.835,-17255.07,5792.355,-69703.56,2.6183997638471177,0.05609007796670213,-0.40545193711425365,-1.2459906759500414,0.7591855346154442,-1.0298568029713533,0.5622668524587341,2.7445183425809025,-0.001281735,-0.90380628,0.40148823,-52.83012,-33.46518,33.75512,69.0
1774823140.8372104,0.0041239261627197266,2026-03-29T22:25:40.837,2026-03-29T18:25:40.837,-33767.055,-43980.119999999995,-83413.395,-50291.415,-12139.605,-17292.78,5782.23,-69704.81999999999,6.453232004960009,-0.5350123977365622,0.6426489648257041,0.1977878386406592,2.054706297458224,-1.069680087263263,-0.1548018502652531,7.295652183409064,-0.021423285,-0.93444585,0.40307514,-59.117239999999995,-39.965939999999996,30.9778,69.0
1774823140.8372383,2.7894973754882812e-05,2026-03-29T22:25:40.837,2026-03-29T18:25:40.837,-33735.869999999995,-43954.2,-83400.795,-50279.805,-12137.76,-17278.605,5779.665,-69696.045,7.515815356563712,-1.014189633271804,1.2193155527942883,1.4280753708450216,2.245678158054148,-0.8358312319525933,-1.0619711850058988,8.800114382198505,-0.021423285,-0.93444585,0.40307514,-59.117239999999995,-39.965939999999996,30.9778,69.0
1774823140.841194,0.0039556026458740234,2026-03-29T22:25:40.841,2026-03-29T18:25:40.841,-33730.965,-43948.71,-83399.08499999999,-50275.125,-12127.859999999999,-17245.125,5793.705,-69687.405,5.0918293459684865,-1.0319508951396268,1.2639416102937846,2.062171610362571,1.440181203287406,-0.21989264897768335,-1.7888795183791968,6.233643131962055,-0.021423285,-0.93444585,0.40307514,-59.117239999999995,-39.965939999999996,30.9778,69.0
1774823140.8412132,1.9311904907226562e-05,2026-03-29T22:25:40.841,2026-03-29T18:25:40.841,-33731.19,-43959.06,-83414.06999999999,-50290.56,-12140.82,-17256.87,5787.135,-69682.36499999999,0.09629341392215045,-0.45530653774768803,0.9456994955401878,1.9621811982143773,0.1907973917585983,0.7107988601273003,-1.9014122947964935,0.4787729178005732,-0.021423285,-0.93444585,0.40307514,-59.117239999999995,-39.965939999999996,30.9778,69.0
1774823140.845034,0.003820657730102539,2026-03-29T22:25:40.845,2026-03-29T18:25:40.845,-33740.505,-43966.845,-83414.565,-50288.67,-12137.85,-17255.34,5789.16,-69680.06999999999,-5.257699024829949,0.5211912913958766,0.5069411658874713,1.2369351170671907,-0.8382678447002173,1.6507539789361776,-1.1481933972652856,-5.953243076363488,-0.021423285,-0.93444585,0.40307514,-59.117239999999995,-39.965939999999996,30.9778,69.0
1774823140.8450592,2.5272369384765625e-05,2026-03-29T22:25:40.845,2026-03-29T18:25:40.845,-33745.994999999995,-43968.915,-83414.47499999999,-50289.255,-12137.4,-17251.829999999998,5788.844999999999,-69683.94,-8.445075445813677,1.4397334676771674,0.1132648777478456,0.16898815735622588,-1.2165204422069011,2.1437167951119607,0.3280063043987538,-10.031223882508781,-0.021423285,-0.93444585,0.40307514,-59.117239999999995,-39.965939999999996,30.9778,69.0
1774823140.8491783,0.004119157791137695,2026-03-29T22:25:40.849,2026-03-29T18:25:40.849,-33766.56,-43968.509999999995,-83403.045,-50276.07,-12127.05,-17244.36,5787.405,-69709.77,-7.8279921731825235,1.7974808352009213,-0.2058689808236587,-0.8921780605782543,-0.9285451064018683,1.8027334854200778,1.9581223544554403,-9.647795589758925,-0.021423285,-0.93444585,0.40307514,-59.117239999999995,-39.965939999999996,30.9778,69.0
1774823140.8491988,2.0503997802734375e-05,2026-03-29T22:25:40.849,2026-03-29T18:25:40.849,-33749.865,-43963.29,-83405.97,-50279.805,-12136.05,-17257.815,5776.92,-69690.105,-3.495100659382847,1.313128633844258,-0.506604665181691,-1.6323298414316627,-0.3142041683635893,0.5577385726099521,2.95670794920487,-4.70392092667954,-0.021423285,-0.93444585,0.40307514,-59.117239999999995,-39.965939999999996,30.9778,69.0
1774823140.8540928,0.0048940181732177734,2026-03-29T22:25:40.854,2026-03-29T18:25:40.854,-33720.795,-43947.494999999995,-83387.97,-50269.59,-12134.34,-17256.465,5781.014999999999,-69654.915,2.6881824856864367,0.10375226430217616,-0.8204862978711721,-1.8470088913241738,0.17693375452424054,-1.2129607157800695,2.702404711386254,2.721796486902017,-0.021423285,-0.93444585,0.40307514,-59.117239999999995,-39.965939999999996,30.9778,69.0
1774823140.8541112,1.8358230590820312e-05,2026-03-29T22:25:40.854,2026-03-29T18:25:40.854,-33716.7,-43966.665,-83415.375,-50289.03,-12145.77,-17268.48,5771.969999999999,-69648.705,7.884512295782566,-1.328379138813514,-1.0700405418064203,-1.481742319534312,0.26580634156938115,-2.7709416486320166,1.1036880397249933,9.252840607386462,-0.021423285,-0.93444585,0.40307514,-59.117239999999995,-39.965939999999996,30.9778,69.0
1774823140.8573718,0.0032606124877929688,2026-03-29T22:25:40.857,2026-03-29T18:25:40.857,-33725.159999999996,-43982.235,-83412.72,-50275.89,-12127.455,-17253.45,5775.03,-69646.005,9.59675908711653,-2.308098929376995,-1.077391766829922,-0.6401606096574397,-0.0024726594738752584,-3.3230727594452274,-1.258457893572712,11.768180275241667,-0.03088371,-0.95348877,0.4077138,-62.871199999999995,-44.070879999999995,30.55052,69.0
1774823140.8573897,1.7881393432617188e-05,2026-03-29T22:25:40.857,2026-03-29T18:25:40.857,-33748.515,-43988.85,-83408.48999999999,-50265.134999999995,-12114.314999999999,-17239.364999999998,5789.925,-69651.27,6.876162978130918,-2.307092859541995,-0.6726625915577369,0.4375201581959903,-0.31437692878599516,-2.4195198011531054,-3.326073844442712,8.906559739934213,-0.03088371,-0.95348877,0.4077138,-62.871199999999995,-44.070879999999995,30.55052,69.0
1774823140.8612328,0.003843069076538086,2026-03-29T22:25:40.861,2026-03-29T18:25:40.861,-33749.595,-43948.755,-83386.75499999999,-50256.494999999995,-12109.545,-17231.489999999998,5783.985,-69698.205,0.838473871413811,-1.2192464051862604,0.15884886670357054,1.4262278822237342,-0.31362691313168345,-0.24743819430564615,-4.042117803413327,1.791418983797928,-0.03088371,-0.95348877,0.4077138,-62.871199999999995,-44.070879999999995,30.55052,69.0
1774823140.861259,2.6226043701171875e-05,2026-03-29T22:25:40.861,2026-03-29T18:25:40.861,-33761.475,-43955.055,-83406.555,-50284.395,-12141.72,-17257.095,5760.585,-69725.43,-5.7889578478741415,0.5482872189987504,1.1868221753090533,1.997266107374486,0.14180950480030544,2.352950393983018,-2.8929989334852446,-6.404699341329994,-0.03088371,-0.95348877,0.4077138,-62.871199999999995,-44.070879999999995,30.55052,69.0
1774823140.8650403,0.0037813186645507812,2026-03-29T22:25:40.865,2026-03-29T18:25:40.865,-33756.75,-43976.34,-83440.485,-50320.17,-12178.664999999999,-17291.745,5774.58,-69702.705,-9.907961094323804,2.2266286190290794,1.978869153260432,1.9185957228272696,0.8505171322532324,4.203232220326894,-0.23621216164610334,-11.889965138453713,-0.03088371,-0.95348877,0.4077138,-62.871199999999995,-44.070879999999995,30.55052,69.0
1774823140.8650663,2.5987625122070312e-05,2026-03-29T22:25:40.865,2026-03-29T18:25:40.865,-33736.14,-43984.034999999996,-83457.22499999999,-50339.61,-12198.195,-17310.87,5788.08,-69660.855,-9.509738310953075,3.023090373193269,2.082520098701431,1.1484189042878266,1.3546996797648103,4.320691641596544,2.783701358774546,-12.025839320521511,-0.03088371,-0.95348877,0.4077138,-62.871199999999995,-44.070879999999995,30.55052,69.0
1774823140.869849,0.004782676696777344,2026-03-29T22:25:40.869,2026-03-29T18:25:40.869,-33724.71,-43984.125,-83455.11,-50335.02,-12190.455,-17304.434999999998,5777.82,-69637.455,-4.660964973594598,2.4955844285988054,1.2696747747351147,-0.11522943401196778,1.2071788936522503,2.4300386646355463,4.730815762696027,-6.605870657768735,-0.03088371,-0.95348877,0.4077138,-62.871199999999995,-44.070879999999995,30.55052,69.0
1774823140.8698575,8.58306884765625e-06,2026-03-29T22:25:40.869,2026-03-29T18:25:40.869,-33747.75,-43982.325,-83440.62,-50314.59,-12168.18,-17283.825,5777.099999999999,-69672.105,2.471018490095138,0.7869520949712773,-0.2837314709232974,-1.4631988739289363,0.27145223746614855,-0.8092145220536733,4.569340534511839,1.982750400255343,-0.03088371,-0.95348877,0.4077138,-62.871199999999995,-44.070879999999995,30.55052,69.0
1774823140.87331,0.0034525394439697266,2026-03-29T22:25:40.873,2026-03-29T18:25:40.873,-33777.99,-43969.229999999996,-83405.565,-50272.335,-12125.34,-17242.29,5794.785,-69725.385,8.592520866502877,-1.4010538490869464,-1.9963488653005235,-2.3936780249857734,-1.1249089441216584,-4.0104875239298154,2.213931517140184,9.819938147227942,-0.03088371,-0.95348877,0.4077138,-62.871199999999995,-44.070879999999995,30.55052,69.0
1774823140.8733332,2.3126602172851562e-05,2026-03-29T22:25:40.873,2026-03-29T18:25:40.873,-33748.424999999996,-43969.77,-83420.73,-50289.57,-12143.744999999999,-17261.235,5782.995,-69692.13,10.81676347557152,-3.0978959107201027,-3.093213221637773,-2.4941017212061305,-2.2948514853163187,-5.6516728469772675,-1.3534063735229125,13.259933137565426,-0.03088371,-0.95348877,0.4077138,-62.871199999999995,-44.070879999999995,30.55052,69.0
1774823140.877522,0.0041887760162353516,2026-03-29T22:25:40.877,2026-03-29T18:25:40.877,-33712.875,-43975.08,-83447.595,-50323.32,-12183.435,-17302.14,5750.73,-69658.065,8.036751992114999,-3.497803452854544,-2.9566723920999975,-1.6232081244555794,-2.5274875556097216,-4.7998473210723755,-4.492016793311551,10.64387717290435,-0.04370106,-0.950986335,0.411436935,-70.36386,-50.2054,34.38078,69.0
1774823140.8775384,1.6450881958007812e-05,2026-03-29T22:25:40.877,2026-03-29T18:25:40.877,-33728.534999999996,-43984.755,-83439.405,-50311.259999999995,-12175.515,-17296.47,5744.61,-69673.86,1.479665489350141,-2.3420471858407916,-1.4575674287826614,-0.013439514459439974,-1.4919373457094147,-1.6240727488368445,-5.667371604927896,3.1062799187920187,-0.04370106,-0.950986335,0.411436935,-70.36386,-50.2054,34.38078,69.0
1774823140.8812325,0.0036940574645996094,2026-03-29T22:25:40.881,2026-03-29T18:25:40.881,-33763.14,-43991.865,-83427.705,-50297.354999999996,-12165.48,-17288.055,5755.59,-69677.86499999999,-5.8362755412819585,-0.06891239845397464,0.9052298781393289,1.7679983486042263,0.5109789738302621,2.5791556133214155,-4.210637066193603,-5.919046751044611,-0.04370106,-0.950986335,0.411436935,-70.36386,-50.2054,34.38078,69.0
1774823140.8812585,2.5987625122070312e-05,2026-03-29T22:25:40.881,2026-03-29T18:25:40.881,-33796.485,-43967.79,-83397.69,-50262.479999999996,-12128.265,-17247.6,5779.755,-69727.14,-10.501407968268582,2.350504966729336,3.154693051675946,3.009021238020436,2.609942601152242,5.908109485401083,-0.6929001162315651,-12.277262366614838,-0.04370106,-0.950986335,0.411436935,-70.36386,-50.2054,34.38078,69.0
1774823140.8889256,0.007667064666748047,2026-03-29T22:25:40.888,2026-03-29T18:25:40.888,-33778.755,-43961.715,-83399.715,-50261.58,-12124.305,-17239.635,5796.63,-69730.47,-10.31682395514537,3.830343015093882,4.239451789480995,3.1354260204545468,3.7437193532606035,6.719819315036354,3.292805653841193,-13.023253434075755,-0.04370106,-0.950986335,0.411436935,-70.36386,-50.2054,34.38078,69.0
