unix_time_s,dt_s,UTC,LOCAL,EMG1_Raw,EMG2_Raw,EMG3_Raw,EMG4_Raw,EMG5_Raw,EMG6_Raw,EMG7_Raw,EMG8_Raw,EMG1_Filtered,EMG2_Filtered,EMG3_Filtered,EMG4_Filtered,EMG5_Filtered,EMG6_Filtered,EMG7_Filtered,EMG8_Filtered,Accel1_Raw,Accel2_Raw,Accel3_Raw,Gyro1_Raw,Gyro2_Raw,Gyro3_Raw,Battery
1774822007.6712892,,2026-03-29T22:06:47.671,2026-03-29T18:06:47.671,-31417.605,-49249.215,-83798.50499999999,-49932.405,-14713.244999999999,-20075.309999999998,5361.795,-38170.799999999996,-0.10008364571986782,-0.17497562508042172,-1.1711477932636818,-1.9803298210905318,-2.7380101458897026,-3.187169471011239,-1.2856835937435331,1.3353237713706403,-0.293517315,-0.944272485,-0.101745345,4.3338399999999995,3.18934,4.77638,72.0
1774822007.6713195,3.0279159545898438e-05,2026-03-29T22:06:47.671,2026-03-29T18:06:47.671,-31449.375,-49271.67,-83822.67,-49948.56,-14718.914999999999,-20068.965,5299.38,-38189.655,-0.6797140010530486,-0.668503407154728,-1.5252947476233298,-2.1643921173364054,-5.39262694459646,1.8436040950676018,-23.35870366705666,6.069455030416404,-0.293517315,-0.944272485,-0.101745345,4.3338399999999995,3.18934,4.77638,72.0
1774822007.6752572,0.003937721252441406,2026-03-29T22:06:47.675,2026-03-29T18:06:47.675,-31452.03,-49266.494999999995,-83816.81999999999,-49944.284999999996,-14722.92,-20065.32,5246.415,-38196.9,-1.1408239996397855,-1.1824672001238725,-1.4737851868971519,-1.5864873151357115,-5.762724852962163,6.115838426817757,-35.15671970265471,7.87143446794343,-0.293517315,-0.944272485,-0.101745345,4.3338399999999995,3.18934,4.77638,72.0
1774822007.6752763,1.9073486328125e-05,2026-03-29T22:06:47.675,2026-03-29T18:06:47.675,-31433.94,-49258.395,-83810.61,-49944.869999999995,-14744.97,-20079.405,5304.6449999999995,-38182.814999999995,-1.2009461787773117,-1.3657673556952956,-0.9253760858034673,-0.4130262186996609,-3.652585450937287,7.594778697597008,-31.46907783781388,5.789687878868398,-0.293517315,-0.944272485,-0.101745345,4.3338399999999995,3.18934,4.77638,72.0
1774822007.6803052,0.005028963088989258,2026-03-29T22:06:47.680,2026-03-29T18:06:47.680,-31388.039999999997,-49232.295,-83803.05,-49946.445,-14751.81,-20100.735,5306.535,-38164.185,-0.702408626931649,-0.9126817308879354,0.07412341341680438,0.9838858203339409,0.06412914190467763,5.5212276503233335,-13.951739915832839,0.792855449376993,-0.293517315,-0.944272485,-0.101745345,4.3338399999999995,3.18934,4.77638,72.0
1774822007.6803489,4.363059997558594e-05,2026-03-29T22:06:47.680,2026-03-29T18:06:47.680,-31392.989999999998,-49239.134999999995,-83817.045,-49962.6,-14762.789999999999,-20134.755,5262.929999999999,-38173.86,0.2576562851150971,0.19159523954090413,1.2634052110509686,2.1155037142194684,3.7972511189092386,0.7948732043851813,9.610686914259764,-4.679117016397508,-0.293517315,-0.944272485,-0.101745345,4.3338399999999995,3.18934,4.77638,72.0
1774822007.6837358,0.003386974334716797,2026-03-29T22:06:47.683,2026-03-29T18:06:47.683,-31431.195,-49254.57,-83812.36499999999,-49944.15,-14716.35,-20098.079999999998,5292.99,-38191.5,1.311341334002495,1.5555456540323724,2.188036538168332,2.5246142465590684,5.916848174649489,-4.415890604801228,28.781214169621034,-7.908276369881593,-0.278624775,-0.94677492,-0.099059805,-0.2289,6.2566,3.4945399999999998,72.0
1774822007.6837656,2.9802322387695312e-05,2026-03-29T22:06:47.683,2026-03-29T18:06:47.683,-31449.195,-49260.915,-83803.77,-49923.18,-14674.814999999999,-20054.114999999998,5339.79,-38221.875,1.9535481013383043,2.502828735287791,2.3624062080836974,1.9635192893827627,5.46836698024926,-7.66821699740917,35.12611606264114,-7.251733806317336,-0.278624775,-0.94677492,-0.099059805,-0.2289,6.2566,3.4945399999999998,72.0
1774822007.6868706,0.0031049251556396484,2026-03-29T22:06:47.686,2026-03-29T18:06:47.686,-31460.85,-49275.134999999995,-83824.02,-49945.86,-14716.215,-20104.335,5310.675,-38243.115,1.7810663560115376,2.4047783040691115,1.5211456330700652,0.5368195083270354,2.6111602654611685,-7.387401491369851,25.95924703236539,-2.979286207183093,-0.278624775,-0.94677492,-0.099059805,-0.2289,6.2566,3.4945399999999998,72.0
1774822007.686893,2.2411346435546875e-05,2026-03-29T22:06:47.686,2026-03-29T18:06:47.686,-31442.355,-49258.439999999995,-83803.86,-49929.165,-14709.869999999999,-20093.13,5272.29,-38241.405,0.7252335172424031,1.0616595665777995,-0.16872332455320474,-1.2707656127376872,-1.4250215175900955,-3.6246442368855543,5.49732955617331,2.8324556689103515,-0.278624775,-0.94677492,-0.099059805,-0.2289,6.2566,3.4945399999999998,72.0
1774822007.6912844,0.00439143180847168,2026-03-29T22:06:47.691,2026-03-29T18:06:47.691,-31434.48,-49256.775,-83805.075,-49931.865,-14707.89,-20062.665,5291.55,-38206.215,-0.8497742524771944,-1.0872792246565042,-2.076964572280831,-2.732436395325503,-4.863358271449706,1.932500425905541,-17.079831906862417,7.3110122006824,-0.278624775,-0.94677492,-0.099059805,-0.2289,6.2566,3.4945399999999998,72.0
1774822007.6913078,2.3365020751953125e-05,2026-03-29T22:06:47.691,2026-03-29T18:06:47.691,-31436.594999999998,-49242.33,-83779.29,-49902.75,-14677.064999999999,-20030.895,5311.575,-38198.7,-2.2587846202255695,-3.079610149370105,-3.3284023266248672,-3.162446655222979,-6.1639576724225655,6.71646265866933,-31.772284376464537,8.211027225886498,-0.278624775,-0.94677492,-0.099059805,-0.2289,6.2566,3.4945399999999998,72.0
1774822007.69512,0.0038123130798339844,2026-03-29T22:06:47.695,2026-03-29T18:06:47.695,-31409.73,-49228.02,-83773.125,-49898.52,-14670.81,-20029.68,5285.7,-38199.33,-2.792153604962965,-3.860656424018238,-3.205515362832397,-2.239620689401936,-4.722044351587124,8.464094536582902,-32.225707564075655,5.0425318246925555,-0.278624775,-0.94677492,-0.099059805,-0.2289,6.2566,3.4945399999999998,72.0
1774822007.69515,2.9802322387695312e-05,2026-03-29T22:06:47.695,2026-03-29T18:06:47.695,-31421.114999999998,-49270.725,-83831.22,-49956.93,-14723.01,-20077.29,5273.01,-38199.869999999995,-2.0696552310381815,-2.8369922316852403,-1.549746767329836,-0.21778395415853896,-1.1597567451092956,6.283841047517564,-18.509226532063373,-0.6640245941508938,-0.278624775,-0.94677492,-0.099059805,-0.2289,6.2566,3.4945399999999998,72.0
1774822007.699532,0.004382133483886719,2026-03-29T22:06:47.699,2026-03-29T18:06:47.699,-31456.26,-49291.47,-83842.965,-49962.78,-14725.89,-20079.989999999998,5337.045,-38220.345,-0.2765589270831522,-0.26378230454848495,1.0592346116364688,2.1059194997381323,2.9340207746831326,1.1040897185895082,3.023196909571792,-6.098848385736104,-0.278624775,-0.94677492,-0.099059805,-0.2289,6.2566,3.4945399999999998,72.0
1774822007.6995502,1.811981201171875e-05,2026-03-29T22:06:47.699,2026-03-29T18:06:47.699,-31453.245,-49291.244999999995,-83844.9,-49966.784999999996,-14733.269999999999,-20087.19,5373.675,-38227.86,1.8549634460899598,2.7689737733530384,3.4821722489837947,3.6932969988334916,5.711615903775737,-4.720217373377976,22.683803206237677,-8.560278398198044,-0.278624775,-0.94677492,-0.099059805,-0.2289,6.2566,3.4945399999999998,72.0
1774822007.7031534,0.003603219985961914,2026-03-29T22:06:47.703,2026-03-29T18:06:47.703,-31428.405,-49254.615,-83804.58,-49932.945,-14708.564999999999,-20071.215,5336.415,-38228.85,3.3414315740990324,4.7958072785438945,4.518013031291462,3.7306824893066146,5.9073241828071685,-8.47723884267343,31.840426345261033,-6.801338330005715,-0.287169675,-0.945371115,-0.095397705,-3.25038,5.60042,2.9757,72.0
1774822007.7031777,2.4318695068359375e-05,2026-03-29T22:06:47.703,2026-03-29T18:06:47.703,-31420.89,-49226.354999999996,-83767.00499999999,-49894.47,-14671.98,-20030.219999999998,5353.38,-38224.935,3.4035562357484768,4.688943416481934,3.5034919656730716,2.048188465816801,3.4249947003305086,-8.359157065679865,26.741394801449164,-1.6620411658068,-0.287169675,-0.945371115,-0.095397705,-3.25038,5.60042,2.9757,72.0
1774822007.707256,0.004078388214111328,2026-03-29T22:06:47.707,2026-03-29T18:06:47.707,-31453.155,-49261.95,-83800.98,-49923.945,-14693.4,-20040.48,5375.655,-38226.915,1.870051209002413,2.275988686902111,0.7132173279352519,-0.724541598853642,-0.6056085138000536,-4.329088230705446,10.06469065968386,4.333944291852179,-0.287169675,-0.945371115,-0.095397705,-3.25038,5.60042,2.9757,72.0
1774822007.7072878,3.170967102050781e-05,2026-03-29T22:06:47.707,2026-03-29T18:06:47.707,-31465.305,-49298.354999999996,-83851.56,-49971.96,-14736.465,-20094.03,5379.974999999999,-38231.1,-0.6778707927683288,-1.4725666839261546,-2.672638819477389,-3.3776860970203186,-4.3396412612454895,1.8205885304023024,-10.454818488280575,8.223773184770714,-0.287169675,-0.945371115,-0.095397705,-3.25038,5.60042,2.9757,72.0
1774822007.7178855,0.010597705841064453,2026-03-29T22:06:47.717,2026-03-29T18:06:47.717,-31433.805,-49284.27,-83850.12,-49972.994999999995,-14748.48,-20121.84,5318.6849999999995,-38216.295,-3.1188060883488515,-4.826139888572323,-5.0650221087105916,-4.649555964988319,-6.065667274262372,7.264601869397838,-25.62801566740881,8.074732082370337,-0.287169675,-0.945371115,-0.095397705,-3.25038,5.60042,2.9757,72.0
1774822007.7179167,3.123283386230469e-05,2026-03-29T22:06:47.717,2026-03-29T18:06:47.717,-31413.195,-49243.95,-83798.73,-49926.104999999996,-14718.465,-20116.079999999998,5237.82,-38221.38,-4.287802784006825,-6.100947261128346,-5.219678231046989,-3.832931474773651,-4.999199750013686,9.443081003413596,-28.958424071472283,3.9467486528899585,-0.287169675,-0.945371115,-0.095397705,-3.25038,5.60042,2.9757,72.0
1774822007.7179468,3.0040740966796875e-05,2026-03-29T22:06:47.717,2026-03-29T18:06:47.717,-31438.934999999998,-49244.625,-83789.64,-49924.439999999995,-14721.75,-20090.385,5196.105,-38257.92,-3.536332557212041,-4.511301612357459,-2.886645398980336,-1.1647766587434334,-1.6486235037942614,7.265460111711156,-19.446665089890566,-2.1329090252346794,-0.287169675,-0.945371115,-0.095397705,-3.25038,5.60042,2.9757,72.0
1774822007.717956,9.298324584960938e-06,2026-03-29T22:06:47.717,2026-03-29T18:06:47.717,-31468.68,-49274.28,-83813.31,-49942.755,-14727.51,-20060.684999999998,5248.845,-38279.34,-1.0846710899667613,-0.632304030012084,0.9845932562115106,2.214170857044787,2.421752618154056,1.6535804375649754,-1.8305457067388062,-7.171688217930901,-0.287169675,-0.945371115,-0.095397705,-3.25038,5.60042,2.9757,72.0
1774822007.7179673,1.1205673217773438e-05,2026-03-29T22:06:47.717,2026-03-29T18:06:47.717,-31430.07,-49273.244999999995,-83832.03,-49961.205,-14744.744999999999,-20108.745,5327.415,-38252.115,2.022340038391839,3.790991326107062,4.624715689730897,4.745722343587936,5.323173934445705,-4.845977416748507,15.758275552140441,-8.692285731478876,-0.287169675,-0.945371115,-0.095397705,-3.25038,5.60042,2.9757,72.0
1774822007.717976,8.821487426757812e-06,2026-03-29T22:06:47.717,2026-03-29T18:06:47.717,-31408.649999999998,-49244.22,-83802.95999999999,-49930.515,-14711.22,-20140.829999999998,5382.63,-38238.795,4.362706761027262,6.635869627599575,6.261241679021833,5.179822240962336,5.725145231928362,-9.21957599791437,25.566727695193904,-5.9552818476519125,-0.287169675,-0.945371115,-0.095397705,-3.25038,5.60042,2.9757,72.0
1774822007.722926,0.004949808120727539,2026-03-29T22:06:47.722,2026-03-29T18:06:47.722,-31410.18,-49230.494999999995,-83777.94,-49906.755,-14677.74,-20088.675,5378.8949999999995,-38232.494999999995,4.795843254330566,6.4328823809014954,4.991500441141743,3.1977882093403305,3.473137231094127,-9.387676832985,23.66172199864314,-0.31762963582151915,-0.291564195,-0.954526365,-0.09228492,1.526,6.11926,3.815,72.0
1774822007.7229428,1.6927719116210938e-05,2026-03-29T22:06:47.722,2026-03-29T18:06:47.722,-31408.875,-49221.63,-83771.45999999999,-49905.63,-14682.869999999999,-20053.62,5308.11,-38236.77,3.0239895471825737,3.1293080687826023,1.2773838249097509,-0.3805440568529927,-0.34946171961167183,-5.196290340504698,11.501118701895956,5.446892605082138,-0.291564195,-0.954526365,-0.09228492,1.526,6.11926,3.815,72.0
1774822007.7300649,0.007122039794921875,2026-03-29T22:06:47.730,2026-03-29T18:06:47.730,-31408.515,-49226.04,-83779.83,-49914.765,-14695.515,-20056.005,5295.915,-38232.36,-0.22238864028906066,-1.8133866767769242,-3.207955139070445,-3.9321749081507518,-3.941455769990782,1.4759166995796096,-4.989720030329065,8.522147076065645,-0.291564195,-0.954526365,-0.09228492,1.526,6.11926,3.815,72.0
1774822007.7301307,6.580352783203125e-05,2026-03-29T22:06:47.730,2026-03-29T18:06:47.730,-31447.574999999997,-49273.424999999996,-83828.43,-49963.049999999996,-14740.38,-20093.085,5277.15,-38240.505,-3.4850220655441575,-6.070221876015274,-6.3400189704542695,-5.773547007929804,-5.635878561739187,7.56254096858196,-18.298330908945633,7.433277141366752,-0.291564195,-0.954526365,-0.09228492,1.526,6.11926,3.815,72.0
1774822007.7301557,2.5033950805664062e-05,2026-03-29T22:06:47.730,2026-03-29T18:06:47.730,-31455.989999999998,-49298.895,-83853.495,-49982.534999999996,-14745.96,-20077.829999999998,5280.705,-38242.755,-5.241614502569259,-7.560209690044111,-6.56136335639237,-4.967053454439014,-4.6782837407905165,10.226062097412177,-22.76232086301156,2.7555036290162147,-0.291564195,-0.954526365,-0.09228492,1.526,6.11926,3.815,72.0
1774822007.7301655,9.775161743164062e-06,2026-03-29T22:06:47.730,2026-03-29T18:06:47.730,-31434.12,-49262.354999999996,-83794.545,-49913.46,-14671.664999999999,-19999.755,5328.585,-38267.415,-4.627232159744322,-5.476975354811291,-3.664616821699008,-1.8007136363214364,-1.5649846224093567,8.188580599990543,-16.98237659969468,-3.1938751396064147,-0.291564195,-0.954526365,-0.09228492,1.526,6.11926,3.815,72.0
1774822007.7361257,0.005960226058959961,2026-03-29T22:06:47.736,2026-03-29T18:06:47.736,-31392.27,-49211.909999999996,-83751.435,-49871.61,-14632.425,-19971.315,5306.445,-38267.28,-1.8665591243246427,-0.7263094083984074,1.0572829629181766,2.3055206421566763,2.211509453021055,2.348305189307426,-4.18127094620782,-7.514290878536374,-0.291564195,-0.954526365,-0.09228492,1.526,6.11926,3.815,72.0
1774822007.7361424,1.6689300537109375e-05,2026-03-29T22:06:47.736,2026-03-29T18:06:47.736,-31418.594999999998,-49245.93,-83805.165,-49929.795,-14687.865,-20026.755,5258.97,-38275.965,1.8019509387212087,4.466982670600628,5.391249191779228,5.441855466010165,4.8794908790292695,-4.618431092910108,9.52960499249952,-8.147204612651018,-0.291564195,-0.954526365,-0.09228492,1.526,6.11926,3.815,72.0
1774822007.741054,0.004911661148071289,2026-03-29T22:06:47.741,2026-03-29T18:06:47.741,-31448.16,-49279.59,-83831.355,-49955.22,-14716.17,-20057.805,5361.255,-38271.104999999996,4.6889773708634035,7.612991258135851,7.2527035413010035,6.105689085062574,5.22106169949718,-9.49362015114547,18.063251966290576,-4.862031262994892,-0.291564195,-0.954526365,-0.09228492,1.526,6.11926,3.815,72.0
1774822007.7410696,1.5497207641601562e-05,2026-03-29T22:06:47.741,2026-03-29T18:06:47.741,-31448.879999999997,-49269.689999999995,-83806.875,-49926.465,-14688.539999999999,-20035.125,5431.455,-38260.08,5.445623738054021,7.16681477234645,5.700399211098913,3.927578673194038,3.1275837318658093,-10.01720369050634,18.06026488901302,0.6724684424136118,-0.291564195,-0.954526365,-0.09228492,1.526,6.11926,3.815,72.0
1774822007.7428908,0.001821279525756836,2026-03-29T22:06:47.742,2026-03-29T18:06:47.742,-31454.19,-49288.095,-83842.065,-49969.935,-14738.939999999999,-20093.76,5288.715,-38261.97,3.7067002682137575,3.2996312981264206,1.417898771288258,-0.1276151061262003,-0.37575366804952615,-5.944482106066797,10.180884623203685,5.745133004727345,-0.29882736,-0.95043702,-0.09338355,0.2289,5.44782,1.77016,72.0
1774822007.7429042,1.33514404296875e-05,2026-03-29T22:06:47.742,2026-03-29T18:06:47.742,-31420.71,-49247.595,-83803.36499999999,-49935.915,-14713.65,-20075.175,5275.9349999999995,-38254.545,0.2733294120610342,-2.159299486995702,-3.5866367525327503,-4.192001789245775,-3.6336463200052176,0.8391957822523239,-1.4928052102376057,7.943950614018524,-0.29882736,-0.95043702,-0.09338355,0.2289,5.44782,1.77016,72.0
1774822007.7472947,0.0043904781341552734,2026-03-29T22:06:47.747,2026-03-29T18:06:47.747,-31437.135,-49257.45,-83805.39,-49932.0,-14704.335,-20058.344999999998,5300.01,-38264.58,-3.2595029750596027,-6.595110377682869,-6.930696923186712,-6.363072519361153,-5.143154113025989,7.201889064802248,-11.534262544241853,6.312143334767705,-0.29882736,-0.95043702,-0.09338355,0.2289,5.44782,1.77016,72.0
1774822007.7473152,2.0503997802734375e-05,2026-03-29T22:06:47.747,2026-03-29T18:06:47.747,-31453.289999999997,-49298.085,-83851.73999999999,-49975.784999999996,-14742.585,-20089.53,5312.925,-38258.1,-5.256386734011322,-7.874945059732873,-7.00383533032208,-5.601085387439312,-4.243624126870702,10.228700529407984,-15.683100488981879,1.7599404441389068,-0.29882736,-0.95043702,-0.09338355,0.2289,5.44782,1.77016,72.0
1774822007.7508368,0.0035216808319091797,2026-03-29T22:06:47.750,2026-03-29T18:06:47.750,-31421.879999999997,-49257.045,-83798.86499999999,-49921.56,-14689.394999999999,-20041.515,5369.22,-38260.17,-4.814886919978839,-5.389656462804294,-3.753061964310147,-2.228663551619661,-1.3984394876937993,8.573289091325288,-12.630948800734878,-3.443023820250834,-0.29882736,-0.95043702,-0.09338355,0.2289,5.44782,1.77016,72.0
1774822007.750856,1.9073486328125e-05,2026-03-29T22:06:47.750,2026-03-29T18:06:47.750,-31455.765,-49267.755,-83796.03,-49917.015,-14691.42,-20059.695,5373.179999999999,-38271.375,-2.185949651686868,-0.3539466345388893,1.2799016470838234,2.207996503205177,2.047189953530679,3.0619253899351353,-4.346294956110124,-6.81257746746277,-0.29882736,-0.95043702,-0.09338355,0.2289,5.44782,1.77016,72.0
1774822007.7559948,0.005138874053955078,2026-03-29T22:06:47.755,2026-03-29T18:06:47.755,-31446.09,-49224.509999999995,-83761.47,-49885.74,-14662.98,-20042.505,5366.97,-38282.04,1.3606154735901514,4.787132594080501,5.6940469982113004,5.6547144902823065,4.503430831617413,-3.725017670149261,5.079750299000997,-6.848888246363584,-0.29882736,-0.95043702,-0.09338355,0.2289,5.44782,1.77016,72.0
1774822007.7560108,1.5974044799804688e-05,2026-03-29T22:06:47.756,2026-03-29T18:06:47.756,-31423.184999999998,-49229.055,-83787.03,-49920.21,-14700.555,-20078.415,5312.474999999999,-38272.14,4.15667078681725,7.55517238466334,7.38395856890049,6.506613913157538,4.864344345724864,-8.680944448328727,11.42226908724944,-3.7045692802087538,-0.29882736,-0.95043702,-0.09338355,0.2289,5.44782,1.77016,72.0
1774822007.7632265,0.007215738296508789,2026-03-29T22:06:47.763,2026-03-29T18:06:47.763,-31406.129999999997,-49246.604999999996,-83812.815,-49949.595,-14733.045,-20110.995,5280.255,-38254.14,4.93647829668154,6.648584846794194,5.554192590162449,4.357690532023582,2.9955585963267035,-9.617255397653562,12.189185372665639,0.9760689680218253,-0.29882736,-0.95043702,-0.09338355,0.2289,5.44782,1.77016,72.0
1774822007.76325,2.3603439331054688e-05,2026-03-29T22:06:47.763,2026-03-29T18:06:47.763,-31412.61,-49250.564999999995,-83808.0,-49940.595,-14724.494999999999,-20087.505,5295.15,-38251.979999999996,3.4264738362192273,2.568554380756351,1.1001273122912911,0.19170869572156268,-0.22855434802696786,-6.241236563694331,7.554040632755354,4.924656525410254,-0.29882736,-0.95043702,-0.09338355,0.2289,5.44782,1.77016,72.0
1774822007.7632675,1.7404556274414062e-05,2026-03-29T22:06:47.763,2026-03-29T18:06:47.763,-31438.53,-49267.71,-83821.905,-49947.255,-14714.55,-20062.125,5300.6849999999995,-38262.015,0.4414831980369184,-2.6460880049120745,-3.829338749562272,-4.073418742252299,-3.3381806261561633,-0.2236332499512328,0.03462370068816227,6.362711619130789,-0.302672565,-0.945493185,-0.088073505,-5.753019999999999,6.409199999999999,3.57084,72.0
1774822007.7632759,8.344650268554688e-06,2026-03-29T22:06:47.763,2026-03-29T18:06:47.763,-31441.5,-49266.54,-83814.525,-49940.1,-14704.47,-20046.78,5300.46,-38269.755,-2.547765824481662,-6.4385731297584,-6.873246272036303,-6.473362411112518,-4.93336218887926,5.64362724096323,-6.82024787077417,4.808140914584417,-0.302672565,-0.945493185,-0.088073505,-5.753019999999999,6.409199999999999,3.57084,72.0
1774822007.767632,0.0043561458587646484,2026-03-29T22:06:47.767,2026-03-29T18:06:47.767,-31444.379999999997,-49282.83,-83826.675,-49944.465,-14712.164999999999,-20057.579999999998,5335.11,-38259.0,-4.149358575674894,-6.997747802566299,-6.596883258901634,-5.903529894275075,-4.301691115943114,8.769189858384836,-10.067588686638945,1.2057086870070515,-0.302672565,-0.945493185,-0.088073505,-5.753019999999999,6.409199999999999,3.57084,72.0
1774822007.7676606,2.86102294921875e-05,2026-03-29T22:06:47.767,2026-03-29T18:06:47.767,-31444.02,-49286.835,-83838.19499999999,-49958.415,-14732.595,-20090.745,5324.804999999999,-38255.895,-3.7163079234387677,-4.136832096033895,-3.1748576956397643,-2.625079598598583,-1.7222256634547168,7.925154437513796,-8.591596827173422,-2.6319845456128035,-0.302672565,-0.945493185,-0.088073505,-5.753019999999999,6.409199999999999,3.57084,72.0
1774822007.7727401,0.005079507827758789,2026-03-29T22:06:47.772,2026-03-29T18:06:47.772,-31436.504999999997,-49257.18,-83809.395,-49934.97,-14719.455,-20106.855,5288.085,-38266.29,-1.6174504185776661,0.6445957043111188,1.7087024135961189,1.8590807154501099,1.6658219342756502,3.718974664780138,-3.4261120439779136,-4.948953679897234,-0.302672565,-0.945493185,-0.088073505,-5.753019999999999,6.409199999999999,3.57084,72.0
1774822007.7727656,2.5510787963867188e-05,2026-03-29T22:06:47.772,2026-03-29T18:06:47.772,-31446.899999999998,-49248.81,-83793.87,-49926.104999999996,-14722.109999999999,-20135.835,5260.86,-38276.955,1.0058173038025469,4.936104136190726,5.688066824979204,5.496406252859215,4.362922573109112,-1.802415525727464,2.872012664232216,-4.859002539283587,-0.302672565,-0.945493185,-0.088073505,-5.753019999999999,6.409199999999999,3.57084,72.0
1774822007.777483,0.004717350006103516,2026-03-29T22:06:47.777,2026-03-29T18:06:47.777,-31442.805,-49264.064999999995,-83805.795,-49930.604999999996,-14724.63,-20144.969999999998,5274.945,-38270.025,2.853032351940364,6.631743414959086,6.864488647722459,6.623987991466956,5.159250605674781,-6.173336064585703,7.443858401242948,-2.6662623873753084,-0.302672565,-0.945493185,-0.088073505,-5.753019999999999,6.409199999999999,3.57084,72.0
1774822007.7775164,3.337860107421875e-05,2026-03-29T22:06:47.777,2026-03-29T18:06:47.777,-31415.67,-49256.325,-83805.25499999999,-49931.1,-14725.89,-20123.64,5268.465,-38256.75,3.1217579320572826,4.972090971150136,4.716458291683071,4.7252749246421235,3.6601618396700966,-7.635480450308142,8.377650227742562,0.41170133374644935,-0.302672565,-0.945493185,-0.088073505,-5.753019999999999,6.409199999999999,3.57084,72.0
1774822007.777543,2.6702880859375e-05,2026-03-29T22:06:47.777,2026-03-29T18:06:47.777,-31430.34,-49252.77,-83798.55,-49920.795,-14711.715,-20083.95,5292.135,-38263.049999999996,1.871510331474052,0.8940605050636306,0.33388037391456404,0.662338882350745,0.4683225953719522,-5.842103007541452,5.4643381048667985,2.919301173045708,-0.302672565,-0.945493185,-0.088073505,-5.753019999999999,6.409199999999999,3.57084,72.0
1774822007.7775512,8.106231689453125e-06,2026-03-29T22:06:47.777,2026-03-29T18:06:47.777,-31424.715,-49248.494999999995,-83796.20999999999,-49923.63,-14718.195,-20086.649999999998,5300.28,-38257.335,-0.07801501246182507,-3.4765624369894312,-4.129412780964172,-3.717506260529141,-3.0548024852325666,-1.8586346087448604,0.18688566363693854,3.863164275661372,-0.302672565,-0.945493185,-0.088073505,-5.753019999999999,6.409199999999999,3.57084,72.0
1774822007.784024,0.00647282600402832,2026-03-29T22:06:47.784,2026-03-29T18:06:47.784,-31438.26,-49262.85,-83810.43,-49942.53,-14729.22,-20090.88,5262.525,-38256.479999999996,-1.637491676272836,-5.921655506139028,-6.51092773553127,-6.419356118450266,-5.355040688549463,2.463063133035892,-4.998422344382708,3.094800538191113,-0.302062215,-0.950253915,-0.082824495,-6.11926,8.606639999999999,3.052,72.0
1774822007.7840447,2.0742416381835938e-05,2026-03-29T22:06:47.784,2026-03-29T18:06:47.784,-31478.265,-49305.06,-83855.11499999999,-49978.125,-14741.775,-20093.579999999998,5231.429999999999,-38283.165,-2.0483765238372436,-5.254635575585057,-5.686288501984638,-6.203701589244302,-5.351774340085939,5.37409827549831,-7.75360564110622,1.23458675888547,-0.302062215,-0.950253915,-0.082824495,-6.11926,8.606639999999999,3.052,72.0
1774822007.787307,0.0032622814178466797,2026-03-29T22:06:47.787,2026-03-29T18:06:47.787,-31427.64,-49257.045,-83813.44499999999,-49939.29,-14703.029999999999,-20054.204999999998,5308.65,-38285.01,-1.265862652182293,-1.9029647859202667,-2.101443635136903,-3.149360870340606,-2.9294677837327323,5.941028312119969,-6.862617487385175,-0.7544599071019782,-0.302062215,-0.950253915,-0.082824495,-6.11926,8.606639999999999,3.052,72.0
1774822007.7873392,3.218650817871094e-05,2026-03-29T22:06:47.787,2026-03-29T18:06:47.787,-31429.53,-49233.6,-83773.17,-49895.415,-14665.814999999999,-20017.575,5365.575,-38297.115,0.07448152097040844,2.338879938836386,2.4612692709112727,1.3754444141855928,0.9607836123083356,4.287321357134562,-2.742079128040659,-2.0726580668281094,-0.302062215,-0.950253915,-0.082824495,-6.11926,8.606639999999999,3.052,72.0
1774822007.7911685,0.0038292407989501953,2026-03-29T22:06:47.791,2026-03-29T18:06:47.791,-31432.545,-49250.655,-83788.69499999999,-49909.185,-14681.564999999999,-20036.07,5365.26,-38283.975,1.071476213548778,5.25038669076495,5.761950256523834,5.321934154533936,4.655670563915039,1.3403199832040245,2.7411880671081157,-2.4007007195031616,-0.302062215,-0.950253915,-0.082824495,-6.11926,8.606639999999999,3.052,72.0
1774822007.7911892,2.0742416381835938e-05,2026-03-29T22:06:47.791,2026-03-29T18:06:47.791,-31434.254999999997,-49278.42,-83829.555,-49955.085,-14725.394999999999,-20081.43,5291.46,-38280.375,1.1085879404712597,5.333025175886523,6.195631156577307,6.880213603857452,6.4692590822073965,-1.6994192941582538,7.071536031121917,-1.9045892673067535,-0.302062215,-0.950253915,-0.082824495,-6.11926,8.606639999999999,3.052,72.0
1774822007.8011644,0.009975194931030273,2026-03-29T22:06:47.801,2026-03-29T18:06:47.801,-31436.46,-49271.67,-83823.93,-49948.155,-14708.115,-20059.695,5312.474999999999,-38283.255,0.22106096820066792,2.5769455178699197,3.5684005597128126,5.301144590086147,5.4442918444372275,-3.860581416199833,8.183206836861755,-0.9972478858217512,-0.302062215,-0.950253915,-0.082824495,-6.11926,8.606639999999999,3.052,72.0
1774822007.8011801,1.5735626220703125e-05,2026-03-29T22:06:47.801,2026-03-29T18:06:47.801,-31431.735,-49255.155,-83805.525,-49933.575,-14688.09,-20027.52,5352.929999999999,-38284.65,-0.9328661810698851,-1.5437443621512377,-0.8156610868982438,1.2523643040342778,1.8400265076736886,-4.656790618967902,5.403900328993414,-0.049967502413638426,-0.302062215,-0.950253915,-0.082824495,-6.11926,8.606639999999999,3.052,72.0
1774822007.8011968,1.6689300537109375e-05,2026-03-29T22:06:47.801,2026-03-29T18:06:47.801,-31430.969999999998,-49253.354999999996,-83798.86499999999,-49933.619999999995,-14701.814999999999,-20036.835,5358.78,-38286.314999999995,-1.4827296430525858,-4.841501433292293,-4.794665316906272,-3.457881192866425,-2.8850049779778493,-4.064155950048742,-0.16899825322329223,0.7609745059144297,-0.302062215,-0.950253915,-0.082824495,-6.11926,8.606639999999999,3.052,72.0
1774822007.8012023,5.4836273193359375e-06,2026-03-29T22:06:47.801,2026-03-29T18:06:47.801,-31441.41,-49268.205,-83811.645,-49937.715,-14707.17,-20053.755,5343.21,-38291.265,-0.9023572652433101,-5.554556369171634,-6.403812345791725,-6.677612835430594,-6.636773375611914,-2.351679723720835,-6.060831986631531,1.4083164968469395,-0.302062215,-0.950253915,-0.082824495,-6.11926,8.606639999999999,3.052,72.0
1774822007.803065,0.0018627643585205078,2026-03-29T22:06:47.803,2026-03-29T18:06:47.803,-31418.55,-49239.945,-83783.79,-49913.909999999996,-14687.55,-20040.704999999998,5353.83,-38280.375,0.6167367446692624,-3.269190606790001,-4.834435349345734,-6.883173885746341,-7.594238965481248,0.06211678405789607,-9.466494329751166,1.8527481776285408,-0.30456465,-0.961240215,-0.078918255,-0.16785999999999998,11.5976,0.7019599999999999,72.0
1774822007.8030949,2.9802322387695312e-05,2026-03-29T22:06:47.803,2026-03-29T18:06:47.803,-31425.524999999998,-49244.49,-83787.97499999999,-49923.9,-14704.965,-20036.655,5317.155,-38284.064999999995,2.2107688449109943,0.8506355268039888,-0.8340061218809496,-3.8936232344105037,-5.079398658610099,2.64087762344157,-8.536514352682097,1.9290439423239598,-0.30456465,-0.961240215,-0.078918255,-0.16785999999999998,11.5976,0.7019599999999999,72.0
1774822007.8071644,0.00406956672668457,2026-03-29T22:06:47.807,2026-03-29T18:06:47.807,-31434.03,-49259.205,-83804.715,-49939.83,-14727.914999999999,-20077.425,5234.8949999999995,-38293.965,2.810544159892248,4.649468568856199,3.6472899755207018,1.0035395977947863,0.02043361265685638,4.706457371298016,-3.3348111398076106,1.3997373672743243,-0.30456465,-0.961240215,-0.078918255,-0.16785999999999998,11.5976,0.7019599999999999,72.0
1774822007.8071856,2.1219253540039062e-05,2026-03-29T22:06:47.807,2026-03-29T18:06:47.807,-31438.395,-49260.96,-83805.93,-49950.314999999995,-14732.189999999999,-20110.23,5291.73,-38285.055,1.7853663255360939,6.0887723340122335,6.3964437788413,5.593473464098714,5.524169031721114,5.4998978012744635,4.012326752847163,0.1641159641079899,-0.30456465,-0.961240215,-0.078918255,-0.16785999999999998,11.5976,0.7019599999999999,72.0
1774822007.8143787,0.007193088531494141,2026-03-29T22:06:47.814,2026-03-29T18:06:47.814,-31411.35,-49225.275,-83757.33,-49903.604999999996,-14676.255,-20067.075,5323.41,-38276.505,-0.6021919558863837,4.3140836476779745,6.01494398995569,7.7218213990796905,8.867385753102274,4.424863704577365,10.133821803850532,-1.5235193287850632,-0.30456465,-0.961240215,-0.078918255,-0.16785999999999998,11.5976,0.7019599999999999,72.0
1774822007.8144033,2.4557113647460938e-05,2026-03-29T22:06:47.814,2026-03-29T18:06:47.814,-31427.28,-49250.295,-83789.685,-49912.965,-14683.859999999999,-20071.035,5273.82,-38287.845,-3.2174664099424057,0.131850571904288,2.6155021327501644,6.2962639420296584,8.284839623279796,1.419534784007777,11.915050313133165,-3.0137419031394708,-0.30456465,-0.961240215,-0.078918255,-0.16785999999999998,11.5976,0.7019599999999999,72.0
1774822007.8201544,0.005751132965087891,2026-03-29T22:06:47.820,2026-03-29T18:06:47.820,-31463.414999999997,-49284.63,-83819.97,-49942.395,-14714.82,-20095.695,5265.2699999999995,-38304.27,-4.5891958721293715,-4.359722332182689,-2.202558265917786,1.8414016200920174,3.726059300274161,-2.7554694932351396,8.036397882082582,-3.4980635586942705,-0.30456465,-0.961240215,-0.078918255,-0.16785999999999998,11.5976,0.7019599999999999,72.0
1774822007.8201845,3.0040740966796875e-05,2026-03-29T22:06:47.820,2026-03-29T18:06:47.820,-31455.945,-49299.03,-83839.14,-49964.939999999995,-14735.654999999999,-20106.989999999998,5291.505,-38301.705,-3.7080972177209377,-6.814887743169427,-6.098988510642542,-3.672125410573302,-2.9648179607536362,-6.568718611182625,-0.19410270559371887,-2.4439637726192642,-0.30456465,-0.961240215,-0.078918255,-0.16785999999999998,11.5976,0.7019599999999999,72.0
1774822007.8202093,2.47955322265625e-05,2026-03-29T22:06:47.820,2026-03-29T18:06:47.820,-31415.039999999997,-49266.63,-83818.665,-49941.9,-14711.039999999999,-20085.93,5299.74,-38289.869999999995,-0.6649524619930882,-5.842496938499656,-7.114201378147718,-7.683069738623722,-8.76587379484721,-8.230923471494892,-9.201558181381598,0.0039644661983555506,-0.30456465,-0.961240215,-0.078918255,-0.16785999999999998,11.5976,0.7019599999999999,72.0
1774822007.8202207,1.1444091796875e-05,2026-03-29T22:06:47.820,2026-03-29T18:06:47.820,-31419.315,-49246.155,-83793.645,-49917.33,-14686.515,-20064.78,5304.105,-38294.82,3.2464768251808347,-1.7581955440999382,-4.63550927438675,-8.21728027479138,-10.83029489321918,-6.52898012326395,-14.656261960846816,2.921023967687242,-0.30456465,-0.961240215,-0.078918255,-0.16785999999999998,11.5976,0.7019599999999999,72.0
1774822007.823583,0.0033621788024902344,2026-03-29T22:06:47.823,2026-03-29T18:06:47.823,-31411.754999999997,-49237.784999999996,-83782.89,-49912.244999999995,-14687.505,-20061.765,5294.835,-38282.445,6.076676959762034,3.507552131719359,0.2604481597389371,-4.852509525294574,-7.8763585308107995,-1.5947894456831124,-13.520127781621879,4.93057034828381,-0.30358809,-0.965024385,-0.07641582,2.10588,12.34534,2.22796,72.0
1774822007.8236454,6.246566772460938e-05,2026-03-29T22:06:47.823,2026-03-29T18:06:47.823,-31419.09,-49263.84,-83822.48999999999,-49959.63,-14741.505,-20105.864999999998,5287.679999999999,-38283.345,6.188033571341034,7.324182336363637,5.27116614229349,0.9980473341441206,-0.9385068725853694,4.845816894648971,-5.674401271611647,4.860083974070762,-0.30358809,-0.965024385,-0.07641582,2.10588,12.34534,2.22796,72.0
1774822007.8271277,0.003482341766357422,2026-03-29T22:06:47.827,2026-03-29T18:06:47.827,-31446.27,-49296.825,-83861.50499999999,-49998.555,-14778.135,-20143.53,5311.485,-38272.994999999995,3.1639031720911186,7.663503311784836,7.940037163117802,6.659212374967123,6.945812843132973,10.008647673902061,5.7228372107954835,2.40939006174432,-0.30358809,-0.965024385,-0.07641582,2.10588,12.34534,2.22796,72.0
1774822007.8271458,1.811981201171875e-05,2026-03-29T22:06:47.827,2026-03-29T18:06:47.827,-31452.39,-49287.15,-83838.105,-49969.305,-14743.755,-20122.965,5342.94,-38278.395,-1.8324427012851807,4.149186771790234,6.842497842990521,9.403480223129318,12.052471778603728,11.249932666421683,15.46043104431303,-1.5438077100112744,-0.30358809,-0.965024385,-0.07641582,2.10588,12.34534,2.22796,72.0
1774822007.831638,0.004492282867431641,2026-03-29T22:06:47.831,2026-03-29T18:06:47.831,-31469.039999999997,-49294.485,-83834.595,-49955.985,-14717.205,-20079.855,5341.59,-38298.645,-6.491940775215342,-1.6794915641209645,2.32155557679742,7.757155001655042,11.727799963559416,7.41519103430989,18.63410974786593,-5.2270351227200464,-0.30358809,-0.965024385,-0.07641582,2.10588,12.34534,2.22796,72.0
1774822007.831658,1.9788742065429688e-05,2026-03-29T22:06:47.831,2026-03-29T18:06:47.831,-31463.055,-49288.95,-83828.34,-49950.72,-14717.654999999999,-20088.09,5317.605,-38303.415,-8.432765638355216,-7.0479354426107665,-3.5977647000286397,2.281072923161793,5.758260369868196,-0.34905429159579787,13.084836717859796,-6.773894089934726,-0.30358809,-0.965024385,-0.07641582,2.10588,12.34534,2.22796,72.0
1774822007.838316,0.006658077239990234,2026-03-29T22:06:47.838,2026-03-29T18:06:47.838,-31449.824999999997,-49287.915,-83827.89,-49951.71,-14724.045,-20089.98,5294.61,-38299.68,-6.411044056454153,-9.266709996010029,-8.108118604982453,-4.5837902568285465,-3.351487762919234,-8.83186494513929,0.7136551863312882,-5.177859705652293,-0.30358809,-0.965024385,-0.07641582,2.10588,12.34534,2.22796,72.0
1774822007.8383455,2.956390380859375e-05,2026-03-29T22:06:47.838,2026-03-29T18:06:47.838,-31441.274999999998,-49277.79,-83813.48999999999,-49936.905,-14713.289999999999,-20084.489999999998,5267.16,-38296.71,-1.0562378618522015,-7.063655023722133,-8.937921186134055,-9.589757213155055,-11.410836856713358,-14.073815254628276,-13.083728954676106,-0.9079301663512983,-0.30358809,-0.965024385,-0.07641582,2.10588,12.34534,2.22796,72.0
1774822007.8383741,2.86102294921875e-05,2026-03-29T22:06:47.838,2026-03-29T18:06:47.838,-31442.985,-49274.549999999996,-83812.995,-49943.34,-14729.49,-20119.68,5227.155,-38297.88,5.2840671898145155,-1.2736638746909503,-5.475075128824851,-10.211142942050207,-14.471834819338119,-13.230237739900904,-21.75255195763018,4.176755493247343,-0.30358809,-0.965024385,-0.07641582,2.10588,12.34534,2.22796,72.0
1774822007.8383863,1.2159347534179688e-05,2026-03-29T22:06:47.838,2026-03-29T18:06:47.838,-31438.44,-49269.195,-83817.405,-49964.939999999995,-14751.63,-20125.755,5220.9,-38294.729999999996,9.579669317214737,5.474544926319681,0.8515295488995416,-5.912240523361274,-10.766416266690067,-6.097369546453752,-20.68413382788471,7.6391958894296295,-0.30358809,-0.965024385,-0.07641582,2.10588,12.34534,2.22796,72.0
1774822007.8444743,0.0060880184173583984,2026-03-29T22:06:47.844,2026-03-29T18:06:47.844,-31447.98,-49268.115,-83818.395,-49966.92,-14738.175,-20079.135,5282.235,-38303.505,9.574190074794386,9.958302051723543,7.15202050692522,1.4800201075454928,-1.6992805841501721,4.511831394756985,-9.622049037672573,7.647629652612598,-0.30749433,-0.95739501,-0.082458285,3.0825199999999997,8.42352,0.27468,72.0
1774822007.844493,1.8596649169921875e-05,2026-03-29T22:06:47.844,2026-03-29T18:06:47.844,-31427.19,-49235.49,-83782.395,-49917.195,-14677.109999999999,-20016.36,5323.905,-38297.34,4.958863112638677,9.897037174559284,10.387498401496156,8.534920428651573,8.65150613192628,13.85248223513348,6.872962450167962,3.948030842091858,-0.30749433,-0.95739501,-0.082458285,3.0825199999999997,8.42352,0.27468,72.0
1774822007.847669,0.003175973892211914,2026-03-29T22:06:47.847,2026-03-29T18:06:47.847,-31409.235,-49207.455,-83746.395,-49870.575,-14630.49,-19983.195,5329.62,-38306.295,-2.3427064605290226,5.093657714699143,8.822780866089424,11.803727396589984,15.36994619274298,17.389463136390482,21.278164279071145,-1.8917735743436188,-0.30749433,-0.95739501,-0.082458285,3.0825199999999997,8.42352,0.27468,72.0
1774822007.8476915,2.2649765014648438e-05,2026-03-29T22:06:47.847,2026-03-29T18:06:47.847,-31435.335,-49243.725,-83776.41,-49884.75,-14637.96,-19996.02,5361.885,-38311.38,-8.976330567086919,-2.3828761405302297,2.9309865320612625,9.502698459553175,15.047490110553722,13.01964232650608,26.54487178987313,-7.144188810598299,-0.30749433,-0.95739501,-0.082458285,3.0825199999999997,8.42352,0.27468,72.0
1774822007.8520465,0.004354953765869141,2026-03-29T22:06:47.852,2026-03-29T18:06:47.852,-31442.085,-49257.54,-83793.645,-49914.63,-14678.144999999999,-20061.809999999998,5351.94,-38307.15,-11.711902184700861,-9.095232982580027,-4.712583663318512,2.4724736023030096,7.513909541140293,2.27551620820479,19.54332299642722,-9.212148281176304,-0.30749433,-0.95739501,-0.082458285,3.0825199999999997,8.42352,0.27468,72.0
1774822007.852067,2.0503997802734375e-05,2026-03-29T22:06:47.852,2026-03-29T18:06:47.852,-31420.62,-49252.725,-83790.18,-49918.095,-14695.695,-20079.495,5320.53,-38304.314999999995,-9.024416543080449,-11.823356365340754,-10.550144662456606,-6.0976719414812965,-3.9272091507296425,-10.162884337773514,2.832065518368698,-6.9295094829705475,-0.30749433,-0.95739501,-0.082458285,3.0825199999999997,8.42352,0.27468,72.0
1774822007.8551705,0.003103494644165039,2026-03-29T22:06:47.855,2026-03-29T18:06:47.855,-31415.399999999998,-49254.479999999996,-83800.575,-49938.615,-14725.935,-20096.46,5296.05,-38300.22,-1.9240217916224414,-9.104656373492034,-11.692013275261234,-12.1115260730982,-13.945921533391607,-18.523887106720583,-16.219690454285015,-1.213061663734842,-0.30749433,-0.95739501,-0.082458285,3.0825199999999997,8.42352,0.27468,72.0
1774822007.8551912,2.0742416381835938e-05,2026-03-29T22:06:47.855,2026-03-29T18:06:47.855,-31421.789999999997,-49262.13,-83814.525,-49951.53,-14726.835,-20089.17,5326.47,-38281.68,6.409398511930029,-1.9940577054256852,-7.33517348804381,-12.525026391633991,-17.68360615248786,-18.65616103489207,-28.691458241496576,5.295986928748375,-0.30749433,-0.95739501,-0.082458285,3.0825199999999997,8.42352,0.27468,72.0
1774822007.85913,0.0039386749267578125,2026-03-29T22:06:47.859,2026-03-29T18:06:47.859,-31448.879999999997,-49283.325,-83823.56999999999,-49950.494999999995,-14717.835,-20081.34,5337.405,-38280.465,12.063477753816818,6.342578028486258,0.7423006353751606,-6.8846122843071536,-13.123253525349998,-10.105870046782199,-28.306969132819543,9.466749477755588,-0.30749433,-0.95739501,-0.082458285,3.0825199999999997,8.42352,0.27468,72.0
1774822007.859141,1.1205673217773438e-05,2026-03-29T22:06:47.859,2026-03-29T18:06:47.859,-31433.445,-49261.814999999995,-83804.625,-49935.915,-14704.515,-20074.86,5261.985,-38289.78,12.247236462718197,12.046554874669152,8.896184805503408,2.3328555058119607,-2.1686022887657788,3.4885139241295335,-14.582637642461611,9.20556406209299,-0.30749433,-0.95739501,-0.082458285,3.0825199999999997,8.42352,0.27468,72.0
1774822007.8651226,0.0059814453125,2026-03-29T22:06:47.865,2026-03-29T18:06:47.865,-31422.824999999997,-49254.165,-83796.165,-49916.744999999995,-14678.279999999999,-20039.579999999998,5268.87,-38291.534999999996,6.675827772123289,12.357533750276753,13.26012172548373,10.802009507005787,10.142544529475783,15.955434484365489,6.649028084449894,4.520732376747391,-0.317931315,-0.942319365,-0.089172135,-2.7468,3.9828599999999996,-0.16785999999999998,72.0
1774822007.8651402,1.7642974853515625e-05,2026-03-29T22:06:47.865,2026-03-29T18:06:47.865,-31431.87,-49270.455,-83803.68,-49906.755,-14663.34,-20015.19,5345.235,-38295.09,-2.203846808588124,6.944567387628106,11.578099350367552,14.384131828894693,17.970992569030724,21.42986685183886,25.722355596888733,-2.4224144534744814,-0.317931315,-0.942319365,-0.089172135,-2.7468,3.9828599999999996,-0.16785999999999998,72.0
1774822007.8670328,0.0018925666809082031,2026-03-29T22:06:47.867,2026-03-29T18:06:47.867,-31469.579999999998,-49299.39,-83829.23999999999,-49931.909999999996,-14692.904999999999,-20048.805,5374.215,-38306.43,-10.295867979455563,-1.8629694029602801,4.3570240386718035,11.15528467844851,17.467184517143732,17.148132330799704,33.569717813595176,-8.312663487133543,-0.317931315,-0.942319365,-0.089172135,-2.7468,3.9828599999999996,-0.16785999999999998,72.0
1774822007.8670514,1.8596649169921875e-05,2026-03-29T22:06:47.867,2026-03-29T18:06:47.867,-31478.445,-49295.384999999995,-83828.97,-49948.424999999996,-14712.164999999999,-20078.055,5358.375,-38321.865,-13.764015395685888,-10.084333414632495,-5.2452684484070895,2.4298616500828945,8.67584914810416,4.848745801886683,26.05453179127187,-10.293224220803907,-0.317931315,-0.942319365,-0.089172135,-2.7468,3.9828599999999996,-0.16785999999999998,72.0
1774822007.8752525,0.008201122283935547,2026-03-29T22:06:47.875,2026-03-29T18:06:47.875,-31431.149999999998,-49262.13,-83816.145,-49955.265,-14719.365,-20097.315,5319.8099999999995,-38313.045,-10.868702780459602,-13.896987916134874,-12.802097038073741,-7.762447065376698,-4.394372331563452,-9.93412807049688,6.123600132297009,-7.367915173495107,-0.317931315,-0.942319365,-0.089172135,-2.7468,3.9828599999999996,-0.16785999999999998,72.0
1774822007.8752692,1.6689300537109375e-05,2026-03-29T22:06:47.875,2026-03-29T18:06:47.875,-31419.27,-49249.755,-83799.54,-49931.415,-14701.545,-20102.085,5285.745,-38303.64,-2.844732147415736,-11.420352264191258,-14.666170737179124,-14.546152819154232,-15.61309305482956,-20.397084403704316,-17.33246674509857,-0.9116657724922637,-0.317931315,-0.942319365,-0.089172135,-2.7468,3.9828599999999996,-0.16785999999999998,72.0
1774822007.8753,3.075599670410156e-05,2026-03-29T22:06:47.875,2026-03-29T18:06:47.875,-31435.02,-49248.0,-83791.53,-49925.655,-14703.525,-20092.14,5273.91,-38299.905,6.625175846610583,-3.6388194595675167,-9.733213751657697,-14.544958582288297,-19.62898195270586,-21.64252774936749,-33.479415315456144,5.98026583386024,-0.317931315,-0.942319365,-0.089172135,-2.7468,3.9828599999999996,-0.16785999999999998,72.0
1774822007.8753097,9.775161743164062e-06,2026-03-29T22:06:47.875,2026-03-29T18:06:47.875,-31427.594999999998,-49257.54,-83807.64,-49957.604999999996,-14748.435,-20112.344999999998,5286.195,-38281.725,13.117235499107966,5.987623281620689,-0.06587237902515994,-7.567741920721705,-14.444277169514042,-12.999167202528946,-34.583885043787085,9.994171276982796,-0.317931315,-0.942319365,-0.089172135,-2.7468,3.9828599999999996,-0.16785999999999998,72.0
1774822007.8791409,0.003831148147583008,2026-03-29T22:06:47.879,2026-03-29T18:06:47.879,-31425.704999999998,-49263.795,-83810.43,-49956.03,-14735.43,-20083.364999999998,5279.49,-38283.165,13.555703019901499,13.072958492147505,9.96556398464658,3.210266250266574,-2.413474616856395,1.625155806557841,-19.733722794721626,9.2137717251943,-0.317931315,-0.942319365,-0.089172135,-2.7468,3.9828599999999996,-0.16785999999999998,72.0
1774822007.8791573,1.6450881958007812e-05,2026-03-29T22:06:47.879,2026-03-29T18:06:47.879,-31421.43,-49255.695,-83800.44,-49932.134999999995,-14701.23,-20044.89,5294.295,-38303.865,7.687975382651267,14.316911597627014,15.671074563971931,12.701555734729718,10.83607796734951,15.540782836979078,4.564989594231644,4.0517225883277295,-0.317931315,-0.942319365,-0.089172135,-2.7468,3.9828599999999996,-0.16785999999999998,72.0
1774822007.884483,0.005325794219970703,2026-03-29T22:06:47.884,2026-03-29T18:06:47.884,-31433.265,-49264.244999999995,-83803.545,-49929.57,-14693.715,-20044.98,5328.855,-38307.825,-1.7694874433014558,9.05084806856379,14.248475591835914,16.32622145381123,19.06236431288872,22.382152381622266,27.268644055900378,-2.9636938608194785,-0.3112785,-0.946469745,-0.08764626,-4.7458599999999995,6.546539999999999,3.7234399999999996,72.0
1774822007.8844984,1.52587890625e-05,2026-03-29T22:06:47.884,2026-03-29T18:06:47.884,-31439.879999999997,-49265.1,-83799.9,-49930.92,-14699.519999999999,-20058.84,5358.285,-38304.45,-10.398458011187964,-0.4102405502325081,6.1645795798688825,12.237857880792937,18.377689082440643,19.057992051544566,37.86449239060951,-8.438153491799502,-0.3112785,-0.946469745,-0.08764626,-4.7458599999999995,6.546539999999999,3.7234399999999996,72.0
1774822007.887689,0.003190755844116211,2026-03-29T22:06:47.887,2026-03-29T18:06:47.887,-31430.204999999998,-49248.134999999995,-83786.4,-49927.32,-14701.814999999999,-20070.63,5344.245,-38302.965,-14.164244098984797,-9.79304857275783,-4.974280617048267,2.2653388938964696,9.102513672426813,7.159800796036835,31.27685322166561,-9.774256378116787,-0.3112785,-0.946469745,-0.08764626,-4.7458599999999995,6.546539999999999,3.7234399999999996,72.0
1774822007.8877184,2.9325485229492188e-05,2026-03-29T22:06:47.887,2026-03-29T18:06:47.887,-31437.405,-49258.395,-83801.025,-49937.174999999996,-14716.529999999999,-20102.309999999998,5314.86,-38302.604999999996,-11.32569555482607,-14.812124563590164,-14.043688777862743,-8.911828541843478,-4.388273467010381,-7.8188729097964105,10.302435136854143,-6.423607595893685,-0.3112785,-0.946469745,-0.08764626,-4.7458599999999995,6.546539999999999,3.7234399999999996,72.0
1774822007.8934965,0.005778074264526367,2026-03-29T22:06:47.893,2026-03-29T18:06:47.893,-31458.015,-49296.104999999996,-83841.885,-49960.485,-14735.07,-20110.59,5272.425,-38304.72,-3.255521788250609,-13.14428136041367,-16.780952583242605,-15.980627174598983,-15.751693320518973,-19.06090571476684,-15.596953370070503,-0.11531165723023855,-0.3112785,-0.946469745,-0.08764626,-4.7458599999999995,6.546539999999999,3.7234399999999996,72.0
1774822007.8935168,2.0265579223632812e-05,2026-03-29T22:06:47.893,2026-03-29T18:06:47.893,-31446.765,-49284.314999999995,-83836.44,-49962.645,-14736.465,-20103.3,5239.035,-38298.825,6.222406846201379,-5.5141923494288205,-11.808152701026462,-15.544019724413586,-19.690170811645668,-21.571442769011963,-34.61315110214349,6.036247686203163,-0.3112785,-0.946469745,-0.08764626,-4.7458599999999995,6.546539999999999,3.7234399999999996,72.0
1774822007.8962903,0.0027735233306884766,2026-03-29T22:06:47.896,2026-03-29T18:06:47.896,-31411.754999999997,-49254.345,-83809.305,-49944.15,-14725.755,-20102.355,5231.385,-38287.53,12.659415660381534,4.621220024961697,-1.3286824594246944,-7.767793935381879,-14.445626012219257,-14.418441320709725,-38.02640564868655,9.083556664803957,-0.3112785,-0.946469745,-0.08764626,-4.7458599999999995,6.546539999999999,3.7234399999999996,72.0
1774822007.8963141,2.384185791015625e-05,2026-03-29T22:06:47.896,2026-03-29T18:06:47.896,-31416.254999999997,-49253.895,-83812.185,-49950.72,-14733.63,-20117.79,5246.595,-38296.215,13.093592795414866,12.652973477207992,9.857546812478908,3.6812870287498143,-2.587943452613834,-1.052443549230552,-24.22997012681947,7.6776927868770874,-0.3112785,-0.946469745,-0.08764626,-4.7458599999999995,6.546539999999999,3.7234399999999996,72.0
1774822007.8988936,0.0025794506072998047,2026-03-29T22:06:47.898,2026-03-29T18:06:47.898,-31405.23,-49231.439999999995,-83775.735,-49908.509999999995,-14691.914999999999,-20088.0,5295.87,-38294.64,7.434141936121538,14.937283594346649,16.577582804213208,13.384598235583399,10.258014100644354,12.387406413970735,0.5261496367506302,2.675183063019556,-0.3112785,-0.946469745,-0.08764626,-4.7458599999999995,6.546539999999999,3.7234399999999996,72.0
1774822007.8989067,1.3113021850585938e-05,2026-03-29T22:06:47.898,2026-03-29T18:06:47.898,-31400.864999999998,-49215.6,-83741.76,-49862.835,-14645.295,-20054.204999999998,5325.345,-38302.064999999995,-1.5380685275979438,10.468224737230848,15.706870510445258,16.76501799927144,18.110445000015236,19.936117153432374,25.011412097202033,-3.3577785344899396,-0.3112785,-0.946469745,-0.08764626,-4.7458599999999995,6.546539999999999,3.7234399999999996,72.0
1774822007.9068325,0.007925748825073242,2026-03-29T22:06:47.906,2026-03-29T18:06:47.906,-31424.76,-49234.59,-83767.815,-49889.43,-14674.275,-20065.32,5313.554999999999,-38314.26,-9.538864645083992,1.3289001981997595,7.6415564999156915,12.269975234656648,17.445714048460296,18.478888963916948,38.16608575467322,-7.465421860448659,-0.309020205,-0.94885011,-0.09130836,-2.19744,10.51414,2.8230999999999997,72.0
1774822007.9068663,3.3855438232421875e-05,2026-03-29T22:06:47.906,2026-03-29T18:06:47.906,-31480.965,-49277.25,-83807.595,-49932.314999999995,-14717.88,-20103.165,5283.72,-38337.84,-12.843784385966154,-8.285974063780772,-3.882069618930886,2.091170687427558,8.791462589630799,9.02596116788069,34.1376840025428,-7.7656207848068,-0.309020205,-0.94885011,-0.09130836,-2.19744,10.51414,2.8230999999999997,72.0
1774822007.9095137,0.00264739990234375,2026-03-29T22:06:47.909,2026-03-29T18:06:47.909,-31458.6,-49285.755,-83835.27,-49970.88,-14748.255,-20120.579999999998,5263.875,-38333.34,-10.044831814674357,-14.015684702216262,-13.539975803229753,-8.916785451274228,-3.6286624989941347,-3.92931079639846,14.889115694356484,-4.32486157055489,-0.309020205,-0.94885011,-0.09130836,-2.19744,10.51414,2.8230999999999997,72.0
1774822007.9095345,2.0742416381835938e-05,2026-03-29T22:06:47.909,2026-03-29T18:06:47.909,-31409.055,-49275.99,-83845.53,-49986.45,-14762.835,-20122.695,5218.2,-38303.595,-2.66224654755581,-13.336594824955121,-16.91393079597767,-15.580451078172056,-13.978091534449591,-14.581039439503972,-10.785937545726153,0.9677708159006403,-0.309020205,-0.94885011,-0.09130836,-2.19744,10.51414,2.8230999999999997,72.0
1774822007.9095545,2.002716064453125e-05,2026-03-29T22:06:47.909,2026-03-29T18:06:47.909,-31406.985,-49259.564999999995,-83812.59,-49939.11,-14697.81,-20034.63,5283.675,-38298.24,5.660372153808499,-6.691246146838104,-12.543132954854366,-14.869712052142717,-17.581259129093734,-18.445641901612703,-31.335061575972237,5.424153956517008,-0.309020205,-0.94885011,-0.09130836,-2.19744,10.51414,2.8230999999999997,72.0
1774822007.9095612,6.67572021484375e-06,2026-03-29T22:06:47.909,2026-03-29T18:06:47.909,-31405.635,-49238.955,-83783.52,-49910.13,-14678.505,-20015.505,5327.46,-38313.36,10.958722478377986,2.770465743555819,-2.566627724554024,-7.291754572673561,-13.055465748069759,-14.24934446059442,-37.69520249439244,6.928316710887508,-0.309020205,-0.94885011,-0.09130836,-2.19744,10.51414,2.8230999999999997,72.0
1774822007.9215837,0.01202249526977539,2026-03-29T22:06:47.921,2026-03-29T18:06:47.921,-31423.77,-49241.205,-83778.48,-49912.29,-14705.055,-20067.93,5290.5599999999995,-38321.055,10.854247595666777,10.696230386869583,8.331993050920595,3.4327386758305822,-2.8190609136245963,-4.274227964387412,-27.30864608952123,4.952734768145671,-0.309020205,-0.94885011,-0.09130836,-2.19744,10.51414,2.8230999999999997,72.0
1774822007.9216025,1.8835067749023438e-05,2026-03-29T22:06:47.921,2026-03-29T18:06:47.921,-31420.62,-49230.314999999995,-83767.095,-49901.58,-14697.135,-20068.469999999998,5283.855,-38315.205,5.639673443741086,13.558986278870677,15.154335311664868,12.21716407080195,8.197755897084335,6.880349949999283,-5.118413449671106,0.7261422766683903,-0.309020205,-0.94885011,-0.09130836,-2.19744,10.51414,2.8230999999999997,72.0
1774822007.9216175,1.5020370483398438e-05,2026-03-29T22:06:47.921,2026-03-29T18:06:47.921,-31438.934999999998,-49253.445,-83797.69499999999,-49931.369999999995,-14712.029999999999,-20088.809999999998,5312.025,-38323.485,-1.959803904636171,10.251617627649164,14.91655183572879,15.054337449403963,14.953937166945517,14.450310516076081,18.825004938371382,-3.489494506816331,-0.309020205,-0.94885011,-0.09130836,-2.19744,10.51414,2.8230999999999997,72.0
1774822007.921622,4.5299530029296875e-06,2026-03-29T22:06:47.921,2026-03-29T18:06:47.921,-31451.445,-49276.08,-83825.86499999999,-49944.645,-14695.47,-20064.555,5332.005,-38329.155,-8.194786105558993,2.51587066100374,7.975734176144057,10.869262024138383,14.629293239092794,15.551195532572049,33.96881284299888,-5.601047284279254,-0.309020205,-0.94885011,-0.09130836,-2.19744,10.51414,2.8230999999999997,72.0
1774822007.9233675,0.001745462417602539,2026-03-29T22:06:47.923,2026-03-29T18:06:47.923,-31467.735,-49298.715,-83849.31,-49968.314999999995,-14723.414999999999,-20076.03,5333.04,-38322.81,-10.147227704586136,-5.962189526031341,-2.247249131528646,1.9107085412445923,7.796537569150976,10.232683357055631,33.93980521285573,-4.729175570495991,-0.32116617000000003,-0.947202165,-0.09753393,-2.6704999999999997,6.958559999999999,3.2198599999999997,72.0
1774822007.923381,1.3589859008789062e-05,2026-03-29T22:06:47.923,2026-03-29T18:06:47.923,-31451.94,-49264.064999999995,-83800.62,-49915.259999999995,-14674.5,-20045.43,5330.205,-38327.13,-7.112279075194146,-11.325795363653254,-10.969594836115382,-7.452356856172683,-2.0505323318670157,1.1843169338017332,19.211151510348362,-1.5715722859267842,-0.32116617000000003,-0.947202165,-0.09753393,-2.6704999999999997,6.958559999999999,3.2198599999999997,72.0
1774822007.9272535,0.003872394561767578,2026-03-29T22:06:47.927,2026-03-29T18:06:47.927,-31423.23,-49265.505,-83807.595,-49921.83,-14683.545,-20058.614999999998,5321.655,-38314.89,-0.8450341324520776,-11.329842398919078,-14.32039547428409,-12.887989922436088,-10.292368510139157,-7.638186481785218,-3.352896249312181,2.063658358680947,-0.32116617000000003,-0.947202165,-0.09753393,-2.6704999999999997,6.958559999999999,3.2198599999999997,72.0
1774822007.9272685,1.5020370483398438e-05,2026-03-29T22:06:47.927,2026-03-29T18:06:47.927,-31406.67,-49270.77,-83826.54,-49944.555,-14715.225,-20087.73,5301.495,-38294.955,5.409987337062485,-6.295840867445188,-11.089517512747932,-12.13577249953578,-13.37658905698353,-12.759120688698587,-23.74211437466443,4.266967320544457,-0.32116617000000003,-0.947202165,-0.09753393,-2.6704999999999997,6.958559999999999,3.2198599999999997,72.0
1774822007.9339273,0.006658792495727539,2026-03-29T22:06:47.933,2026-03-29T18:06:47.933,-31415.129999999997,-49260.96,-83813.715,-49941.765,-14722.695,-20097.675,5271.929999999999,-38293.02,8.58459925748217,1.1747453377749526,-3.14648756537276,-5.949182289341525,-10.355796085775665,-12.522784108509644,-33.28015307109487,4.024765183818832,-0.32116617000000003,-0.947202165,-0.09753393,-2.6704999999999997,6.958559999999999,3.2198599999999997,72.0
1774822007.933944,1.6689300537109375e-05,2026-03-29T22:06:47.933,2026-03-29T18:06:47.933,-31435.92,-49259.295,-83810.52,-49945.14,-14724.72,-20097.09,5238.675,-38318.174999999996,7.297536901218962,7.537197843501713,5.606115143982462,2.44841243603333,-3.1014431089284593,-7.527647324043142,-28.315842594357868,1.6858857131209863,-0.32116617000000003,-0.947202165,-0.09753393,-2.6704999999999997,6.958559999999999,3.2198599999999997,72.0
1774822007.933961,1.6927719116210938e-05,2026-03-29T22:06:47.933,2026-03-29T18:06:47.933,-31459.23,-49261.814999999995,-83795.805,-49922.369999999995,-14699.115,-20074.094999999998,5277.51,-38340.045,2.4636446611054557,10.006797476315905,11.172044584778854,9.047501347861685,4.798918597768111,-0.11033935661565893,-11.556977617617212,-1.3176050310989873,-0.32116617000000003,-0.947202165,-0.09753393,-2.6704999999999997,6.958559999999999,3.2198599999999997,72.0
1774822007.9339705,9.5367431640625e-06,2026-03-29T22:06:47.933,2026-03-29T18:06:47.933,-31429.35,-49244.22,-83782.98,-49915.485,-14696.775,-20068.245,5310.36,-38334.375,-3.270594703791904,7.801294859366794,11.320959291739449,10.995323999981117,9.831811037353114,6.763959949024644,9.402461845171512,-3.3064684987365167,-0.32116617000000003,-0.947202165,-0.09753393,-2.6704999999999997,6.958559999999999,3.2198599999999997,72.0
1774822007.9392722,0.005301713943481445,2026-03-29T22:06:47.939,2026-03-29T18:06:47.939,-31407.84,-49236.795,-83778.56999999999,-49912.47,-14685.3,-20041.695,5312.205,-38319.479999999996,-6.940267092453226,2.3570032544515755,6.487015481859575,7.844102098095107,10.13550189758361,10.670661635300371,25.563473080380792,-3.2728950656071545,-0.32116617000000003,-0.947202165,-0.09753393,-2.6704999999999997,6.958559999999999,3.2198599999999997,72.0
1774822007.9392984,2.6226043701171875e-05,2026-03-29T22:06:47.939,2026-03-29T18:06:47.939,-31420.035,-49266.494999999995,-83825.64,-49952.79,-14716.484999999999,-20063.745,5308.425,-38311.695,-6.781624669194673,-3.5226030383328637,-0.6586165517112594,1.5511282719649746,6.149661005377837,10.502920963514244,30.397138497178783,-1.3860376623521415,-0.32116617000000003,-0.947202165,-0.09753393,-2.6704999999999997,6.958559999999999,3.2198599999999997,72.0
1774822007.945316,0.0060176849365234375,2026-03-29T22:06:47.945,2026-03-29T18:06:47.945,-31445.73,-49285.755,-83831.715,-49946.67,-14711.4,-20071.53,5321.34,-38324.159999999996,-3.0839793911754314,-7.107030079956855,-6.6601514918959355,-4.673498263122995,0.13367246743420877,6.6566013579359975,22.440334403351912,1.167346794254739,-0.328307265,-0.9415869450000001,-0.103698465,-6.271859999999999,3.7539599999999997,2.1516599999999997,72.0
1774822007.945336,2.002716064453125e-05,2026-03-29T22:06:47.945,2026-03-29T18:06:47.945,-31439.07,-49263.75,-83803.86,-49922.505,-14697.314999999999,-20070.719999999998,5298.4349999999995,-38326.725,2.0392620169969193,-7.029442521205175,-8.974203509496585,-8.015697287214856,-5.088736155690219,0.692013852550786,5.604266184010573,2.8903253425212663,-0.328307265,-0.9415869450000001,-0.103698465,-6.271859999999999,3.7539599999999997,2.1516599999999997,72.0
1774822007.949201,0.0038650035858154297,2026-03-29T22:06:47.949,2026-03-29T18:06:47.949,-31409.504999999997,-49231.485,-83769.03,-49895.775,-14679.404999999999,-20059.245,5314.1849999999995,-38306.79,5.811592210598423,-3.8079422454982694,-7.067453624475729,-7.35181835708006,-7.471296856693325,-5.295178173398283,-12.769200926486752,2.8228920955716097,-0.328307265,-0.9415869450000001,-0.103698465,-6.271859999999999,3.7539599999999997,2.1516599999999997,72.0
1774822007.9492168,1.5735626220703125e-05,2026-03-29T22:06:47.949,2026-03-29T18:06:47.949,-31397.67,-49229.145,-83768.625,-49903.38,-14688.0,-20064.015,5302.485,-38292.57,6.26430205045323,0.6022099018323028,-2.431423721091892,-3.5831213409199028,-6.5286136411916695,-9.342832613401356,-25.128645100510973,1.0597726735861088,-0.328307265,-0.9415869450000001,-0.103698465,-6.271859999999999,3.7539599999999997,2.1516599999999997,72.0
1774822007.9520772,0.0028603076934814453,2026-03-29T22:06:47.952,2026-03-29T18:06:47.952,-31426.829999999998,-49252.455,-83797.83,-49937.49,-14722.74,-20102.13,5229.2699999999995,-38324.295,3.24985259034335,3.9274486103683706,2.3909716517710735,1.0619333820312755,-3.271799379319494,-10.159749360153786,-26.78965517014221,-1.33461127464138,-0.328307265,-0.9415869450000001,-0.103698465,-6.271859999999999,3.7539599999999997,2.1516599999999997,72.0
1774822007.9520917,1.4543533325195312e-05,2026-03-29T22:06:47.952,2026-03-29T18:06:47.952,-31443.3,-49244.265,-83785.77,-49921.02,-14698.574999999999,-20092.815,5298.345,-38342.564999999995,-1.5187862808370782,4.748177155097455,5.18307623491195,4.300432203275715,0.5368911297532598,-7.454924623215897,-17.629425292768413,-2.9495894302393433,-0.328307265,-0.9415869450000001,-0.103698465,-6.271859999999999,3.7539599999999997,2.1516599999999997,72.0
1774822007.954908,0.0028162002563476562,2026-03-29T22:06:47.954,2026-03-29T18:06:47.954,-31416.344999999998,-49213.755,-83763.315,-49892.715,-14664.6,-20050.829999999998,5353.335,-38326.185,-5.407040827525587,3.1201564547708567,5.097076121077581,4.932808880371565,3.3303846224386193,-2.031135645713362,-1.834834063933079,-2.832247421776667,-0.328307265,-0.9415869450000001,-0.103698465,-6.271859999999999,3.7539599999999997,2.1516599999999997,72.0
1774822007.9549236,1.5735626220703125e-05,2026-03-29T22:06:47.954,2026-03-29T18:06:47.954,-31438.44,-49253.49,-83801.87999999999,-49921.424999999996,-14691.779999999999,-20063.79,5349.554999999999,-38323.575,-6.272844851914938,0.3654804249867124,2.860796951850217,3.272364566504732,4.37924211049646,4.381355650836732,14.029937160936093,-1.0232529142658424,-0.328307265,-0.9415869450000001,-0.103698465,-6.271859999999999,3.7539599999999997,2.1516599999999997,72.0
1774822007.9608257,0.00590205192565918,2026-03-29T22:06:47.960,2026-03-29T18:06:47.960,-31431.555,-49262.445,-83795.625,-49911.57,-14690.789999999999,-20046.915,5346.945,-38316.825,-3.611200158501531,-1.79226032704598,0.13145174704098755,0.7211517740859081,3.8684169471102403,9.569408049124377,23.735985491508913,1.468070554333461,-0.328307265,-0.9415869450000001,-0.103698465,-6.271859999999999,3.7539599999999997,2.1516599999999997,72.0
1774822007.9608457,2.002716064453125e-05,2026-03-29T22:06:47.960,2026-03-29T18:06:47.960,-31419.045,-49250.61,-83796.165,-49932.225,-14711.355,-20058.255,5336.82,-38306.52,1.1700726529617496,-2.234142098017383,-1.563091892391173,-1.180933299542645,2.49521317210383,11.518933719029707,23.771262249610206,3.2290722090570454,-0.328307265,-0.9415869450000001,-0.103698465,-6.271859999999999,3.7539599999999997,2.1516599999999997,72.0
1774822007.9640448,0.0031991004943847656,2026-03-29T22:06:47.964,2026-03-29T18:06:47.964,-31427.414999999997,-49273.155,-83828.295,-49953.104999999996,-14716.664999999999,-20053.89,5309.595,-38307.869999999995,5.487795048647531,-1.0294973109601127,-1.6667980720015354,-1.6480478460178907,0.9256258087085983,9.175504193583107,14.518333283245056,3.2327072834322665,-0.328429335,-0.9358496550000001,-0.103698465,-14.130759999999999,0.62566,3.03674,72.0
1774822007.964068,2.3126602172851562e-05,2026-03-29T22:06:47.964,2026-03-29T18:06:47.964,-31431.87,-49279.14,-83829.87,-49949.369999999995,-14721.705,-20077.605,5258.205,-38327.31,6.95024948402011,0.7084852853998588,-0.7626528241429612,-0.9787190710694442,-0.5324670881702106,3.0080167230223473,-0.10892952303843231,1.4141288815076638,-0.328429335,-0.9358496550000001,-0.103698465,-14.130759999999999,0.62566,3.03674,72.0
1774822007.9674473,0.003379344940185547,2026-03-29T22:06:47.967,2026-03-29T18:06:47.967,-31430.835,-49269.33,-83820.015,-49940.28,-14719.23,-20098.17,5248.8,-38341.17,4.640250131186073,1.5819333303859933,-0.02295959186413154,-0.18300325067148612,-1.877520687547654,-4.923768095055551,-14.313438750984284,-1.281056778429254,-0.328429335,-0.9358496550000001,-0.103698465,-14.130759999999999,0.62566,3.03674,72.0
1774822007.9674764,2.9087066650390625e-05,2026-03-29T22:06:47.967,2026-03-29T18:06:47.967,-31428.719999999998,-49263.345,-83816.81999999999,-49936.095,-14710.095,-20083.094999999998,5323.815,-38325.51,-0.359430049269547,0.8220667863849779,-0.32356531064527994,-0.18788071067410778,-3.0994635719188963,-11.562415827715927,-22.65889407017238,-3.4024722610460354,-0.328429335,-0.9358496550000001,-0.103698465,-14.130759999999999,0.62566,3.03674,72.0
1774822007.9732134,0.0057370662689208984,2026-03-29T22:06:47.973,2026-03-29T18:06:47.973,-31428.09,-49261.455,-83811.19499999999,-49927.68,-14695.244999999999,-20048.895,5343.66,-38310.84,-5.4841570939294675,-1.1872767624602711,-1.59087688881406,-1.1437154220370054,-3.897314093428044,-13.997241352486414,-22.072976817197,-3.778961067324085,-0.328429335,-0.9358496550000001,-0.103698465,-14.130759999999999,0.62566,3.03674,72.0
1774822007.973238,2.4557113647460938e-05,2026-03-29T22:06:47.973,2026-03-29T18:06:47.973,-31432.14,-49260.915,-83807.19,-49929.345,-14703.255,-20057.04,5306.535,-38309.49,-7.996450760758441,-3.097101344874967,-2.8005029591851893,-2.27956153117438,-3.6960780147676413,-10.750557290840984,-12.917886647754393,-2.1560819640649327,-0.328429335,-0.9358496550000001,-0.103698465,-14.130759999999999,0.62566,3.03674,72.0
1774822007.975698,0.002460002899169922,2026-03-29T22:06:47.975,2026-03-29T18:06:47.975,-31431.96,-49261.77,-83810.11499999999,-49937.625,-14717.07,-20091.87,5304.0599999999995,-38298.869999999995,-6.420059478062646,-3.4026034529048075,-2.6467954159157507,-2.4113347228801616,-2.012244732462881,-2.632073670387802,1.2084750450486752,0.6564215641046836,-0.328429335,-0.9358496550000001,-0.103698465,-14.130759999999999,0.62566,3.03674,72.0
1774822007.975719,2.09808349609375e-05,2026-03-29T22:06:47.975,2026-03-29T18:06:47.975,-31448.789999999997,-49281.659999999996,-83822.985,-49946.085,-14724.18,-20101.905,5332.95,-38297.43,-1.357939093341513,-1.4168031492643316,-0.484421130171032,-0.7966248364015487,1.0500236393934501,7.317878486383201,14.839396032773504,3.2056436599002365,-0.328429335,-0.9358496550000001,-0.103698465,-14.130759999999999,0.62566,3.03674,72.0
1774822007.9794855,0.0037665367126464844,2026-03-29T22:06:47.979,2026-03-29T18:06:47.979,-31443.254999999997,-49276.395,-83816.955,-49939.244999999995,-14720.445,-20097.719999999998,5344.514999999999,-38296.665,4.742962942938432,2.168025815503926,3.0491212777153356,2.2046809064838224,4.53206517730642,14.917710957848852,22.6838248914465,4.159149970866193,-0.328429335,-0.9358496550000001,-0.103698465,-14.130759999999999,0.62566,3.03674,72.0
1774822007.9795113,2.574920654296875e-05,2026-03-29T22:06:47.979,2026-03-29T18:06:47.979,-31451.715,-49285.799999999996,-83834.45999999999,-49960.485,-14738.175,-20097.945,5282.054999999999,-38311.29,8.785206416980774,5.501555262184134,6.1670122978761,5.1193802030112225,6.855626867080694,16.604428400442536,21.62670934502698,3.0048534753169047,-0.328429335,-0.9358496550000001,-0.103698465,-14.130759999999999,0.62566,3.03674,72.0
1774822007.98419,0.0046787261962890625,2026-03-29T22:06:47.984,2026-03-29T18:06:47.984,-31440.69,-49261.545,-83813.22,-49941.99,-14714.595,-20063.61,5250.0599999999995,-38325.96,8.586004439609537,6.521054769096389,6.833719619358506,6.08715033048002,6.546939254153799,11.121838351211709,11.960443685096097,0.31840307577996413,-0.32495034,-0.94469973,-0.10400364000000001,-16.862299999999998,0.47306,6.37868,72.0
1774822007.984243,5.2928924560546875e-05,2026-03-29T22:06:47.984,2026-03-29T18:06:47.984,-31428.719999999998,-49247.505,-83795.625,-49922.415,-14697.314999999999,-20055.6,5281.965,-38319.795,4.025924986968705,4.1415582939918405,3.979407945824447,3.9643752064186772,3.113476152027988,0.32882570461464133,-2.636759894077258,-2.5383849619384096,-0.32495034,-0.94469973,-0.10400364000000001,-16.862299999999998,0.47306,6.37868,72.0
1774822007.9873748,0.003131866455078125,2026-03-29T22:06:47.987,2026-03-29T18:06:47.987,-31452.48,-49273.784999999996,-83814.03,-49928.58,-14702.265,-20072.88,5280.165,-38311.02,-2.812605613127292,-0.9687756716143396,-1.661372735658047,-0.8222897335653516,-2.4285409841124355,-11.355832176030914,-16.430114098709176,-4.123992266813348,-0.32495034,-0.94469973,-0.10400364000000001,-16.862299999999998,0.47306,6.37868,72.0
1774822007.9873953,2.0503997802734375e-05,2026-03-29T22:06:47.987,2026-03-29T18:06:47.987,-31477.004999999997,-49291.604999999996,-83830.995,-49946.715,-14724.18,-20103.93,5241.105,-38322.27,-8.613493365176051,-6.510881405403579,-7.632657808086483,-6.221095962489885,-7.763046290609183,-18.753759623631627,-23.828631166554576,-3.655556829305301,-0.32495034,-0.94469973,-0.10400364000000001,-16.862299999999998,0.47306,6.37868,72.0
1774822007.9919767,0.004581451416015625,2026-03-29T22:06:47.991,2026-03-29T18:06:47.991,-31464.629999999997,-49287.869999999995,-83837.52,-49959.765,-14747.039999999999,-20125.53,5254.335,-38302.604999999996,-10.444080036501328,-9.600180088473792,-10.83768869444657,-9.440745313412028,-10.243556864382585,-18.24336204775475,-21.64385521667655,-1.3966777173986618,-0.32495034,-0.94469973,-0.10400364000000001,-16.862299999999998,0.47306,6.37868,72.0
1774822007.9920018,2.5033950805664062e-05,2026-03-29T22:06:47.992,2026-03-29T18:06:47.992,-31426.92,-49256.369999999995,-83804.58,-49933.89,-14724.81,-20102.085,5281.155,-38285.145,-7.2289158742336905,-8.25497599490732,-9.136332868342848,-8.391183142792537,-8.216554932009986,-9.545610083800408,-10.498993859671138,1.4974987644602842,-0.32495034,-0.94469973,-0.10400364000000001,-16.862299999999998,0.47306,6.37868,72.0
1774822007.995364,0.0033621788024902344,2026-03-29T22:06:47.995,2026-03-29T18:06:47.995,-31381.02,-49211.189999999995,-83754.94499999999,-49884.479999999996,-14650.695,-20019.285,5278.455,-38287.17,-0.3431176671704448,-2.5645608807699034,-2.63814914084369,-2.9366910812568188,-2.0325383370343513,3.9069838070935106,5.252438205196752,3.5847685334319306,-0.32495034,-0.94469973,-0.10400364000000001,-16.862299999999998,0.47306,6.37868,72.0
1774822007.995381,1.71661376953125e-05,2026-03-29T22:06:47.995,2026-03-29T18:06:47.995,-31382.594999999998,-49212.09,-83754.36,-49886.595,-14664.555,-20005.425,5328.855,-38285.46,6.989417115765509,5.119631547228533,6.049135237336634,4.7566045608472916,5.84384838067355,16.30166113073877,19.171789402552786,3.8679615737618,-0.32495034,-0.94469973,-0.10400364000000001,-16.862299999999998,0.47306,6.37868,72.0
1774822007.999421,0.004039764404296875,2026-03-29T22:06:47.999,2026-03-29T18:06:47.999,-31416.254999999997,-49247.729999999996,-83793.33,-49933.439999999995,-14722.019999999999,-20037.465,5363.37,-38297.7,11.22287204578389,11.161416594966344,12.864973658813774,11.072034872246876,11.80335406901894,21.97310100264792,25.35647569552513,2.277572208073955,-0.32495034,-0.94469973,-0.10400364000000001,-16.862299999999998,0.47306,6.37868,72.0
1774822007.9994392,1.8358230590820312e-05,2026-03-29T22:06:47.999,2026-03-29T18:06:47.999,-31451.129999999997,-49283.46,-83831.535,-49962.869999999995,-14738.715,-20076.84,5326.155,-38319.84,10.211034514904702,12.377098959992702,14.216855746806855,12.662932784981388,12.76689094178315,18.020280166800262,20.977084904283302,-0.3308465117177582,-0.32495034,-0.94469973,-0.10400364000000001,-16.862299999999998,0.47306,6.37868,72.0
1774822008.003585,0.00414586067199707,2026-03-29T22:06:48.003,2026-03-29T18:06:48.003,-31462.02,-49294.034999999996,-83841.3,-49966.155,-14728.41,-20123.864999999998,5297.804999999999,-38321.865,4.285164914761695,7.695508679911563,8.857800860913152,8.214881263948778,7.77872641542484,5.7910582393620125,7.622328177980607,-2.6431279485497488,-0.32507241,-0.95666259,-0.10363743,-14.054459999999999,0.27468,6.97382,72.0
1774822008.003601,1.5974044799804688e-05,2026-03-29T22:06:48.003,2026-03-29T18:06:48.003,-31436.145,-49267.845,-83816.595,-49942.619999999995,-14704.965,-20102.219999999998,5294.61,-38306.79,-3.8488928946436385,-1.1182572566316957,-1.254840181986983,-0.6738143978394255,-1.3069634947076023,-9.525201038319459,-9.211308572577948,-3.5599745787380663,-0.32507241,-0.95666259,-0.10363743,-14.054459999999999,0.27468,6.97382,72.0
1774822008.0074291,0.0038280487060546875,2026-03-29T22:06:48.007,2026-03-29T18:06:48.007,-31439.925,-49270.185,-83823.12,-49956.75,-14733.945,-20106.989999999998,5264.054999999999,-38301.39,-10.364428315657278,-10.114319740950057,-11.64653979352717,-10.030701235922805,-10.482034390849819,-21.106323370351124,-22.365872187315098,-2.7276202911623346,-0.32507241,-0.95666259,-0.10363743,-14.054459999999999,0.27468,6.97382,72.0
1774822008.0074456,1.6450881958007812e-05,2026-03-29T22:06:48.007,2026-03-29T18:06:48.007,-31459.545,-49282.695,-83831.94,-49967.369999999995,-14749.38,-20117.34,5217.66,-38308.68,-12.129645823260446,-14.952159456808955,-17.33314963662197,-15.306606601553268,-15.370154046024185,-23.563803227251906,-26.096349005303843,-0.6664279633558406,-0.32507241,-0.95666259,-0.10363743,-14.054459999999999,0.27468,6.97382,72.0
1774822008.015789,0.00834345817565918,2026-03-29T22:06:48.015,2026-03-29T18:06:48.015,-31471.695,-49302.72,-83848.86,-49978.125,-14755.904999999999,-20130.12,5225.804999999999,-38305.08,-8.217788693853539,-13.011862923443744,-15.23535430365391,-13.60844981824622,-13.338391812619697,-15.475616962316147,-18.63744999466381,1.5434245115991725,-0.32507241,-0.95666259,-0.10363743,-14.054459999999999,0.27468,6.97382,72.0
1774822008.0158117,2.2649765014648438e-05,2026-03-29T22:06:48.015,2026-03-29T18:06:48.015,-31458.824999999997,-49297.005,-83843.28,-49971.689999999995,-14739.705,-20095.92,5278.815,-38296.395,-0.38197576527298255,-4.788456726598124,-5.8201207581902334,-5.262645970541845,-4.9052469306320265,-0.18357885112591385,-3.087064954177563,2.833105031018391,-0.32507241,-0.95666259,-0.10363743,-14.054459999999999,0.27468,6.97382,72.0
1774822008.015832,2.0265579223632812e-05,2026-03-29T22:06:48.015,2026-03-29T18:06:48.015,-31406.715,-49213.799999999996,-83738.43,-49867.38,-14637.779999999999,-19991.88,5328.72,-38297.115,7.743901210247509,6.16374965195039,6.896143578131796,6.12661360456208,6.303226404627347,15.581757573943126,13.856683140427712,2.668907963071826,-0.32507241,-0.95666259,-0.10363743,-14.054459999999999,0.27468,6.97382,72.0
1774822008.0158408,8.821487426757812e-06,2026-03-29T22:06:48.015,2026-03-29T18:06:48.015,-31408.739999999998,-49213.215,-83735.055,-49869.45,-14658.39,-20058.344999999998,5295.42,-38300.805,12.347877735112377,14.786879399288754,17.08092543426528,15.247789544895396,15.120884402210333,24.685515591840684,24.80426926632778,1.2692638792657467,-0.32507241,-0.95666259,-0.10363743,-14.054459999999999,0.27468,6.97382,72.0
1774822008.0254,0.009559154510498047,2026-03-29T22:06:48.025,2026-03-29T18:06:48.025,-31422.645,-49225.77,-83749.275,-49891.455,-14689.529999999999,-20095.739999999998,5314.095,-38294.685,11.24124286707146,16.885452172730936,19.797831857136146,17.590270468957513,17.250903747081754,22.84837641048769,24.95501231591138,-0.5700644928665862,-0.32507241,-0.95666259,-0.10363743,-14.054459999999999,0.27468,6.97382,72.0
1774822008.0254204,2.0503997802734375e-05,2026-03-29T22:06:48.025,2026-03-29T18:06:48.025,-31384.664999999997,-49211.64,-83747.34,-49876.92,-14666.805,-20044.755,5357.97,-38278.935,4.902338611720396,11.182799669193662,13.420015365041722,11.692267073327633,11.3806272016967,10.678556451592124,14.264073954964207,-1.9223325322586515,-0.32507241,-0.95666259,-0.10363743,-14.054459999999999,0.27468,6.97382,72.0
1774822008.02544,1.9550323486328125e-05,2026-03-29T22:06:48.025,2026-03-29T18:06:48.025,-31441.32,-49262.49,-83799.045,-49929.345,-14710.814999999999,-20079.765,5317.38,-38308.409999999996,-3.7357724333133833,0.053766121585328785,0.55619655000576,0.0011809554824974621,-0.04765317678638395,-6.497436478472071,-2.5127058209763584,-2.1992790511662426,-0.32299722000000003,-0.964169895,-0.101623275,-9.430679999999999,-1.11398,7.0196,72.0
1774822008.025448,8.106231689453125e-06,2026-03-29T22:06:48.025,2026-03-29T18:06:48.025,-31448.295,-49282.064999999995,-83812.995,-49942.215,-14725.26,-20091.465,5269.23,-38314.305,-10.65657220891016,-11.472113279080338,-13.021231023096572,-12.141691780781047,-11.848159751824943,-20.978910438636248,-17.944836217015332,-1.4047727088394724,-0.32299722000000003,-0.964169895,-0.101623275,-9.430679999999999,-1.11398,7.0196,72.0
1774822008.031376,0.0059278011322021484,2026-03-29T22:06:48.031,2026-03-29T18:06:48.031,-31434.614999999998,-49292.369999999995,-83845.75499999999,-49976.189999999995,-14750.55,-20101.59,5264.505,-38287.935,-12.643259496162317,-18.01484514272105,-21.00301989198982,-18.971124823466344,-18.4688150716488,-26.172160020660723,-25.26897749056382,-0.06529006558165362,-0.32299722000000003,-0.964169895,-0.101623275,-9.430679999999999,-1.11398,7.0196,72.0
1774822008.0314016,2.574920654296875e-05,2026-03-29T22:06:48.031,2026-03-29T18:06:48.031,-31434.524999999998,-49273.83,-83831.4,-49960.305,-14724.63,-20074.725,5256.495,-38292.165,-8.784731709878175,-16.386100738842003,-19.512789121506092,-17.06695441072488,-16.633288180723987,-19.62196629035362,-21.41885007159237,1.0946121050168904,-0.32299722000000003,-0.964169895,-0.101623275,-9.430679999999999,-1.11398,7.0196,72.0
1774822008.0314257,2.4080276489257812e-05,2026-03-29T22:06:48.031,2026-03-29T18:06:48.031,-31454.64,-49285.53,-83835.18,-49973.354999999996,-14738.939999999999,-20078.235,5262.12,-38301.93,-0.89535503102626,-7.154840203526564,-9.005374676805332,-7.078616745754841,-6.9776907894631925,-4.186903185576333,-8.353305815189799,1.5393058017970311,-0.32299722000000003,-0.964169895,-0.101623275,-9.430679999999999,-1.11398,7.0196,72.0
1774822008.031432,6.198883056640625e-06,2026-03-29T22:06:48.031,2026-03-29T18:06:48.031,-31458.87,-49286.34,-83830.815,-49956.075,-14714.505,-20041.155,5325.57,-38311.38,7.3452096712391315,5.537064210215101,5.842085162093685,6.468484631816546,6.1413663981648865,13.209795561043608,7.916252871339797,1.1663963209789632,-0.32299722000000003,-0.964169895,-0.101623275,-9.430679999999999,-1.11398,7.0196,72.0
1774822008.0350373,0.003605365753173828,2026-03-29T22:06:48.035,2026-03-29T18:06:48.035,-31422.329999999998,-49257.674999999996,-83802.19499999999,-49919.174999999996,-14673.869999999999,-20014.29,5347.17,-38317.545,12.121234695858988,15.85779596500303,18.239995197493776,17.24464284499679,16.62757631079564,24.70698470600017,20.124904591882,0.2988015482081724,-0.32299722000000003,-0.964169895,-0.101623275,-9.430679999999999,-1.11398,7.0196,72.0
1774822008.0350497,1.239776611328125e-05,2026-03-29T22:06:48.035,2026-03-29T18:06:48.035,-31416.524999999998,-49238.82,-83781.495,-49899.825,-14666.22,-20025.225,5310.45,-38310.255,11.261298061569347,18.99995225945685,22.432297710701334,20.107182012372018,19.5067494146578,25.08806378098396,23.060446482120433,-0.5413588254277503,-0.32299722000000003,-0.964169895,-0.101623275,-9.430679999999999,-1.11398,7.0196,72.0
1774822008.03975,0.004700422286987305,2026-03-29T22:06:48.039,2026-03-29T18:06:48.039,-31415.129999999997,-49235.265,-83778.705,-49905.225,-14679.494999999999,-20041.065,5303.07,-38283.615,5.233828853364111,13.447738835959326,16.402626237612434,13.58290265981486,13.313317211730249,14.173216197333428,15.842013453536339,-0.9321883577569298,-0.32299722000000003,-0.964169895,-0.101623275,-9.430679999999999,-1.11398,7.0196,72.0
1774822008.0397782,2.8133392333984375e-05,2026-03-29T22:06:48.039,2026-03-29T18:06:48.039,-31451.309999999998,-49264.604999999996,-83803.095,-49941.314999999995,-14718.06,-20074.68,5284.53,-38287.665,-3.101674772641871,1.7159628310195874,2.8539806885146692,0.6316509258580486,0.845274232676301,-3.0864921222577455,2.1475985106504747,-0.7576439817982715,-0.32299722000000003,-0.964169895,-0.101623275,-9.430679999999999,-1.11398,7.0196,72.0
1774822008.0439477,0.004169464111328125,2026-03-29T22:06:48.043,2026-03-29T18:06:48.043,-31457.52,-49276.665,-83813.31,-49944.465,-14718.644999999999,-20080.485,5275.26,-38315.744999999995,-9.85760546250232,-10.80224221193714,-12.017552235278645,-12.705841930343707,-12.103781755818876,-18.865390158635922,-11.648358038739781,-0.22179945996458067,-0.32690346,-0.9609960750000001,-0.1000974,-7.14168,-4.18124,5.234179999999999,72.0
1774822008.0439675,1.9788742065429688e-05,2026-03-29T22:06:48.043,2026-03-29T18:06:48.043,-31438.035,-49282.244999999995,-83825.775,-49949.189999999995,-14727.734999999999,-20103.75,5261.58,-38312.82,-11.943035536982658,-18.34469288662881,-21.391505094424527,-20.15332754057368,-19.458622778069305,-26.036806669363664,-19.48722326098142,0.31126311919649774,-0.32690346,-0.9609960750000001,-0.1000974,-7.14168,-4.18124,5.234179999999999,72.0
1774822008.0501432,0.0061757564544677734,2026-03-29T22:06:48.050,2026-03-29T18:06:48.050,-31450.004999999997,-49294.17,-83831.535,-49947.345,-14726.564999999999,-20116.53,5279.355,-38317.005,-8.489126669579216,-17.465529885336643,-20.990128949946964,-18.18478047767438,-17.74104054912843,-21.420881726419175,-18.343388716497635,0.5421915692937251,-0.32690346,-0.9609960750000001,-0.1000974,-7.14168,-4.18124,5.234179999999999,72.0
1774822008.050177,3.3855438232421875e-05,2026-03-29T22:06:48.050,2026-03-29T18:06:48.050,-31434.254999999997,-49281.705,-83821.36499999999,-49934.159999999996,-14707.529999999999,-20092.005,5304.96,-38312.28,-1.2133824493655374,-8.630869737280458,-11.056191198018087,-7.716249995675172,-7.736913704562519,-7.213789407228006,-9.39994915283497,0.3936291565381949,-0.32690346,-0.9609960750000001,-0.1000974,-7.14168,-4.18124,5.234179999999999,72.0
1774822008.0502117,3.457069396972656e-05,2026-03-29T22:06:48.050,2026-03-29T18:06:48.050,-31414.545,-49248.225,-83784.465,-49911.57,-14690.97,-20065.995,5325.4349999999995,-38310.479999999996,6.43063736034187,4.023100702766956,3.7836600269860443,6.31695240435788,5.856261635380459,10.052513495219266,2.7799975501915,0.02106154435046923,-0.32690346,-0.9609960750000001,-0.1000974,-7.14168,-4.18124,5.234179999999999,72.0
1774822008.0502305,1.8835067749023438e-05,2026-03-29T22:06:48.050,2026-03-29T18:06:48.050,-31413.329999999998,-49238.775,-83784.555,-49935.465,-14717.654999999999,-20084.04,5359.41,-38305.53,10.898386408002882,14.645218904238698,16.695385882705413,17.30330449620343,16.645935167124804,22.528902673081806,12.579386198339643,-0.3103430729425298,-0.32690346,-0.9609960750000001,-0.1000974,-7.14168,-4.18124,5.234179999999999,72.0
1774822008.061259,0.011028528213500977,2026-03-29T22:06:48.061,2026-03-29T18:06:48.061,-31429.98,-49247.955,-83790.94499999999,-49941.585,-14721.57,-20072.88,5329.53,-38310.165,10.208115420299128,18.4048559970206,21.81989735667282,20.098181378177525,19.573897186789843,24.644257424301106,15.963852482662583,-0.39609506132284783,-0.32690346,-0.9609960750000001,-0.1000974,-7.14168,-4.18124,5.234179999999999,72.0
1774822008.0612876,2.86102294921875e-05,2026-03-29T22:06:48.061,2026-03-29T18:06:48.061,-31419.855,-49240.17,-83788.56,-49931.865,-14706.765,-20055.555,5302.17,-38304.18,4.827606369382539,13.715679106107887,16.963767337080192,13.460342179374587,13.312629272029541,15.618617747125706,12.169387566426849,-0.20611074537490812,-0.32690346,-0.9609960750000001,-0.1000974,-7.14168,-4.18124,5.234179999999999,72.0
1774822008.0613148,2.7179718017578125e-05,2026-03-29T22:06:48.061,2026-03-29T18:06:48.061,-31397.219999999998,-49218.345,-83756.25,-49885.155,-14654.925,-20002.725,5331.105,-38299.68,-2.606022477113376,2.9123705363264927,4.548907622789941,0.6163378203893889,0.8827303176902925,-0.2507368797225074,3.7204779082990043,0.11768881484832308,-0.32690346,-0.9609960750000001,-0.1000974,-7.14168,-4.18124,5.234179999999999,72.0
1774822008.0613272,1.239776611328125e-05,2026-03-29T22:06:48.061,2026-03-29T18:06:48.061,-31382.954999999998,-49221.945,-83751.885,-49872.689999999995,-14644.305,-19999.844999999998,5336.28,-38283.119999999995,-8.57584932101329,-8.911150305396186,-9.59412218616164,-12.309108903540679,-11.802121071139991,-15.635130005498425,-5.087348045852578,0.36526057579049287,-0.32690346,-0.9609960750000001,-0.1000974,-7.14168,-4.18124,5.234179999999999,72.0
1774822008.0637662,0.0024390220642089844,2026-03-29T22:06:48.063,2026-03-29T18:06:48.063,-31431.914999999997,-49267.575,-83797.425,-49921.515,-14695.74,-20068.2,5295.0599999999995,-38299.095,-10.354331780080045,-16.323118282151462,-18.987301613814957,-19.231590934993008,-18.761827103024597,-23.578142179309104,-10.375644700043901,0.3911766662518883,-0.32653725,-0.955502925,-0.09387183,-9.87322,-6.165039999999999,4.18124,72.0
1774822008.0637815,1.52587890625e-05,2026-03-29T22:06:48.063,2026-03-29T18:06:48.063,-31442.67,-49281.39,-83818.34999999999,-49950.945,-14728.095,-20111.76,5287.05,-38307.51,-7.257566404876864,-16.074893873818322,-19.502713294269434,-16.99623462587522,-16.790841487282933,-20.66791249193643,-10.423853233017507,0.19424407522630224,-0.32653725,-0.955502925,-0.09387183,-9.87322,-6.165039999999999,4.18124,72.0
1774822008.0675912,0.003809690475463867,2026-03-29T22:06:48.067,2026-03-29T18:06:48.067,-31434.3,-49276.935,-83820.015,-49945.365,-14716.26,-20080.035,5283.135,-38309.13,-0.9044268094468929,-8.540246045669958,-11.196153480553948,-6.834782392962353,-6.954303021102214,-8.519460929545055,-6.165052141895965,-0.09764649811129454,-0.32653725,-0.955502925,-0.09387183,-9.87322,-6.165039999999999,4.18124,72.0
1774822008.0677192,0.00012803077697753906,2026-03-29T22:06:48.067,2026-03-29T18:06:48.067,-31443.39,-49268.25,-83800.98,-49921.92,-14700.689999999999,-20039.399999999998,5244.705,-38322.72,5.615389601410375,2.571096503001616,1.845810102083523,6.290465595844556,5.96732799785899,7.085094434843013,-0.33271311767374095,-0.3177110405408169,-0.32653725,-0.955502925,-0.09387183,-9.87322,-6.165039999999999,4.18124,72.0
1774822008.071404,0.0036847591400146484,2026-03-29T22:06:48.071,2026-03-29T18:06:48.071,-31433.399999999998,-49238.28,-83760.61499999999,-49887.225,-14683.68,-20029.86,5267.7,-38322.27,9.241845589448026,12.041639185301833,13.517864634986843,16.11341017291802,15.802043770630368,18.953271890491077,4.156633473142298,-0.36226926730391107,-0.32653725,-0.955502925,-0.09387183,-9.87322,-6.165039999999999,4.18124,72.0
1774822008.0714197,1.5735626220703125e-05,2026-03-29T22:06:48.071,2026-03-29T18:06:48.071,-31418.28,-49237.02,-83769.48,-49899.555,-14686.785,-20054.745,5364.99,-38301.57,8.385315120040492,15.61326161821536,18.57464143251828,18.072328218716184,17.94782920031359,21.819386121435613,5.669441178867717,-0.24078092805265294,-0.32653725,-0.955502925,-0.09387183,-9.87322,-6.165039999999999,4.18124,72.0
1774822008.0771403,0.005720615386962891,2026-03-29T22:06:48.077,2026-03-29T18:06:48.077,-31412.565,-49256.595,-83803.68,-49940.055,-14700.195,-20082.329999999998,5383.17,-38282.174999999996,3.6270767260340335,11.918783366917683,15.00944684693465,11.447673704408523,11.54467039258087,14.703930979024852,4.428584425843061,-0.049425431242917324,-0.32653725,-0.955502925,-0.09387183,-9.87322,-6.165039999999999,4.18124,72.0
1774822008.0771575,1.71661376953125e-05,2026-03-29T22:06:48.077,2026-03-29T18:06:48.077,-31433.489999999998,-49269.869999999995,-83806.83,-49943.655,-14708.34,-20071.62,5340.554999999999,-38287.485,-2.6307575554239246,2.994510411078489,4.8451880073543245,-0.3806519733402532,-0.17619027774915397,1.2272108163169477,2.0041252984688778,0.10493322768715409,-0.32653725,-0.955502925,-0.09387183,-9.87322,-6.165039999999999,4.18124,72.0
1774822008.0800707,0.002913236618041992,2026-03-29T22:06:48.080,2026-03-29T18:06:48.080,-31455.629999999997,-49286.88,-83822.355,-49962.689999999995,-14734.17,-20080.665,5315.804999999999,-38298.465,-7.367760634286369,-6.811470655509116,-6.970262342240861,-11.644239877829465,-11.509898833576768,-12.212089701708742,0.13932239856727643,0.1738309406579263,-0.32653725,-0.955502925,-0.09387183,-9.87322,-6.165039999999999,4.18124,72.0
1774822008.0800977,2.6941299438476562e-05,2026-03-29T22:06:48.080,2026-03-29T18:06:48.080,-31449.824999999997,-49294.395,-83838.33,-49974.84,-14743.574999999999,-20084.715,5286.0599999999995,-38302.784999999996,-8.401600458100894,-12.959727632685969,-14.974874392655279,-17.003347654741578,-17.05697652461964,-19.484772746279234,-0.3391646617401239,0.18273895445013594,-0.32653725,-0.955502925,-0.09387183,-9.87322,-6.165039999999999,4.18124,72.0
1774822008.0839388,0.0038411617279052734,2026-03-29T22:06:48.083,2026-03-29T18:06:48.083,-31445.28,-49300.335,-83850.03,-49983.525,-14749.019999999999,-20087.64,5288.445,-38308.275,-5.396118538054676,-12.832682011960667,-15.732882446187658,-14.09181223560289,-14.308170528033063,-17.549130770390686,0.10980397240669028,0.18760012179489546,-0.3234855,-0.957456045,-0.08612038500000001,-11.5213,-6.165039999999999,4.91372,72.0
1774822008.0839517,1.2874603271484375e-05,2026-03-29T22:06:48.083,2026-03-29T18:06:48.083,-31431.195,-49274.729999999996,-83823.48,-49953.06,-14717.205,-20064.105,5313.554999999999,-38310.975,0.04601020679695115,-6.851563642533226,-9.316509621169455,-4.570716611162385,-4.791971804077268,-7.732978698919567,0.2601599333301008,0.21035618160130612,-0.3234855,-0.957456045,-0.08612038500000001,-11.5213,-6.165039999999999,4.91372,72.0
1774822008.0876582,0.0037064552307128906,2026-03-29T22:06:48.087,2026-03-29T18:06:48.087,-31402.664999999997,-49235.265,-83778.12,-49903.29,-14668.83,-20031.12,5346.945,-38297.88,5.220812778362074,1.8797125731008812,0.9123041270056823,6.782075585693393,6.745572628651345,5.0660393466185445,-0.8558204031924476,0.20711403880372875,-0.3234855,-0.957456045,-0.08612038500000001,-11.5213,-6.165039999999999,4.91372,72.0
1774822008.087679,2.0742416381835938e-05,2026-03-29T22:06:48.087,2026-03-29T18:06:48.087,-31411.574999999997,-49239.765,-83773.935,-49898.159999999996,-14665.005,-20031.48,5316.4349999999995,-38296.395,7.659044764932365,9.165244260505222,10.036351069506354,14.459625696815326,14.69869222115659,14.81203530749516,-3.099775606230237,0.09910760036115689,-0.3234855,-0.957456045,-0.08612038500000001,-11.5213,-6.165039999999999,4.91372,72.0
1774822008.0918956,0.004216670989990234,2026-03-29T22:06:48.091,2026-03-29T18:06:48.091,-31433.265,-49260.869999999995,-83792.52,-49921.29,-14695.92,-20066.805,5246.6849999999995,-38301.84,6.302911213286342,11.733576735499312,13.947972490944968,14.900508544300836,15.328874243912637,17.191561511216456,-5.131685139715569,-0.15081249207136432,-0.3234855,-0.957456045,-0.08612038500000001,-11.5213,-6.165039999999999,4.91372,72.0
1774822008.091916,2.0503997802734375e-05,2026-03-29T22:06:48.091,2026-03-29T18:06:48.091,-31438.305,-49274.28,-83812.68,-49948.83,-14725.125,-20092.86,5236.5599999999995,-38300.715,1.9627931784357826,8.710070306517222,11.205883482896905,8.149191687347482,8.532308382556574,11.540938872387338,-5.179584454650124,-0.47235733919699935,-0.3234855,-0.957456045,-0.08612038500000001,-11.5213,-6.165039999999999,4.91372,72.0
1774822008.0954876,0.0035715103149414062,2026-03-29T22:06:48.095,2026-03-29T18:06:48.095,-31448.745,-49288.095,-83838.915,-49982.04,-14757.84,-20124.54,5157.36,-38313.765,-3.1422368857547487,1.8814643570838634,3.5417397700460547,-2.2755338018042783,-2.1925319476164273,0.9700663595062526,-2.2436924180166224,-0.6906326433683341,-0.3234855,-0.957456045,-0.08612038500000001,-11.5213,-6.165039999999999,4.91372,72.0
1774822008.0955148,2.7179718017578125e-05,2026-03-29T22:06:48.095,2026-03-29T18:06:48.095,-31476.105,-49307.805,-83858.22,-50004.494999999995,-14785.605,-20142.0,5178.465,-38322.09,-6.5080174348314355,-5.305603202998303,-5.146659754467006,-11.192618879079966,-11.52744193208099,-9.297905747762123,3.002898875747307,-0.6148920622268702,-0.3234855,-0.957456045,-0.08612038500000001,-11.5213,-6.165039999999999,4.91372,72.0
1774822008.0997868,0.004271984100341797,2026-03-29T22:06:48.099,2026-03-29T18:06:48.099,-31447.44,-49266.494999999995,-83811.78,-49945.32,-14731.064999999999,-20114.774999999998,5316.255,-38301.119999999995,-6.567902430006839,-9.468071903984692,-10.756489283541704,-14.32578258830395,-14.96552373153569,-14.503029449251311,8.233843992523004,-0.17048899167043532,-0.3234855,-0.957456045,-0.08612038500000001,-11.5213,-6.165039999999999,4.91372,72.0
1774822008.0998094,2.2649765014648438e-05,2026-03-29T22:06:48.099,2026-03-29T18:06:48.099,-31435.695,-49245.479999999996,-83772.81,-49891.14,-14679.269999999999,-20088.495,5370.4349999999995,-38309.67,-3.4191537914493493,-8.875402270777244,-10.915917746822373,-10.355975760889125,-10.990804452308012,-12.57143242385662,10.526726639297099,0.5090907904135215,-0.3234855,-0.957456045,-0.08612038500000001,-11.5213,-6.165039999999999,4.91372,72.0
1774822008.1038795,0.0040700435638427734,2026-03-29T22:06:48.103,2026-03-29T18:06:48.103,-31413.555,-49257.36,-83796.66,-49921.83,-14709.824999999999,-20100.015,5313.599999999999,-38294.64,1.2828530205393411,-4.1589511077697665,-5.981850646256161,-1.4729724806546356,-1.7500733937237052,-4.938659357654845,7.965572362697947,1.1036991682493213,-0.32562172500000003,-0.96508542,-0.08032206,-9.27808,-6.04296,5.73776,72.0
1774822008.1038997,2.0265579223632812e-05,2026-03-29T22:06:48.103,2026-03-29T18:06:48.103,-31404.87,-49256.235,-83806.155,-49937.354999999996,-14725.755,-20107.17,5248.08,-38288.52,5.184170646458893,2.1429629320673484,1.317010570307655,7.8024148700080636,8.082715919448283,4.352797001880688,0.9216038067674129,1.2544826639587234,-0.32562172500000003,-0.96508542,-0.08032206,-9.27808,-6.04296,5.73776,72.0
1774822008.1074665,0.003566741943359375,2026-03-29T22:06:48.107,2026-03-29T18:06:48.107,-31416.48,-49248.765,-83787.795,-49916.744999999995,-14708.25,-20091.285,5221.125,-38302.02,6.403320902107582,6.918127010006244,7.339750717907565,12.902837485853759,13.657763362115158,10.758887256599083,-7.764949858545907,0.7715794497144178,-0.32562172500000003,-0.96508542,-0.08032206,-9.27808,-6.04296,5.73776,72.0
1774822008.1074972,3.075599670410156e-05,2026-03-29T22:06:48.107,2026-03-29T18:06:48.107,-31444.199999999997,-49281.705,-83827.26,-49953.42,-14742.765,-20110.68,5215.41,-38315.295,4.433778156266293,8.00279066591409,9.331623421793783,11.4570069753455,12.338221634287498,11.4589554036136,-13.941916356188557,-0.2157511173875661,-0.32562172500000003,-0.96508542,-0.08032206,-9.27808,-6.04296,5.73776,72.0
1774822008.1140895,0.006592273712158203,2026-03-29T22:06:48.114,2026-03-29T18:06:48.114,-31441.14,-49291.064999999995,-83841.3,-49963.455,-14740.695,-20081.745,5221.485,-38307.42,0.3465086397364042,5.153803858212476,6.679317276900301,4.391196153904925,4.950389912777975,6.608893218509191,-14.163164755198949,-1.2691576128024953,-0.32562172500000003,-0.96508542,-0.08032206,-9.27808,-6.04296,5.73776,72.0
1774822008.1141143,2.47955322265625e-05,2026-03-29T22:06:48.114,2026-03-29T18:06:48.114,-31415.039999999997,-49227.795,-83754.98999999999,-49892.715,-14659.515,-19998.63,5262.929999999999,-38324.115,-3.7844020514077226,0.03766672408965856,1.0531961773376508,-4.621964539439742,-4.699563266632736,-0.9403859931961523,-7.572867964510134,-1.8338707449077647,-0.32562172500000003,-0.96508542,-0.08032206,-9.27808,-6.04296,5.73776,72.0
1774822008.11695,0.0028357505798339844,2026-03-29T22:06:48.116,2026-03-29T18:06:48.116,-31404.69,-49215.284999999996,-83741.08499999999,-49878.99,-14642.01,-20002.59,5393.925,-38303.145,-5.92855681406629,-4.698991586408401,-4.563696367131685,-11.05375037160064,-11.771717927257486,-7.23744195700148,3.359167516849939,-1.5309559659098904,-0.32562172500000003,-0.96508542,-0.08032206,-9.27808,-6.04296,5.73776,72.0
1774822008.1169682,1.811981201171875e-05,2026-03-29T22:06:48.116,2026-03-29T18:06:48.116,-31405.815,-49231.395,-83769.93,-49910.22,-14688.63,-20077.695,5409.675,-38287.845,-5.092414472787239,-6.774349624732004,-7.420989077812264,-11.782987009471068,-12.812245731301427,-9.273939052831338,13.745840090283668,-0.39520399318582056,-0.32562172500000003,-0.96508542,-0.08032206,-9.27808,-6.04296,5.73776,72.0
1774822008.1274824,0.010514259338378906,2026-03-29T22:06:48.127,2026-03-29T18:06:48.127,-31400.954999999998,-49214.655,-83759.355,-49898.924999999996,-14678.369999999999,-20059.155,5377.455,-38290.95,-1.774605530468278,-5.356834244032429,-6.332950319335507,-6.605806520624949,-7.439607208355767,-6.429291635704378,18.509072059558715,1.0850808311357205,-0.32562172500000003,-0.96508542,-0.08032206,-9.27808,-6.04296,5.73776,72.0
1774822008.1275036,2.1219253540039062e-05,2026-03-29T22:06:48.127,2026-03-29T18:06:48.127,-31409.28,-49229.64,-83772.405,-49906.845,-14681.43,-20044.575,5296.545,-38293.695,2.3234312162826884,-1.3799062993669335,-2.1572567363709623,1.737551453385824,1.5269605634761474,-0.6182886826198851,14.890857986896894,2.1751663550688716,-0.32562172500000003,-0.96508542,-0.08032206,-9.27808,-6.04296,5.73776,72.0
1774822008.127525,2.1457672119140625e-05,2026-03-29T22:06:48.127,2026-03-29T18:06:48.127,-31455.945,-49287.825,-83827.215,-49957.29,-14722.605,-20069.28,5264.37,-38293.244999999995,5.167701019112223,3.022602220525441,2.7659603092556826,8.997942234185379,9.5339184208095,4.86661197121666,3.996500580861611,2.262364839085036,-0.33312903,-0.964902315,-0.08349588,-2.79258,-11.03298,2.8078399999999997,72.0
1774822008.127534,8.821487426757812e-06,2026-03-29T22:06:48.127,2026-03-29T18:06:48.127,-31466.34,-49295.205,-83829.555,-49947.435,-14701.68,-20040.21,5317.47,-38311.875,5.399147094025607,5.635746374897252,5.879002152818967,11.569443707554433,12.597914518264377,7.158513607520131,-9.472874712483623,1.199782550663855,-0.33312903,-0.964902315,-0.08349588,-2.79258,-11.03298,2.8078399999999997,72.0
1774822008.1275444,1.049041748046875e-05,2026-03-29T22:06:48.127,2026-03-29T18:06:48.127,-31407.885,-49241.88,-83777.12999999999,-49890.375,-14642.46,-19985.535,5374.304999999999,-38308.32,2.98022113319994,5.259588180511071,5.708123720715842,8.273051903376807,9.285124662226591,5.299199944911183,-19.279606414385885,-0.5669303053315485,-0.33312903,-0.964902315,-0.08349588,-2.79258,-11.03298,2.8078399999999997,72.0
1774822008.1275532,8.821487426757812e-06,2026-03-29T22:06:48.127,2026-03-29T18:06:48.127,-31418.774999999998,-49224.645,-83744.50499999999,-49867.92,-14636.97,-20012.13,5359.005,-38310.705,-0.8262492201372186,2.246173725874884,2.5487867211426067,0.8917298031345905,1.3818598629858132,0.6397625967756155,-20.5835867145737,-2.1810994185627597,-0.33312903,-0.964902315,-0.08349588,-2.79258,-11.03298,2.8078399999999997,72.0
1774822008.1315064,0.003953218460083008,2026-03-29T22:06:48.131,2026-03-29T18:06:48.131,-31441.905,-49228.695,-83752.605,-49907.34,-14697.81,-20080.89,5302.17,-38323.53,-4.115978992595225,-1.7572062708583762,-1.7797119363203175,-6.784477795461758,-7.0583787150260635,-4.00990313558187,-12.351722521807165,-2.794709063837181,-0.33312903,-0.964902315,-0.08349588,-2.79258,-11.03298,2.8078399999999997,72.0
1774822008.1315217,1.52587890625e-05,2026-03-29T22:06:48.131,2026-03-29T18:06:48.131,-31432.5,-49242.06,-83771.595,-49931.145,-14727.689999999999,-20096.594999999998,5313.465,-38322.09,-5.297334971306022,-4.6916723717592115,-4.94330895586112,-10.897086977524884,-11.788502407630903,-5.985430499941117,1.9635385351310994,-2.0192107293913213,-0.33312903,-0.964902315,-0.08349588,-2.79258,-11.03298,2.8078399999999997,72.0
1774822008.1374376,0.00591588020324707,2026-03-29T22:06:48.137,2026-03-29T18:06:48.137,-31412.655,-49259.384999999995,-83810.43,-49946.354999999996,-14730.93,-20098.53,5302.485,-38311.92,-3.862565615817635,-5.130346635781012,-5.320708654753804,-9.453538554182439,-10.504065449182553,-4.240859070902848,15.883799473844178,-0.16607743565124622,-0.33312903,-0.964902315,-0.08349588,-2.79258,-11.03298,2.8078399999999997,72.0
1774822008.1374516,1.4066696166992188e-05,2026-03-29T22:06:48.137,2026-03-29T18:06:48.137,-31417.11,-49280.939999999995,-83823.345,-49935.24,-14711.58,-20089.44,5295.78,-38305.034999999996,-0.6018976244049306,-2.9584295204821034,-2.8147221170244427,-3.289146673900334,-3.967398807656191,0.10575205339209723,22.878949976242616,1.8688535242276683,-0.33312903,-0.964902315,-0.08349588,-2.79258,-11.03298,2.8078399999999997,72.0
1774822008.1412077,0.0037560462951660156,2026-03-29T22:06:48.141,2026-03-29T18:06:48.141,-31430.34,-49277.88,-83822.76,-49940.909999999996,-14703.615,-20072.07,5288.849999999999,-38304.99,2.8280986711037563,0.6297025551983015,1.1525566819298463,4.407570926505478,4.430749467724908,4.436756485333097,19.471777235863694,3.0407368557963137,-0.33312903,-0.964902315,-0.08349588,-2.79258,-11.03298,2.8078399999999997,72.0
1774822008.1412218,1.4066696166992188e-05,2026-03-29T22:06:48.141,2026-03-29T18:06:48.141,-31428.315,-49267.89,-83812.68,-49943.384999999995,-14708.07,-20065.364999999998,5244.66,-38310.525,4.748848696838232,3.7834095197094637,4.430631612193135,9.741965328758933,10.427120305002177,6.132674323848225,6.980372821018766,2.698628154353384,-0.33312903,-0.964902315,-0.08349588,-2.79258,-11.03298,2.8078399999999997,72.0
1774822008.1454663,0.004244565963745117,2026-03-29T22:06:48.145,2026-03-29T18:06:48.145,-31426.289999999997,-49258.125,-83797.785,-49931.009999999995,-14703.615,-20064.51,5204.655,-38312.865,4.286380809872267,4.945266396020189,5.285696243368078,10.084181192577748,11.052514728790158,4.073796840512621,-8.978534164716748,0.9516075266335366,-0.337462515,-0.952451175,-0.08532693,-4.66956,-14.542779999999999,3.03674,72.0
1774822008.1454847,1.8358230590820312e-05,2026-03-29T22:06:48.145,2026-03-29T18:06:48.145,-31444.739999999998,-49279.814999999995,-83820.69,-49953.195,-14722.109999999999,-20074.725,5223.915,-38304.72,1.7713738811979185,3.612348717031649,3.2982822038268296,5.366657969715689,6.107064861688185,-0.6873278095991494,-21.04454018385936,-1.3487474881867543,-0.337462515,-0.952451175,-0.08532693,-4.66956,-14.542779999999999,3.03674,72.0
1774822008.1495872,0.004102468490600586,2026-03-29T22:06:48.149,2026-03-29T18:06:48.149,-31447.215,-49276.395,-83813.12999999999,-49937.58,-14698.755,-20044.035,5341.635,-38295.99,-1.4718183532400835,0.5395816295470964,-0.4451639075710785,-1.9333463388013963,-1.7919978897072404,-5.46672745445494,-23.55112312018134,-3.022058885689409,-0.337462515,-0.952451175,-0.08532693,-4.66956,-14.542779999999999,3.03674,72.0
1774822008.1496036,1.6450881958007812e-05,2026-03-29T22:06:48.149,2026-03-29T18:06:48.149,-31460.805,-49290.299999999996,-83825.55,-49941.45,-14695.109999999999,-20042.01,5358.33,-38302.29,-3.8214694852138003,-2.6906494043109346,-3.9499100736443635,-8.093779760915343,-8.59125907368038,-7.425336693249318,-15.222264355247638,-3.168964880183645,-0.337462515,-0.952451175,-0.08532693,-4.66956,-14.542779999999999,3.03674,72.0
1774822008.1582704,0.008666753768920898,2026-03-29T22:06:48.158,2026-03-29T18:06:48.158,-31441.32,-49278.509999999995,-83818.395,-49935.869999999995,-14691.779999999999,-20047.59,5305.095,-38299.229999999996,-4.17571150813137,-4.489422381251043,-5.372646191148932,-10.050415617579835,-10.885462851696403,-5.183107344029317,0.16901258310325065,-1.660602690175963,-0.337462515,-0.952451175,-0.08532693,-4.66956,-14.542779999999999,3.03674,72.0
1774822008.15829,1.9550323486328125e-05,2026-03-29T22:06:48.158,2026-03-29T18:06:48.158,-31421.385,-49260.645,-83795.715,-49934.88,-14702.939999999999,-20046.42,5316.57,-38292.345,-2.477086356931483,-4.045862085739733,-3.983060840348346,-6.928464060785221,-7.632413735570216,0.32141627043501164,15.521791596942666,0.7604302593186038,-0.337462515,-0.952451175,-0.08532693,-4.66956,-14.542779999999999,3.03674,72.0
1774822008.1583056,1.5735626220703125e-05,2026-03-29T22:06:48.158,2026-03-29T18:06:48.158,-31426.289999999997,-49256.595,-83799.675,-49952.744999999995,-14729.31,-20051.37,5382.63,-38287.799999999996,0.30869586034003954,-1.6865717752269886,-0.5284261427157542,-0.43414037208310075,-0.630340804482454,6.228901262491772,23.71702492922905,2.840202242146018,-0.337462515,-0.952451175,-0.08532693,-4.66956,-14.542779999999999,3.03674,72.0
1774822008.158311,5.245208740234375e-06,2026-03-29T22:06:48.158,2026-03-29T18:06:48.158,-31435.155,-49258.17,-83801.745,-49948.695,-14737.23,-20084.355,5339.07,-38292.21,2.72880413803517,1.3474984124673766,3.178435061389594,6.0704870341167,6.4640201541791615,9.244132856744065,20.95855010377765,3.4625585428713324,-0.337462515,-0.952451175,-0.08532693,-4.66956,-14.542779999999999,3.03674,72.0
1774822008.1604924,0.002181529998779297,2026-03-29T22:06:48.160,2026-03-29T18:06:48.160,-31430.07,-49253.58,-83801.025,-49933.125,-14717.699999999999,-20112.75,5292.585,-38293.83,3.602537609867766,3.5642660777130213,5.219876040103139,9.312661500258352,10.046893847482426,7.437847259744243,8.56070060422526,2.2514205785658143,-0.337462515,-0.952451175,-0.08532693,-4.66956,-14.542779999999999,3.03674,72.0
1774822008.1605148,2.2411346435546875e-05,2026-03-29T22:06:48.160,2026-03-29T18:06:48.160,-31424.129999999997,-49254.165,-83806.965,-49924.215,-14692.32,-20139.21,5273.6849999999995,-38289.42,2.6074562752225687,3.9676270405073564,4.572365948145928,7.767887344956319,8.409781792939269,1.394143808454282,-7.671053727785485,-0.19964851943549844,-0.337462515,-0.952451175,-0.08532693,-4.66956,-14.542779999999999,3.03674,72.0
1774822008.165902,0.005387067794799805,2026-03-29T22:06:48.165,2026-03-29T18:06:48.165,-31405.41,-49236.795,-83787.165,-49913.28,-14689.619999999999,-20126.34,5293.349999999999,-38278.665,0.3975735533517273,2.5095062513087383,1.6213470701163217,2.387002813487199,2.5660787251298047,-5.950775264112828,-20.17667718652022,-2.6101125416270463,-0.318663735,-0.953061525,-0.078918255,-3.0977799999999998,-11.33818,4.62378,72.0
1774822008.165934,3.218650817871094e-05,2026-03-29T22:06:48.165,2026-03-29T18:06:48.165,-31402.98,-49235.31,-83790.62999999999,-49932.27,-14717.43,-20112.434999999998,5294.7,-38283.93,-1.7899795510186707,0.039042784338157964,-2.068565736114439,-3.960771337456942,-4.344115436527425,-10.752333862514806,-23.1970975766913,-3.6765441069689277,-0.318663735,-0.953061525,-0.078918255,-3.0977799999999998,-11.33818,4.62378,72.0
1774822008.1678827,0.0019485950469970703,2026-03-29T22:06:48.167,2026-03-29T18:06:48.167,-31438.395,-49271.715,-83831.67,-49973.67,-14751.72,-20122.875,5225.22,-38296.305,-2.8155194270477875,-2.190648478129069,-4.5938902453867945,-8.014046187712218,-8.733932634147074,-10.267050001505384,-15.461423801821601,-2.7755853902042107,-0.318663735,-0.953061525,-0.078918255,-3.0977799999999998,-11.33818,4.62378,72.0
1774822008.167896,1.33514404296875e-05,2026-03-29T22:06:48.167,2026-03-29T18:06:48.167,-31470.795,-49309.155,-83861.19,-49997.835,-14776.56,-20144.79,5142.87,-38307.51,-2.235754534114763,-3.1754485892652915,-4.7103257348929946,-7.806093240060198,-8.439920701493694,-4.378926927465743,-0.7366772494127539,-0.3274778804464459,-0.318663735,-0.953061525,-0.078918255,-3.0977799999999998,-11.33818,4.62378,72.0
1774822008.172449,0.004553079605102539,2026-03-29T22:06:48.172,2026-03-29T18:06:48.172,-31495.41,-49333.095,-83892.105,-50033.564999999995,-14805.224999999999,-20164.815,5155.605,-38319.975,-0.505060364397828,-2.627298710467119,-2.4605128996825276,-3.636232256142031,-3.8045759463527804,4.191396173457473,14.004995886729343,2.390705341159602,-0.318663735,-0.953061525,-0.078918255,-3.0977799999999998,-11.33818,4.62378,72.0
1774822008.1724684,1.9311904907226562e-05,2026-03-29T22:06:48.172,2026-03-29T18:06:48.172,-31479.21,-49270.365,-83805.20999999999,-49935.869999999995,-14695.83,-20045.43,5296.905,-38320.83,1.317203204602652,-1.0311305998768125,0.891286949441735,2.161580329068641,2.5777865300538734,11.163933242151398,21.90975895277475,3.9040284197779607,-0.318663735,-0.953061525,-0.078918255,-3.0977799999999998,-11.33818,4.62378,72.0
1774822008.1760962,0.003627777099609375,2026-03-29T22:06:48.176,2026-03-29T18:06:48.176,-31443.39,-49216.455,-83726.595,-49849.29,-14606.234999999999,-19950.75,5423.67,-38309.67,2.181432272281747,0.7002915019371091,3.5666358715094666,6.503704913460622,7.29014644600369,12.854502447903458,19.46155166785059,3.3335464104509844,-0.318663735,-0.953061525,-0.078918255,-3.0977799999999998,-11.33818,4.62378,72.0
1774822008.176134,3.790855407714844e-05,2026-03-29T22:06:48.176,2026-03-29T18:06:48.176,-31389.344999999998,-49212.674999999996,-83737.485,-49864.86,-14625.72,-19972.17,5412.375,-38279.43,1.6400317790982126,1.7522172979469726,4.2303122215058755,7.197379906754089,7.9194166585237475,8.11514829750961,8.070013237857118,0.9000943845899136,-0.318663735,-0.953061525,-0.078918255,-3.0977799999999998,-11.33818,4.62378,72.0
1774822008.179646,0.0035119056701660156,2026-03-29T22:06:48.179,2026-03-29T18:06:48.179,-31388.985,-49241.88,-83783.97,-49911.479999999996,-14673.06,-20025.0,5361.075,-38264.67,0.08839821211281772,1.813115264449476,2.679216601715835,4.065142136652316,4.306082532812274,-0.9597827499512157,-6.7018507066069715,-2.147959689653149,-0.318663735,-0.953061525,-0.078918255,-3.0977799999999998,-11.33818,4.62378,72.0
1774822008.1796627,1.6689300537109375e-05,2026-03-29T22:06:48.179,2026-03-29T18:06:48.179,-31409.235,-49234.365,-83771.86499999999,-49905.18,-14670.18,-20030.399999999998,5323.275,-38285.189999999995,-1.4782369831434452,1.1488354410119404,-0.10097668492141941,-1.0301182236830226,-1.4358826873792412,-9.973582125159739,-17.86001597899545,-4.168864267156087,-0.318663735,-0.953061525,-0.078918255,-3.0977799999999998,-11.33818,4.62378,72.0
1774822008.1890955,0.009432792663574219,2026-03-29T22:06:48.189,2026-03-29T18:06:48.189,-31417.335,-49233.375,-83773.665,-49914.9,-14685.795,-20056.77,5304.465,-38299.409999999996,-2.054838785889256,0.3388219193674118,-2.5255257593310754,-5.249050804543906,-6.1165055517789915,-14.384392722410023,-20.315799521450124,-4.003903495290999,-0.314391285,-0.95568603,-0.08361795,0.9156,-10.056339999999999,5.31048,72.0
1774822008.1891255,3.0040740966796875e-05,2026-03-29T22:06:48.189,2026-03-29T18:06:48.189,-31410.719999999998,-49233.015,-83786.67,-49934.475,-14714.279999999999,-20099.295,5266.035,-38298.33,-1.22950842397412,-0.13613619915486908,-3.3075649793325885,-6.337410070687728,-7.221209575901905,-11.80927500123912,-13.232086279378345,-1.6309860869167734,-0.314391285,-0.95568603,-0.08361795,0.9156,-10.056339999999999,5.31048,72.0
1774822008.1891532,2.765655517578125e-05,2026-03-29T22:06:48.189,2026-03-29T18:06:48.189,-31375.125,-49207.5,-83765.83499999999,-49908.24,-14687.955,-20078.28,5264.775,-38286.045,0.5479987169664565,-0.18865973901603555,-2.1595155038938287,-3.8354377428726516,-4.263255939799988,-3.2994452803181713,-0.284603397198779,1.769334366568152,-0.314391285,-0.95568603,-0.08361795,0.9156,-10.056339999999999,5.31048,72.0
1774822008.1891656,1.239776611328125e-05,2026-03-29T22:06:48.189,2026-03-29T18:06:48.189,-31404.015,-49249.665,-83798.01,-49915.979999999996,-14686.064999999999,-20048.715,5287.86,-38286.854999999996,2.198097202265664,-0.12151400850717585,0.0884708851485794,0.7147140525771128,0.9902265460353797,7.091262848815053,12.229711876024494,4.397721753590208,-0.314391285,-0.95568603,-0.08361795,0.9156,-10.056339999999999,5.31048,72.0
1774822008.1942596,0.005094051361083984,2026-03-29T22:06:48.194,2026-03-29T18:06:48.194,-31439.789999999997,-49274.28,-83809.665,-49925.655,-14691.51,-20031.165,5333.3099999999995,-38294.28,2.6290180820027858,-0.34026135657374373,2.010069863493641,4.6640703979247515,5.529509751074346,14.266069140387728,18.468777122986733,4.782763761587854,-0.314391285,-0.95568603,-0.08361795,0.9156,-10.056339999999999,5.31048,72.0
1774822008.1942773,1.7642974853515625e-05,2026-03-29T22:06:48.194,2026-03-29T18:06:48.194,-31445.82,-49282.064999999995,-83823.12,-49953.509999999995,-14726.385,-20074.14,5328.36,-38300.085,1.3997515563723681,-0.9816691754390199,2.4392515305979963,5.753638611173787,6.787879610042698,14.612574031853708,15.795089360309614,2.5943466539028486,-0.314391285,-0.95568603,-0.08361795,0.9156,-10.056339999999999,5.31048,72.0
1774822008.1958036,0.0015263557434082031,2026-03-29T22:06:48.195,2026-03-29T18:06:48.195,-31430.204999999998,-49254.795,-83792.7,-49927.77,-14703.705,-20057.355,5329.035,-38307.42,-0.9551778023611575,-1.720607414761452,1.1653462155893468,3.3842006247538716,4.072300885228786,7.832144787448054,5.892407535306907,-1.1222570869625441,-0.314391285,-0.95568603,-0.08361795,0.9156,-10.056339999999999,5.31048,72.0
1774822008.1958168,1.3113021850585938e-05,2026-03-29T22:06:48.195,2026-03-29T18:06:48.195,-31426.92,-49232.025,-83760.56999999999,-49901.625,-14684.31,-20057.895,5317.5599999999995,-38318.265,-3.150418260614549,-1.9145069572752664,-0.9402465848894984,-1.0453309620220972,-1.0499152473894937,-2.859976569144833,-6.22557917448265,-4.444141936300359,-0.314391285,-0.95568603,-0.08361795,0.9156,-10.056339999999999,5.31048,72.0
1774822008.200559,0.004742145538330078,2026-03-29T22:06:48.200,2026-03-29T18:06:48.200,-31441.905,-49246.244999999995,-83779.245,-49920.345,-14701.68,-20085.57,5299.0199999999995,-38320.064999999995,-3.834190871466304,-1.0300964459331952,-2.4488389680536713,-4.924224587326965,-5.625468662710348,-12.28443892463898,-14.753901458178701,-5.564630163300144,-0.314391285,-0.95568603,-0.08361795,0.9156,-10.056339999999999,5.31048,72.0
1774822008.2005897,3.075599670410156e-05,2026-03-29T22:06:48.200,2026-03-29T18:06:48.200,-31455.405,-49264.965,-83801.87999999999,-49936.994999999995,-14716.8,-20093.895,5287.005,-38318.04,-2.374396780309748,0.9012080005539681,-2.2549209888573065,-5.912291081486602,-6.973398112743222,-15.83861945791763,-15.89471462396818,-3.7699579193720076,-0.314391285,-0.95568603,-0.08361795,0.9156,-10.056339999999999,5.31048,72.0
1774822008.2038589,0.003269195556640625,2026-03-29T22:06:48.203,2026-03-29T18:06:48.203,-31446.989999999998,-49265.235,-83799.675,-49935.915,-14719.32,-20094.03,5262.03,-38319.075,0.6950354304673191,3.1093912865135698,-0.29768134980786426,-3.2966754718228923,-4.212548115096108,-11.767292385183065,-9.55572000431457,0.12711914347419556,-0.320006505,-0.95239014,-0.090026625,1.0682,-10.42258,6.77544,72.0
1774822008.2038782,1.9311904907226562e-05,2026-03-29T22:06:48.203,2026-03-29T18:06:48.203,-31417.965,-49271.445,-83811.69,-49947.03,-14720.715,-20086.739999999998,5270.58,-38298.06,3.850249801456742,4.368665279513924,2.3188285385908487,1.5435719098566925,1.195937113879384,-2.032303528229745,0.8166067766141912,4.152887699320512,-0.320006505,-0.95239014,-0.090026625,1.0682,-10.42258,6.77544,72.0
1774822008.208789,0.004910945892333984,2026-03-29T22:06:48.208,2026-03-29T18:06:48.208,-31423.454999999998,-49276.305,-83810.11499999999,-49930.02,-14692.41,-20066.715,5305.005,-38291.22,5.330924566345734,3.6483046617152435,3.9160836967828327,5.8511654062244505,6.2130603982689765,8.65106458922791,10.09107008941047,6.175147773741896,-0.320006505,-0.95239014,-0.090026625,1.0682,-10.42258,6.77544,72.0
1774822008.2088156,2.6464462280273438e-05,2026-03-29T22:06:48.208,2026-03-29T18:06:48.208,-31432.32,-49284.27,-83813.535,-49918.365,-14684.67,-20062.755,5306.22,-38293.2,4.1000728060836495,0.796148923087568,3.2371056289924875,7.017970488507847,7.89664836456454,15.129202577635121,14.002789772358456,5.032465235689598,-0.320006505,-0.95239014,-0.090026625,1.0682,-10.42258,6.77544,72.0
1774822008.2122295,0.0034139156341552734,2026-03-29T22:06:48.212,2026-03-29T18:06:48.212,-31431.824999999997,-49280.04,-83814.345,-49934.205,-14713.785,-20081.07,5262.705,-38301.975,0.49513771567581427,-3.1582106420184055,0.28264537011472496,4.095426087365071,5.075524350442237,14.325551607779008,11.124878638896908,1.1921093806522292,-0.320006505,-0.95239014,-0.090026625,1.0682,-10.42258,6.77544,72.0
1774822008.2122483,1.8835067749023438e-05,2026-03-29T22:06:48.212,2026-03-29T18:06:48.212,-31421.204999999998,-49256.055,-83802.95999999999,-49940.325,-14719.814999999999,-20084.715,5227.605,-38306.115,-3.815464492661522,-6.33420700533194,-3.526238797702418,-1.5626984119155922,-0.9108376345174225,6.714811740466849,3.341560597331509,-3.4325735459999325,-0.320006505,-0.95239014,-0.090026625,1.0682,-10.42258,6.77544,72.0
1774822008.215692,0.0034437179565429688,2026-03-29T22:06:48.215,2026-03-29T18:06:48.215,-31434.03,-49266.854999999996,-83817.855,-49956.659999999996,-14728.635,-20085.57,5256.179999999999,-38303.1,-6.606183894426192,-6.886038076883613,-6.019604601615659,-6.925562879225701,-6.850366119941444,-3.9565896798343396,-5.305920754419696,-6.439879370977533,-0.320006505,-0.95239014,-0.090026625,1.0682,-10.42258,6.77544,72.0
1774822008.215711,1.9073486328125e-05,2026-03-29T22:06:48.215,2026-03-29T18:06:48.215,-31446.045,-49293.63,-83846.52,-49980.06,-14744.564999999999,-20098.934999999998,5292.045,-38307.33,-6.239490382181359,-4.030195571278753,-5.472106452845034,-8.890733706883267,-9.36937244278357,-12.540141586119383,-10.722297757152045,-6.191674545160309,-0.320006505,-0.95239014,-0.090026625,1.0682,-10.42258,6.77544,72.0
1774822008.22799,0.01227879524230957,2026-03-29T22:06:48.227,2026-03-29T18:06:48.227,-31459.454999999998,-49289.085,-83828.97,-49959.09,-14727.015,-20098.215,5280.66,-38327.58,-2.594751626902262,1.3418328161544462,-1.6766652224824794,-6.025823597644121,-6.809623877803517,-15.000285900463918,-10.712693588075956,-2.7051830025444303,-0.320006505,-0.95239014,-0.090026625,1.0682,-10.42258,6.77544,72.0
1774822008.22801,2.002716064453125e-05,2026-03-29T22:06:48.228,2026-03-29T18:06:48.228,-31421.25,-49242.915,-83779.73999999999,-49911.705,-14690.295,-20066.535,5307.705,-38314.305,2.7344711217122692,6.869722918235754,3.7333946355730485,0.5125207618398983,-0.24161776966917126,-10.331702289329217,-5.8463551209450575,2.3004843547883427,-0.320006505,-0.95239014,-0.090026625,1.0682,-10.42258,6.77544,72.0
1774822008.2280471,3.719329833984375e-05,2026-03-29T22:06:48.228,2026-03-29T18:06:48.228,-31425.03,-49261.095,-83806.155,-49938.345,-14717.519999999999,-20082.105,5331.599999999999,-38297.205,7.1362003817441275,9.75488632113871,7.9759104068328925,7.434912714005117,6.979260658138674,-0.9585000329648362,1.097469132578441,6.255243451308393,-0.31567302,-0.945371115,-0.09020973,0.30519999999999997,-8.91184,7.9352,72.0
1774822008.2280538,6.67572021484375e-06,2026-03-29T22:06:48.228,2026-03-29T18:06:48.228,-31415.76,-49242.284999999996,-83779.605,-49912.2,-14692.14,-20054.43,5329.53,-38289.869999999995,8.266467587369664,8.16972930003841,8.539120183833978,10.977342441004364,10.93222131749951,8.53599655934616,6.696367580771052,7.064205716954843,-0.31567302,-0.945371115,-0.09020973,0.30519999999999997,-8.91184,7.9352,72.0
1774822008.2280617,7.867813110351562e-06,2026-03-29T22:06:48.228,2026-03-29T18:06:48.228,-31402.8,-49215.869999999995,-83745.9,-49879.71,-14657.984999999999,-20018.969999999998,5334.795,-38292.795,5.290387409333728,2.3387042934066717,4.608538204392564,8.923449338340689,9.242512701948005,13.678369038103385,8.590266791882275,4.222287427470681,-0.31567302,-0.945371115,-0.09020973,0.30519999999999997,-8.91184,7.9352,72.0
1774822008.2280684,6.67572021484375e-06,2026-03-29T22:06:48.228,2026-03-29T18:06:48.228,-31427.73,-49254.479999999996,-83789.28,-49923.63,-14698.89,-20062.53,5242.905,-38304.045,-0.5763057167807877,-5.3233280066572455,-2.28859880961277,1.9132576963090364,2.4543066223342747,12.23685604618599,6.46614588055566,-0.8774965797709231,-0.31567302,-0.945371115,-0.09020973,0.30519999999999997,-8.91184,7.9352,72.0
1774822008.2321744,0.004106044769287109,2026-03-29T22:06:48.232,2026-03-29T18:06:48.232,-31456.98,-49289.895,-83820.69,-49953.33,-14736.015,-20123.415,5176.17,-38323.305,-6.5539852291126435,-11.19693408333032,-8.851203708116978,-6.708186149048535,-6.109446656663153,5.188578399139264,1.915014512952694,-5.626778702354471,-0.31567302,-0.945371115,-0.09020973,0.30519999999999997,-8.91184,7.9352,72.0
1774822008.2321963,2.193450927734375e-05,2026-03-29T22:06:48.232,2026-03-29T18:06:48.232,-31486.14,-49307.759999999995,-83831.4,-49963.455,-14749.83,-20139.84,5194.26,-38358.99,-9.625538780910981,-12.174721611090305,-11.589453128174757,-12.501173058834304,-11.988849178815814,-3.8956103104942503,-2.6265192361952083,-7.541280177257479,-0.31567302,-0.945371115,-0.09020973,0.30519999999999997,-8.91184,7.9352,72.0
1774822008.2705786,0.03838229179382324,2026-03-29T22:06:48.270,2026-03-29T18:06:48.270,-31473.045,-49293.494999999995,-83821.31999999999,-49953.6,-14732.685,-20108.52,5250.014999999999,-38350.979999999996,-8.065668166069946,-7.2917585507428715,-8.663655867671325,-12.21897952349275,-11.912555164944726,-10.677725113775756,-5.190778096935211,-5.56702591065711,-0.31567302,-0.945371115,-0.09020973,0.30519999999999997,-8.91184,7.9352,72.0
1774822008.2705967,1.811981201171875e-05,2026-03-29T22:06:48.270,2026-03-29T18:06:48.270,-31424.625,-49235.85,-83775.915,-49913.369999999995,-14691.285,-20063.204999999998,5307.525,-38315.744999999995,-2.395383419998679,1.580748942407165,-1.0138025330673512,-5.592902100952172,-5.592897962565669,-12.148607378182188,-5.137434546049757,-0.6640626480692614,-0.31567302,-0.945371115,-0.09020973,0.30519999999999997,-8.91184,7.9352,72.0
