unix_time_s,dt_s,UTC,LOCAL,EMG1_Raw,EMG2_Raw,EMG3_Raw,EMG4_Raw,EMG5_Raw,EMG6_Raw,EMG7_Raw,EMG8_Raw,EMG1_Filtered,EMG2_Filtered,EMG3_Filtered,EMG4_Filtered,EMG5_Filtered,EMG6_Filtered,EMG7_Filtered,EMG8_Filtered,Accel1_Raw,Accel2_Raw,Accel3_Raw,Gyro1_Raw,Gyro2_Raw,Gyro3_Raw,Battery
1774822182.2661998,,2026-03-29T22:09:42.266,2026-03-29T18:09:42.266,-32933.295,-48765.104999999996,-85226.985,-50166.765,-14398.064999999999,-19541.79,5347.98,-63814.994999999995,-0.5016814101512767,-0.1821490029641351,0.030141275675118404,0.23560360005910871,0.16772427365287465,0.05367773089641679,-0.3560001297077549,-0.7137183203141784,-0.240538935,-0.8876320050000001,0.39282126,11.445,8.042019999999999,-47.321259999999995,71.0
1774822182.266222,2.2172927856445312e-05,2026-03-29T22:09:42.266,2026-03-29T18:09:42.266,-32934.15,-48765.465,-85227.48,-50166.134999999995,-14397.39,-19543.005,5339.5199999999995,-63817.155,-3.263557796207954,-1.5078593539645555,-0.25977778765322246,0.040086079260191726,-0.5557459721395602,-1.2894035357624998,2.2656264215548285,-3.787794046027667,-0.240538935,-0.8876320050000001,0.39282126,11.445,8.042019999999999,-47.321259999999995,71.0
1774822182.26993,0.0037078857421875,2026-03-29T22:09:42.269,2026-03-29T18:09:42.269,-32936.625,-48767.22,-85228.83,-50168.115,-14399.82,-19547.325,5332.635,-63818.28,-4.47071718966285,-2.08693168068152,-0.3879791177350091,-0.14802125417783216,-0.9946404355711236,-1.9966287017447,3.903435150585605,-5.053705788337894,-0.240538935,-0.8876320050000001,0.39282126,11.445,8.042019999999999,-47.321259999999995,71.0
1774822182.2699387,8.821487426757812e-06,2026-03-29T22:09:42.269,2026-03-29T18:09:42.269,-32936.895,-48768.75,-85230.405,-50169.6,-14401.574999999999,-19549.53,5337.315,-63817.155,-3.5835695839956294,-1.7037378576890392,-0.3582238992447811,-0.297385269279678,-0.9982196157828525,-1.773173754975248,3.9352679420184566,-3.8967465386574913,-0.240538935,-0.8876320050000001,0.39282126,11.445,8.042019999999999,-47.321259999999995,71.0
1774822182.273909,0.00397038459777832,2026-03-29T22:09:42.273,2026-03-29T18:09:42.273,-32935.005,-48770.415,-85236.48,-50175.314999999995,-14403.33,-19545.66,5354.01,-63812.43,-1.049289176304853,-0.5911313568730229,-0.24020323353470605,-0.3839081447102192,-0.6100667341770522,-0.7634640224459075,2.4060746305803273,-0.8665945860006024,-0.240538935,-0.8876320050000001,0.39282126,11.445,8.042019999999999,-47.321259999999995,71.0
1774822182.2739358,2.6702880859375e-05,2026-03-29T22:09:42.273,2026-03-29T18:09:42.273,-32938.515,-48776.58,-85247.19,-50183.729999999996,-14409.225,-19548.495,5349.105,-63812.25,1.920493910923231,0.6985737228584058,-0.11715109478777755,-0.3858526897236916,-0.031324951526830805,0.5303558979197024,-0.02261067453494087,2.5849736174052245,-0.240538935,-0.8876320050000001,0.39282126,11.445,8.042019999999999,-47.321259999999995,71.0
1774822182.2783837,0.00444793701171875,2026-03-29T22:09:42.278,2026-03-29T18:09:42.278,-32927.445,-48768.795,-85241.34,-50178.42,-14404.365,-19546.065,5346.495,-63802.395,3.9300559669961856,1.5658218419226981,-0.03655462521564909,-0.2872369524710573,0.48143904769613094,1.496687087533626,-2.3654161560707436,4.801834076541417,-0.240538935,-0.8876320050000001,0.39282126,11.445,8.042019999999999,-47.321259999999995,71.0
1774822182.2784142,3.0517578125e-05,2026-03-29T22:09:42.278,2026-03-29T18:09:42.278,-32929.29,-48764.205,-85230.62999999999,-50167.619999999995,-14394.195,-19537.739999999998,5346.8099999999995,-63808.064999999995,4.059498266876517,1.6460199787746042,0.00965810417859766,-0.08993901485280478,0.7328602398263375,1.7074023065624346,-3.7157682089465687,4.720131849809773,-0.240538935,-0.8876320050000001,0.39282126,11.445,8.042019999999999,-47.321259999999995,71.0
1774822182.2817893,0.0033750534057617188,2026-03-29T22:09:42.281,2026-03-29T18:09:42.281,-32939.28,-48768.479999999996,-85229.19,-50164.064999999995,-14392.439999999999,-19535.94,5349.96,-63821.88,2.290452541466708,0.967572946490441,0.06665545304786545,0.17258039778398265,0.6657606232876337,1.1136507763170451,-3.592530940728996,2.3794172943769794,-0.240538935,-0.8876320050000001,0.39282126,11.445,8.042019999999999,-47.321259999999995,71.0
1774822182.2818108,2.1457672119140625e-05,2026-03-29T22:09:42.281,2026-03-29T18:09:42.281,-32939.145,-48771.585,-85234.72499999999,-50170.14,-14399.775,-19544.13,5342.3099999999995,-63820.215,-0.5015150632306449,-0.08509839516944917,0.17275537820759884,0.4307441890344508,0.3666385531262433,0.05223850854629904,-2.10018368266415,-1.0977143580636888,-0.240538935,-0.8876320050000001,0.39282126,11.445,8.042019999999999,-47.321259999999995,71.0
1774822182.2862334,0.004422664642333984,2026-03-29T22:09:42.286,2026-03-29T18:09:42.286,-32930.415,-48762.945,-85225.185,-50160.42,-14390.73,-19534.77,5343.75,-63815.174999999996,-2.9781641499329856,-0.9782273531444311,0.3175585488979498,0.5919186154221273,0.004092265893396116,-0.9355368769129685,0.14444356074408063,-4.046487269103725,-0.2404779,-0.89123307,0.392638155,11.27714,7.9352,-48.95408,71.0
1774822182.286261,2.765655517578125e-05,2026-03-29T22:09:42.286,2026-03-29T18:09:42.286,-32929.2,-48762.36,-85223.565,-50162.49,-14393.205,-19533.735,5366.925,-63813.465,-3.9818491647517504,-1.2978081257802623,0.4299794750282237,0.5716048977891731,-0.263174309204863,-1.3784635545387616,2.27239819765764,-5.0594348944997085,-0.2404779,-0.89123307,0.392638155,11.27714,7.9352,-48.95408,71.0
1774822182.2902477,0.0039865970611572266,2026-03-29T22:09:42.290,2026-03-29T18:09:42.290,-32930.055,-48763.935,-85227.165,-50166.765,-14398.064999999999,-19538.145,5363.595,-63814.454999999994,-3.0807097245451964,-0.9461699956473214,0.4088034277073981,0.33324606984208655,-0.35978610063957217,-1.104731332491219,3.4975207682101437,-3.6592074352120596,-0.2404779,-0.89123307,0.392638155,11.27714,7.9352,-48.95408,71.0
1774822182.2902706,2.288818359375e-05,2026-03-29T22:09:42.290,2026-03-29T18:09:42.290,-32932.35,-48767.04,-85230.58499999999,-50169.509999999995,-14401.305,-19541.745,5353.0199999999995,-63815.579999999994,-0.7571495422440728,-0.17068771168540722,0.1844916983462915,-0.0804868145578475,-0.3128258958669776,-0.31255006167329663,3.3975446154935707,-0.5223834388344993,-0.2404779,-0.89123307,0.392638155,11.27714,7.9352,-48.95408,71.0
1774822182.2945435,0.004272937774658203,2026-03-29T22:09:42.294,2026-03-29T18:09:42.294,-32931.09,-48768.165,-85232.47499999999,-50169.42,-14400.269999999999,-19540.305,5351.67,-63813.42,1.8440198043980898,0.5840038638169718,-0.21982043980935223,-0.5430319361506446,-0.21226532176285204,0.5492815742466463,2.0457568135700894,2.850215869025145,-0.2404779,-0.89123307,0.392638155,11.27714,7.9352,-48.95408,71.0
1774822182.294566,2.2411346435546875e-05,2026-03-29T22:09:42.294,2026-03-29T18:09:42.294,-32928.479999999996,-48766.365,-85229.37,-50163.345,-14393.385,-19532.655,5352.48,-63810.854999999996,3.4785826363350467,0.9190221238497471,-0.6661402404444626,-0.8762900916358319,-0.1408856761602551,1.0249856789854597,-0.03959785358772973,4.854779095619771,-0.2404779,-0.89123307,0.392638155,11.27714,7.9352,-48.95408,71.0
1774822182.2981691,0.003603219985961914,2026-03-29T22:09:42.298,2026-03-29T18:09:42.298,-32919.479999999996,-48754.619999999995,-85215.87,-50150.07,-14381.595,-19523.52,5339.61,-63809.235,3.4004668244127814,0.6907257062329866,-0.9417666131537618,-0.9154763718022499,-0.11801187357850437,0.8909403591411824,-2.0953742539396565,4.5490868756665215,-0.2404779,-0.89123307,0.392638155,11.27714,7.9352,-48.95408,71.0
1774822182.298188,1.8835067749023438e-05,2026-03-29T22:09:42.298,2026-03-29T18:09:42.298,-32908.815,-48739.545,-85199.625,-50138.64,-14371.92,-19515.059999999998,5343.57,-63804.375,1.7056517537021259,0.0771796166551712,-0.8547027057519484,-0.5850682825567152,-0.09204043522935604,0.26558298126391483,-3.384816944735456,2.094831481893695,-0.2404779,-0.89123307,0.392638155,11.27714,7.9352,-48.95408,71.0
1774822182.302182,0.003993988037109375,2026-03-29T22:09:42.302,2026-03-29T18:09:42.302,-32916.15,-48746.25,-85206.87,-50147.189999999995,-14381.055,-19524.6,5337.8099999999995,-63813.015,-0.7377490649989358,-0.5316240489302984,-0.3443302933442854,0.04676424892195367,0.01326298767836381,-0.46595848965383985,-3.4476760290869892,-1.3298680165431405,-0.2404779,-0.89123307,0.392638155,11.27714,7.9352,-48.95408,71.0
1774822182.302256,7.414817810058594e-05,2026-03-29T22:09:42.302,2026-03-29T18:09:42.302,-32940.585,-48774.825,-85237.965,-50175.765,-14408.414999999999,-19550.114999999998,5335.38,-63826.649999999994,-2.7299896403207495,-0.7590210759594336,0.45034233102948606,0.7662949058900993,0.22776325186611768,-0.8704446300229481,-2.2519914842347912,-4.099855439053584,-0.2404779,-0.89123307,0.392638155,11.27714,7.9352,-48.95408,71.0
1774822182.306188,0.003931999206542969,2026-03-29T22:09:42.306,2026-03-29T18:09:42.306,-32939.82,-48775.86,-85236.97499999999,-50171.895,-14403.42,-19544.94,5374.9349999999995,-63818.235,-3.3287521852391686,-0.45913524382910975,1.212261908530207,1.2788131189990757,0.4865973447919362,-0.7099195495574844,-0.2049205464585541,-4.917242252335136,-0.236876835,-0.894345855,0.39318747,8.59138,8.042019999999999,-50.113839999999996,71.0
1774822182.3062153,2.7179718017578125e-05,2026-03-29T22:09:42.306,2026-03-29T18:09:42.306,-32937.57,-48774.735,-85234.635,-50167.979999999996,-14400.63,-19543.454999999998,5368.139999999999,-63816.165,-2.297317237023241,0.19406969695073722,1.5668445136374503,1.324967577561314,0.6423080153195437,-0.07744259691935365,1.9782906341969413,-3.420137343223053,-0.236876835,-0.894345855,0.39318747,8.59138,8.042019999999999,-50.113839999999996,71.0
1774822182.310161,0.003945827484130859,2026-03-29T22:09:42.310,2026-03-29T18:09:42.310,-32933.52,-48772.619999999995,-85232.25,-50164.47,-14398.65,-19542.329999999998,5358.96,-63812.88,-0.19739749668655082,0.7988788163381372,1.2593626916066774,0.805621587078587,0.5412475074423125,0.6507451153794372,3.508872713692348,-0.33987155515989725,-0.236876835,-0.894345855,0.39318747,8.59138,8.042019999999999,-50.113839999999996,71.0
1774822182.310186,2.47955322265625e-05,2026-03-29T22:09:42.310,2026-03-29T18:09:42.310,-32935.275,-48772.845,-85233.87,-50170.95,-14404.32,-19546.245,5351.04,-63816.03,1.9095245479717395,0.9533000887019164,0.30819762336154527,-0.1422433709542816,0.12723176979142942,1.024056408991504,3.7943202390534077,2.860091779216811,-0.236876835,-0.894345855,0.39318747,8.59138,8.042019999999999,-50.113839999999996,71.0
1774822182.3140693,0.00388336181640625,2026-03-29T22:09:42.314,2026-03-29T18:09:42.314,-32924.655,-48764.924999999996,-85227.345,-50169.42,-14402.295,-19542.6,5350.86,-63808.064999999995,2.9961832889895867,0.49521353619248415,-0.9504882066001414,-1.1650459391840864,-0.48847560227366166,0.7761658353356498,2.659878303324324,4.683652679046206,-0.236876835,-0.894345855,0.39318747,8.59138,8.042019999999999,-50.113839999999996,71.0
1774822182.3141837,0.00011444091796875,2026-03-29T22:09:42.314,2026-03-29T18:09:42.314,-32917.86,-48763.755,-85228.11,-50173.74,-14406.164999999999,-19545.075,5351.625,-63797.67,2.571018915445061,-0.3803668785031553,-1.9704868161172775,-1.8174001711305208,-1.0423681050123739,-0.008847692599663936,0.44354409138403084,4.303679921398215,-0.236876835,-0.894345855,0.39318747,8.59138,8.042019999999999,-50.113839999999996,71.0
1774822182.3234444,0.00926065444946289,2026-03-29T22:09:42.323,2026-03-29T18:09:42.323,-32919.615,-48768.165,-85234.185,-50177.43,-14410.17,-19551.329999999998,5348.7,-63797.49,0.9017995762053113,-1.2013779135492515,-2.2283912718186922,-1.7526212827069405,-1.2288902156412818,-0.9198722693312315,-2.0834689313438366,1.9356407138102667,-0.236876835,-0.894345855,0.39318747,8.59138,8.042019999999999,-50.113839999999996,71.0
1774822182.3234632,1.8835067749023438e-05,2026-03-29T22:09:42.323,2026-03-29T18:09:42.323,-32935.635,-48762.72,-85218.3,-50157.134999999995,-14389.199999999999,-19530.54,5357.835,-63829.125,-1.1411187217272527,-1.4651517361776218,-1.4848611293013407,-0.8995393876491974,-0.8611528756811521,-1.428900401040712,-3.965729189610516,-1.2847980617674801,-0.236876835,-0.894345855,0.39318747,8.59138,8.042019999999999,-50.113839999999996,71.0
1774822182.3234792,1.5974044799804688e-05,2026-03-29T22:09:42.323,2026-03-29T18:09:42.323,-32935.5,-48758.67,-85213.17,-50151.869999999995,-14382.855,-19523.43,5371.0199999999995,-63827.505,-2.5340967398436867,-0.9255204187312668,0.053218337769323595,0.4617949471850694,-0.000364203412321145,-1.1823970798196108,-4.413084893401518,-3.8509915479106698,-0.236876835,-0.894345855,0.39318747,8.59138,8.042019999999999,-50.113839999999996,71.0
1774822182.3234863,7.152557373046875e-06,2026-03-29T22:09:42.323,2026-03-29T18:09:42.323,-32933.25,-48764.564999999995,-85221.62999999999,-50161.32,-14392.98,-19534.05,5361.974999999999,-63821.564999999995,-2.6117583967619513,0.2368667615839645,1.7670246742292275,1.7788442015941328,1.024550824060318,-0.217866423197061,-3.1296586329179874,-4.593750961366149,-0.236876835,-0.894345855,0.39318747,8.59138,8.042019999999999,-50.113839999999996,71.0
1774822182.3336449,0.010158538818359375,2026-03-29T22:09:42.333,2026-03-29T18:09:42.333,-32940.09,-48772.215,-85230.0,-50169.375,-14402.519999999999,-19544.445,5337.224999999999,-63828.36,-1.3854249416273756,1.4660786291203747,2.8688519346867922,2.44640819408861,1.7378383770425472,1.0189680810500266,-0.48706968089846536,-3.2142555353867395,-0.233580945,-0.896176905,0.39416403,3.4335,8.98814,-48.4505,71.0
1774822182.3336658,2.09808349609375e-05,2026-03-29T22:09:42.333,2026-03-29T18:09:42.333,-32933.52,-48765.689999999995,-85222.26,-50161.814999999995,-14395.185,-19536.93,5339.79,-63823.095,0.4844712249965639,2.0958578413400866,2.7622903620837715,2.0829656471685416,1.7369894700367998,1.8803845155152237,2.553122512245253,-0.39849022001036843,-0.233580945,-0.896176905,0.39416403,3.4335,8.98814,-48.4505,71.0
1774822182.3336856,1.9788742065429688e-05,2026-03-29T22:09:42.333,2026-03-29T18:09:42.333,-32928.255,-48762.674999999996,-85219.69499999999,-50162.67,-14394.644999999999,-19534.274999999998,5352.929999999999,-63816.345,2.038698846354965,1.7023209659648497,1.3560264808217153,0.7384309579934205,0.9107413496947779,1.8509275105365475,4.772501370887012,2.527211608787078,-0.233580945,-0.896176905,0.39416403,3.4335,8.98814,-48.4505,71.0
1774822182.3336957,1.0013580322265625e-05,2026-03-29T22:09:42.333,2026-03-29T18:09:42.333,-32932.305,-48767.31,-85225.455,-50169.869999999995,-14402.654999999999,-19542.51,5349.014999999999,-63819.63,2.5085053412264045,0.3607364263067705,-0.830608416915131,-1.0763138114371043,-0.45994099937978644,0.838982008377888,5.1789672153740245,4.225274344964339,-0.233580945,-0.896176905,0.39416403,3.4335,8.98814,-48.4505,71.0
1774822182.3337069,1.1205673217773438e-05,2026-03-29T22:09:42.333,2026-03-29T18:09:42.333,-32938.065,-48774.555,-85232.47499999999,-50167.89,-14399.595,-19542.96,5344.65,-63823.994999999995,1.695241391024833,-1.3407542040456955,-2.8482760784445804,-2.575683660976902,-1.7870453551862238,-0.7338842148857262,3.4515861231701304,3.960369628574781,-0.233580945,-0.896176905,0.39416403,3.4335,8.98814,-48.4505,71.0
1774822182.3337157,8.821487426757812e-06,2026-03-29T22:09:42.333,2026-03-29T18:09:42.333,-32946.075,-48783.645,-85239.94499999999,-50166.494999999995,-14400.269999999999,-19547.235,5322.24,-63832.32,0.05288825465741529,-2.5595134429530404,-3.728739090069371,-3.0384909571436136,-2.42783324089965,-2.108673058305728,0.14721895378906297,1.9151274813087789,-0.233580945,-0.896176905,0.39416403,3.4335,8.98814,-48.4505,71.0
1774822182.3383613,0.004645586013793945,2026-03-29T22:09:42.338,2026-03-29T18:09:42.338,-32949.405,-48787.11,-85244.84999999999,-50175.945,-14411.295,-19557.765,5314.23,-63837.494999999995,-1.560140361164237,-2.615505711892757,-2.9494853513936525,-2.1544694113882037,-1.9963840644087498,-2.5567787957662036,-3.452550493265413,-0.9259235610108423,-0.233580945,-0.896176905,0.39416403,3.4335,8.98814,-48.4505,71.0
1774822182.3383803,1.9073486328125e-05,2026-03-29T22:09:42.338,2026-03-29T18:09:42.338,-32935.905,-48770.189999999995,-85227.61499999999,-50168.115,-14402.07,-19545.255,5328.945,-63826.965,-2.3263489540188376,-1.3608314031579185,-0.7290461373075492,-0.21200858908777545,-0.583353849376433,-1.7610436247426986,-5.82935142936176,-3.2540575835868992,-0.233580945,-0.896176905,0.39416403,3.4335,8.98814,-48.4505,71.0
1774822182.341998,0.0036177635192871094,2026-03-29T22:09:42.341,2026-03-29T18:09:42.341,-32917.59,-48750.795,-85209.93,-50154.299999999996,-14386.05,-19528.605,5348.655,-63813.195,-1.881923114438098,0.695566341798304,2.0089332572933154,1.9803695961250216,1.2369939322356498,-0.01257450262088386,-5.870531698895582,-4.042416060583124,-0.233580945,-0.896176905,0.39416403,3.4335,8.98814,-48.4505,71.0
1774822182.342025,2.6941299438476562e-05,2026-03-29T22:09:42.342,2026-03-29T18:09:42.342,-32914.305,-48749.354999999996,-85207.815,-50148.945,-14383.98,-19530.63,5357.115,-63807.255,-0.48900704670403145,2.5922477057053044,4.016870590195938,3.428042130068793,2.6382658933945544,1.8910946945011335,-3.393781674267705,-2.998525240423187,-0.233580945,-0.896176905,0.39416403,3.4335,8.98814,-48.4505,71.0
1774822182.347792,0.005766868591308594,2026-03-29T22:09:42.347,2026-03-29T18:09:42.347,-32922.72,-48757.68,-85214.47499999999,-50154.39,-14390.55,-19537.02,5354.46,-63814.814999999995,1.1140066264420974,3.368140299029871,4.294547170079037,3.4036481294059144,2.920023487987434,3.013799777737463,0.6951560919739582,-0.664316700718633,-0.22766055000000002,-0.896054835,0.398619585,-2.01432,11.53656,-43.628339999999994,71.0
1774822182.3478189,2.6941299438476562e-05,2026-03-29T22:09:42.347,2026-03-29T18:09:42.347,-32934.015,-48769.515,-85225.815,-50170.229999999996,-14402.654999999999,-19542.285,5357.16,-63824.399999999994,2.1007227262601815,2.549370837785222,2.587979436757888,1.812495270247581,1.8584503068548643,2.743300988642237,4.718375681606669,1.8652505457124042,-0.22766055000000002,-0.896054835,0.398619585,-2.01432,11.53656,-43.628339999999994,71.0
1774822182.3517368,0.0039179325103759766,2026-03-29T22:09:42.351,2026-03-29T18:09:42.351,-32929.604999999996,-48766.365,-85225.815,-50173.38,-14401.8,-19535.579999999998,5372.505,-63821.159999999996,1.9808002989324882,0.42360626992282113,-0.433172896336777,-0.7134612337056949,-0.14607953022858056,1.1192096509320815,6.914440175166853,3.4590875315406855,-0.22766055000000002,-0.896054835,0.398619585,-2.01432,11.53656,-43.628339999999994,71.0
1774822182.3517652,2.8371810913085938e-05,2026-03-29T22:09:42.351,2026-03-29T18:09:42.351,-32925.104999999996,-48763.575,-85219.02,-50166.36,-14399.955,-19538.055,5359.275,-63816.119999999995,0.8430714029995994,-2.0517635552697615,-3.430770858525308,-3.0606580194815574,-2.2138284460026876,-1.1471904477215882,6.217652260647129,3.4571960275145273,-0.22766055000000002,-0.896054835,0.398619585,-2.01432,11.53656,-43.628339999999994,71.0
1774822182.3541846,0.0024194717407226562,2026-03-29T22:09:42.354,2026-03-29T18:09:42.354,-32925.869999999995,-48769.02,-85225.31999999999,-50169.104999999996,-14402.564999999999,-19543.77,5349.78,-63816.345,-0.7026292991743508,-3.6842620412900264,-4.993444128752626,-4.126671554792402,-3.3743451565811906,-2.987821130385135,2.7796141368993683,1.940412956598591,-0.22766055000000002,-0.896054835,0.398619585,-2.01432,11.53656,-43.628339999999994,71.0
1774822182.3542008,1.621246337890625e-05,2026-03-29T22:09:42.354,2026-03-29T18:09:42.354,-32927.49,-48770.955,-85226.22,-50171.534999999996,-14406.119999999999,-19547.82,5353.74,-63817.335,-1.849380540657009,-3.625163467682072,-4.306385191806254,-3.3421863693747818,-3.026366698134346,-3.4866603136945327,-2.0242300920950314,-0.34543447666153215,-0.22766055000000002,-0.896054835,0.398619585,-2.01432,11.53656,-43.628339999999994,71.0
1774822182.359254,0.005053043365478516,2026-03-29T22:09:42.359,2026-03-29T18:09:42.359,-32938.965,-48772.71,-85224.19499999999,-50168.52,-14402.43,-19543.725,5357.97,-63834.21,-2.0121950339572154,-1.8098901153089644,-1.5757217603243112,-0.9734301173407155,-1.249310235994366,-2.33794173385727,-6.14145212966901,-2.3573501503592023,-0.22766055000000002,-0.896054835,0.398619585,-2.01432,11.53656,-43.628339999999994,71.0
1774822182.3592725,1.8596649169921875e-05,2026-03-29T22:09:42.359,2026-03-29T18:09:42.359,-32935.77,-48769.604999999996,-85221.315,-50164.47,-14396.13,-19539.54,5340.96,-63837.899999999994,-1.1256697303626821,0.9680340712609175,2.0132255712696687,1.9547646064111452,1.1948141524636253,-0.023673640899167975,-7.727862228579595,-3.2333889957417967,-0.22766055000000002,-0.896054835,0.398619585,-2.01432,11.53656,-43.628339999999994,71.0
1774822182.3620915,0.002819061279296875,2026-03-29T22:09:42.362,2026-03-29T18:09:42.362,-32918.265,-48752.145,-85205.745,-50147.28,-14378.535,-19523.745,5320.755,-63829.979999999996,0.3307376544090324,3.405055962095486,4.810618507250821,4.1021053294620415,3.188499168502402,2.3891693087463426,-5.985620302705693,-2.661322038586771,-0.22766055000000002,-0.896054835,0.398619585,-2.01432,11.53656,-43.628339999999994,71.0
1774822182.3621075,1.5974044799804688e-05,2026-03-29T22:09:42.362,2026-03-29T18:09:42.362,-32902.02,-48735.314999999995,-85187.025,-50129.955,-14363.73,-19507.14,5343.75,-63815.13,1.5889769366817201,4.304680211069006,5.466591364954045,4.431083929326737,3.7745505716858734,3.746356174837955,-1.5677655947284446,-0.9807092294476392,-0.22766055000000002,-0.896054835,0.398619585,-2.01432,11.53656,-43.628339999999994,71.0
1774822182.366054,0.003946542739868164,2026-03-29T22:09:42.366,2026-03-29T18:09:42.366,-32912.865,-48747.195,-85199.715,-50141.79,-14374.935,-19515.645,5370.4349999999995,-63819.674999999996,1.9946233842703807,3.169295780553239,3.5888622862799497,2.7132620233620566,2.6205987141913183,3.3644762174138307,3.6575319863108784,1.009353720256419,-0.22009221,-0.898862445,0.405699645,-5.7225,12.57424,-38.317859999999996,71.0
1774822182.3660793,2.5272369384765625e-05,2026-03-29T22:09:42.366,2026-03-29T18:09:42.366,-32931.27,-48769.155,-85225.815,-50168.88,-14402.744999999999,-19542.465,5377.275,-63828.945,1.3458319374124343,0.4724132164671786,-0.029377247874367553,-0.32538153839317235,0.20503593006653403,1.3772377787076466,7.403549405893218,2.4314740603370883,-0.22009221,-0.898862445,0.405699645,-5.7225,12.57424,-38.317859999999996,71.0
1774822182.370154,0.004074573516845703,2026-03-29T22:09:42.370,2026-03-29T18:09:42.370,-32937.93,-48777.84,-85235.48999999999,-50177.205,-14409.99,-19550.969999999998,5367.915,-63831.6,-0.00565861390591958,-2.536110051457616,-3.7407961104722314,-3.3077535084632608,-2.3782585171829074,-1.3061445302697474,7.9799466389343525,2.7181010005871657,-0.22009221,-0.898862445,0.405699645,-5.7225,12.57424,-38.317859999999996,71.0
1774822182.3701854,3.147125244140625e-05,2026-03-29T22:09:42.370,2026-03-29T18:09:42.370,-32938.424999999996,-48775.59,-85230.675,-50172.075,-14405.039999999999,-19547.37,5361.929999999999,-63834.57,-1.3420806825783065,-4.413261497088236,-5.79829104851936,-4.832945772697122,-3.918428142759115,-3.4208333223191465,5.068975248976662,1.834612560370131,-0.22009221,-0.898862445,0.405699645,-5.7225,12.57424,-38.317859999999996,71.0
1774822182.3739972,0.0038118362426757812,2026-03-29T22:09:42.373,2026-03-29T18:09:42.373,-32931.945,-48768.39,-85220.775,-50166.72,-14401.125,-19541.835,5366.16,-63829.665,-1.9569872086834206,-4.220728183929868,-5.1851852203640885,-4.140539810593279,-3.660944748709829,-3.9489828928921993,-0.099831585288648,0.2516331883525041,-0.22009221,-0.898862445,0.405699645,-5.7225,12.57424,-38.317859999999996,71.0
1774822182.3740132,1.5974044799804688e-05,2026-03-29T22:09:42.374,2026-03-29T18:09:42.374,-32929.515,-48766.59,-85219.69499999999,-50167.755,-14403.24,-19543.005,5361.48,-63829.395,-1.5257830937010533,-1.9976956359950315,-2.1235575321706035,-1.4943674521410781,-1.682000965574437,-2.6154115397676643,-5.272450269352629,-1.3011142147710755,-0.22009221,-0.898862445,0.405699645,-5.7225,12.57424,-38.317859999999996,71.0
1774822182.3780067,0.003993511199951172,2026-03-29T22:09:42.378,2026-03-29T18:09:42.378,-32931.63,-48767.445,-85220.64,-50166.045,-14400.945,-19543.77,5348.474999999999,-63834.93,-0.2766255023250463,1.23083844991162,1.9956467070485744,1.9095442543446095,1.1234159261519296,-0.03280146991518147,-8.167044375933632,-2.172729793715744,-0.22009221,-0.898862445,0.405699645,-5.7225,12.57424,-38.317859999999996,71.0
1774822182.3780196,1.2874603271484375e-05,2026-03-29T22:09:42.378,2026-03-29T18:09:42.378,-32934.24,-48767.13,-85220.145,-50164.74,-14400.494999999999,-19543.274999999998,5325.255,-63838.665,1.1277539108474686,3.9277774760577473,5.24565245268631,4.483944141177665,3.446525638829952,2.5805251460945517,-7.497448823709646,-2.064009251075985,-0.22009221,-0.898862445,0.405699645,-5.7225,12.57424,-38.317859999999996,71.0
1774822182.3825457,0.0045261383056640625,2026-03-29T22:09:42.382,2026-03-29T18:09:42.382,-32936.354999999996,-48768.21,-85221.54,-50166.945,-14401.394999999999,-19543.95,5326.785,-63841.049999999996,1.936936148740742,4.780220831505778,6.071535362304519,4.995488396541672,4.179483667885865,3.979873880549367,-3.556375257608204,-1.121062162772539,-0.22009221,-0.898862445,0.405699645,-5.7225,12.57424,-38.317859999999996,71.0
1774822182.3825665,2.0742416381835938e-05,2026-03-29T22:09:42.382,2026-03-29T18:09:42.382,-32934.69,-48766.32,-85219.065,-50165.685,-14398.74,-19542.915,5348.655,-63839.835,1.7087980578240034,3.343812672866882,4.0422342830291695,3.1621403425549905,2.9494111978154605,3.4932102551195947,1.9118141213912794,0.17430968342013173,-0.22009221,-0.898862445,0.405699645,-5.7225,12.57424,-38.317859999999996,71.0
1774822182.3889413,0.006374835968017578,2026-03-29T22:09:42.388,2026-03-29T18:09:42.388,-32930.055,-48764.25,-85216.455,-50162.67,-14394.015,-19537.829999999998,5360.715,-63834.075,0.5479156490002332,0.27699655443229393,0.07993706587723085,-0.18912290611295632,0.31212607615225696,1.3492742546478944,6.494106771267974,1.2484716973577903,-0.215270445,-0.90722424,0.40966692,-3.37246,13.55088,-33.25154,71.0
1774822182.388974,3.266334533691406e-05,2026-03-29T22:09:42.388,2026-03-29T18:09:42.388,-32926.185,-48760.604999999996,-85212.45,-50155.11,-14387.085,-19531.395,5364.72,-63829.979999999996,-0.9405204845207882,-2.9588154531053537,-3.9563842869971695,-3.492607853419196,-2.496187067577638,-1.427343492354165,8.191157235090351,1.6918348938766254,-0.215270445,-0.90722424,0.40966692,-3.37246,13.55088,-33.25154,71.0
1774822182.391724,0.0027501583099365234,2026-03-29T22:09:42.391,2026-03-29T18:09:42.391,-32926.545,-48764.655,-85219.47,-50157.9,-14389.38,-19534.364999999998,5363.82,-63826.38,-1.961678931037187,-4.797391045550793,-6.14637734825808,-5.177651380458749,-4.139614693807883,-3.506966075015429,6.305201352828077,1.4119370456358176,-0.215270445,-0.90722424,0.40966692,-3.37246,13.55088,-33.25154,71.0
1774822182.3917575,3.337860107421875e-05,2026-03-29T22:09:42.391,2026-03-29T18:09:42.391,-32925.42,-48772.08,-85230.765,-50169.465,-14399.505,-19545.344999999998,5354.054999999999,-63819.54,-1.9488927560224585,-4.329795252609507,-5.428943147351688,-4.420912208763703,-3.822163394877894,-3.8958029779978323,1.7316788041376143,0.6280538086230162,-0.215270445,-0.90722424,0.40966692,-3.37246,13.55088,-33.25154,71.0
1774822182.3954315,0.003674030303955078,2026-03-29T22:09:42.395,2026-03-29T18:09:42.395,-32916.869999999995,-48767.534999999996,-85229.28,-50178.375,-14409.269999999999,-19553.67,5344.47,-63810.81,-0.8714273338789835,-1.758060073385709,-2.123784285793964,-1.5545540943834055,-1.6784825193243234,-2.416480234151716,-3.4699463904947407,-0.26969649554104813,-0.215270445,-0.90722424,0.40966692,-3.37246,13.55088,-33.25154,71.0
1774822182.3954494,1.7881393432617188e-05,2026-03-29T22:09:42.395,2026-03-29T18:09:42.395,-32929.83,-48763.89,-85219.245,-50172.03,-14405.039999999999,-19548.945,5341.7699999999995,-63835.695,0.7320752218168595,1.687476293442355,2.205361454203523,2.074264619056984,1.2780026506475892,0.20632155727797916,-7.018704393963822,-0.9143705039091538,-0.215270445,-0.90722424,0.40966692,-3.37246,13.55088,-33.25154,71.0
1774822182.3988645,0.0034151077270507812,2026-03-29T22:09:42.398,2026-03-29T18:09:42.398,-32942.115,-48762.18,-85210.515,-50158.89,-14392.89,-19538.055,5350.41,-63851.715,2.0197353202012516,4.335586360354848,5.48999349627918,4.735744058057094,3.6322890330219666,2.698217945692768,-7.429598482813044,-1.113044730988521,-0.215270445,-0.90722424,0.40966692,-3.37246,13.55088,-33.25154,71.0
1774822182.398877,1.239776611328125e-05,2026-03-29T22:09:42.398,2026-03-29T18:09:42.398,-32933.79,-48761.369999999995,-85201.29,-50156.595,-14398.335,-19540.305,5350.815,-63830.97,2.2818260247154525,4.886138398321973,6.149138442041495,5.144963474331458,4.246221353270434,3.854948373041975,-4.643893424964322,-0.8919247445569534,-0.215270445,-0.90722424,0.40966692,-3.37246,13.55088,-33.25154,71.0
1774822182.4020681,0.003191232681274414,2026-03-29T22:09:42.402,2026-03-29T18:09:42.402,-32934.825,-48765.96,-85215.42,-50163.975,-14399.55,-19542.239999999998,5348.7,-63839.204999999994,1.3228558078117738,3.051464733920326,3.85679413771417,3.0872598921543752,2.812256007726897,3.1278496965247493,-0.00014681041520746914,-0.43319177960158484,-0.215270445,-0.90722424,0.40966692,-3.37246,13.55088,-33.25154,71.0
1774822182.4020765,8.344650268554688e-06,2026-03-29T22:09:42.402,2026-03-29T18:09:42.402,-32928.255,-48760.335,-85215.375,-50160.735,-14392.845,-19536.03,5361.255,-63837.134999999995,-0.41175246865007514,-0.29041737135441686,-0.2907173132318775,-0.4650365151563644,0.011738514875898885,0.8889980844956578,4.416249002057908,0.04522364159229761,-0.215270445,-0.90722424,0.40966692,-3.37246,13.55088,-33.25154,71.0
1774822182.407177,0.0051004886627197266,2026-03-29T22:09:42.407,2026-03-29T18:09:42.407,-32933.07,-48765.015,-85220.64,-50169.284999999996,-14401.17,-19545.344999999998,5355.72,-63838.89,-2.0406020641872207,-3.5129856070120473,-4.2954972256827855,-3.8090792188425735,-2.805063202250415,-1.7539055491486542,6.7256384200919035,0.39509522336865727,-0.20837349,-0.91479258,0.414000405,5.14262,16.3282,-29.69596,71.0
1774822182.4072492,7.224082946777344e-05,2026-03-29T22:09:42.407,2026-03-29T18:09:42.407,-32936.67,-48770.055,-85224.23999999999,-50173.064999999995,-14405.58,-19549.44,5354.235,-63839.295,-2.689426687969718,-5.031569201017115,-6.220765310333089,-5.3279302628586995,-4.268243709311505,-3.502481014705169,6.066114904244319,0.5766501063349994,-0.20837349,-0.91479258,0.414000405,5.14262,16.3282,-29.69596,71.0
1774822182.4102807,0.003031492233276367,2026-03-29T22:09:42.410,2026-03-29T18:09:42.410,-32933.385,-48765.6,-85219.245,-50167.755,-14400.72,-19545.434999999998,5347.304999999999,-63837.585,-1.9514496924148583,-4.0830900263388,-5.131137727300445,-4.275098045209812,-3.6550779033514904,-3.5053054978753413,2.9082423294950646,0.6246001868089323,-0.20837349,-0.91479258,0.414000405,5.14262,16.3282,-29.69596,71.0
1774822182.410298,1.7404556274414062e-05,2026-03-29T22:09:42.410,2026-03-29T18:09:42.410,-32934.825,-48764.655,-85217.58,-50164.875,-14397.795,-19542.329999999998,5337.9,-63840.555,-0.12599955606346255,-1.1111894749251254,-1.552260319547383,-1.1451487788804935,-1.2493791896404518,-1.7750708357726441,-1.2386704938504243,0.5795695465045116,-0.20837349,-0.91479258,0.414000405,5.14262,16.3282,-29.69596,71.0
1774822182.4149091,0.004611015319824219,2026-03-29T22:09:42.414,2026-03-29T18:09:42.414,-32937.795,-48770.189999999995,-85223.925,-50168.924999999996,-14400.269999999999,-19545.48,5347.304999999999,-63840.555,1.8989939011055625,2.4381762557975444,2.7781555930121287,2.555120818774208,1.7861663846057287,0.8200717908802448,-4.557142459637703,0.4400279028873379,-0.20837349,-0.91479258,0.414000405,5.14262,16.3282,-29.69596,71.0
1774822182.414928,1.8835067749023438e-05,2026-03-29T22:09:42.414,2026-03-29T18:09:42.414,-32940.72,-48773.34,-85227.39,-50172.345,-14403.105,-19548.225,5351.22,-63843.21,3.0767481056710846,4.8176913527916225,5.751671625842529,5.030452633664615,3.9687698829402898,2.9870629130646766,-5.7311071746224,0.17087522963248988,-0.20837349,-0.91479258,0.414000405,5.14262,16.3282,-29.69596,71.0
1774822182.4184475,0.0035195350646972656,2026-03-29T22:09:42.418,2026-03-29T18:09:42.418,-32938.02,-48767.715,-85222.665,-50167.619999999995,-14398.695,-19544.265,5346.72,-63843.84,2.73651349426637,4.837104676693291,5.91603069640894,5.068464399156795,4.217824297506538,3.6484679926862706,-4.467632786288289,-0.23760011701695047,-0.20837349,-0.91479258,0.414000405,5.14262,16.3282,-29.69596,71.0
1774822182.418468,2.0503997802734375e-05,2026-03-29T22:09:42.418,2026-03-29T18:09:42.418,-32928.345,-48756.6,-85209.525,-50161.095,-14391.99,-19539.09,5347.485,-63837.225,0.9526552568234603,2.457790127346436,3.1869014284616677,2.6350653011139524,2.3893276256062324,2.476879017930233,-1.5240797339248944,-0.705869365524826,-0.20837349,-0.91479258,0.414000405,5.14262,16.3282,-29.69596,71.0
1774822182.4222257,0.0037577152252197266,2026-03-29T22:09:42.422,2026-03-29T18:09:42.422,-32928.075,-48758.174999999996,-85210.73999999999,-50162.58,-14393.295,-19540.305,5350.86,-63834.119999999995,-1.4505527586508518,-1.1733810449558433,-1.1056107836551246,-1.0993996688693009,-0.6418242714520865,0.05852209137025536,1.7239905524432808,-1.0524055742837415,-0.20837349,-0.91479258,0.414000405,5.14262,16.3282,-29.69596,71.0
1774822182.4222465,2.0742416381835938e-05,2026-03-29T22:09:42.422,2026-03-29T18:09:42.422,-32934.465,-48766.455,-85219.92,-50168.744999999995,-14398.38,-19544.175,5349.465,-63837.36,-3.2794194144150492,-4.274991185382747,-4.862289545236558,-4.321449234241099,-3.3980817676765787,-2.396176132175372,3.9347832035619317,-1.0607629979744617,-0.20837349,-0.91479258,0.414000405,5.14262,16.3282,-29.69596,71.0
1774822182.42862,0.00637364387512207,2026-03-29T22:09:42.428,2026-03-29T18:09:42.428,-32931.765,-48764.205,-85216.68,-50164.56,-14393.654999999999,-19538.19,5352.389999999999,-63834.524999999994,-3.5612760226621787,-5.302697542643472,-6.239702342352539,-5.454363238006344,-4.5167201321828,-3.653399473928809,4.358867596586648,-0.6039720306541336,-0.200255835,-0.90954357,0.417052155,9.155999999999999,17.6253,-26.6287,71.0
1774822182.4286416,2.1457672119140625e-05,2026-03-29T22:09:42.428,2026-03-29T18:09:42.428,-32929.56,-48762.45,-85216.14,-50166.18,-14395.185,-19540.215,5352.48,-63832.409999999996,-2.0537552678491795,-3.7155955390657085,-4.5544327907858815,-3.929548290582016,-3.4208441081988865,-3.07150649893957,3.069738656438731,0.24158474717681847,-0.200255835,-0.90954357,0.417052155,9.155999999999999,17.6253,-26.6287,71.0
1774822182.4362888,0.007647275924682617,2026-03-29T22:09:42.436,2026-03-29T18:09:42.436,-32930.369999999995,-48763.305,-85218.165,-50166.945,-14397.57,-19543.725,5350.32,-63832.905,0.5908402117466461,-0.2576873177438759,-0.6227744612765007,-0.4715985734710187,-0.6141999506747543,-0.9257184634573222,0.8098859030395709,1.170366950965613,-0.200255835,-0.90954357,0.417052155,9.155999999999999,17.6253,-26.6287,71.0
1774822182.4363215,3.266334533691406e-05,2026-03-29T22:09:42.436,2026-03-29T18:09:42.436,-32930.235,-48762.09,-85212.94499999999,-50163.165,-14397.66,-19543.905,5348.205,-63831.284999999996,3.1069547750448234,3.3909383827614694,3.6333936793520354,3.2459730990317657,2.5500191946370445,1.7214197856807254,-1.421882630380111,1.750060138236336,-0.200255835,-0.90954357,0.417052155,9.155999999999999,17.6253,-26.6287,71.0
1774822182.4363592,3.7670135498046875e-05,2026-03-29T22:09:42.436,2026-03-29T18:09:42.436,-32935.32,-48765.555,-85213.98,-50163.705,-14398.154999999999,-19546.02,5343.615,-63835.965,4.222301853576175,5.429602986773827,6.124611365317327,5.410698579282173,4.520394929110861,3.5430140588780525,-2.8174493883964753,1.6230651108725367,-0.200255835,-0.90954357,0.417052155,9.155999999999999,17.6253,-26.6287,71.0
1774822182.4363708,1.1682510375976562e-05,2026-03-29T22:09:42.436,2026-03-29T18:09:42.436,-32939.19,-48769.064999999995,-85221.495,-50168.52,-14400.18,-19549.125,5344.065,-63841.634999999995,3.298461109264336,4.8233657370718275,5.618011149380486,4.954351567513928,4.305282386853834,3.607776372255589,-3.038015507173431,0.7134075858519204,-0.200255835,-0.90954357,0.417052155,9.155999999999999,17.6253,-26.6287,71.0
1774822182.438002,0.0016312599182128906,2026-03-29T22:09:42.438,2026-03-29T18:09:42.438,-32938.92,-48768.345,-85221.9,-50169.78,-14401.755,-19549.26,5344.11,-63841.59,0.6839177569850436,1.824384313323894,2.345691561800134,2.0786206375051957,1.9678199248154067,1.8503422651955443,-2.236528807398955,-0.6759516831124606,-0.200255835,-0.90954357,0.417052155,9.155999999999999,17.6253,-26.6287,71.0
1774822182.4380248,2.2649765014648438e-05,2026-03-29T22:09:42.438,2026-03-29T18:09:42.438,-32940.315,-48769.424999999996,-85223.52,-50170.95,-14403.644999999999,-19550.07,5328.72,-63844.155,-2.4115091772807737,-2.1331559934662607,-2.102670600353379,-1.8353005445180726,-1.3879847229098443,-0.8836733102122085,-0.873568105318647,-1.9495670652930743,-0.200255835,-0.90954357,0.417052155,9.155999999999999,17.6253,-26.6287,71.0
1774822182.442316,0.0042912960052490234,2026-03-29T22:09:42.442,2026-03-29T18:09:42.442,-32938.515,-48768.345,-85219.245,-50166.674999999996,-14399.414999999999,-19546.649999999998,5317.245,-63841.454999999994,-4.479373707444405,-5.120838558610915,-5.552920680283853,-4.892237217700991,-4.1402880918459655,-3.2450695661199385,0.5365791809130039,-2.4748405907877045,-0.200255835,-0.90954357,0.417052155,9.155999999999999,17.6253,-26.6287,71.0
1774822182.4423394,2.3365020751953125e-05,2026-03-29T22:09:42.442,2026-03-29T18:09:42.442,-32941.89,-48775.095,-85227.97499999999,-50173.83,-14406.39,-19554.21,5319.2699999999995,-63842.399999999994,-4.449623425439549,-5.655708312317725,-6.308613951737935,-5.601873105462961,-4.932952378667236,-4.044290026281123,1.6130848140121608,-1.8971390224655216,-0.200255835,-0.90954357,0.417052155,9.155999999999999,17.6253,-26.6287,71.0
1774822182.446492,0.004152536392211914,2026-03-29T22:09:42.446,2026-03-29T18:09:42.446,-32940.72,-48777.615,-85232.655,-50178.645,-14412.015,-19559.79,5348.205,-63836.189999999995,-2.2408917080440767,-3.4335103735646006,-3.98295932617357,-3.6044393621112882,-3.3407500553148295,-2.845152067650355,2.164938282418795,-0.35754007566769824,-0.19470165,-0.896665185,0.41577042000000003,7.49266,17.59478,-24.4923,71.0
1774822182.4465215,2.956390380859375e-05,2026-03-29T22:09:42.446,2026-03-29T18:09:42.446,-32937.615,-48772.845,-85227.165,-50172.165,-14406.705,-19557.315,5349.69,-63835.515,1.1579084920713918,0.506458093474773,0.3071902947104042,0.1503144173425873,-0.09062886631840054,-0.1944626824020319,2.1444008692877774,1.513657573210783,-0.19470165,-0.896665185,0.41577042000000003,7.49266,17.59478,-24.4923,71.0
1774822182.450483,0.0039615631103515625,2026-03-29T22:09:42.450,2026-03-29T18:09:42.450,-32930.865,-48756.24,-85205.79,-50146.875,-14382.045,-19536.344999999998,5328.72,-63845.055,4.133374923142445,4.27176221029108,4.481432981555489,3.858945475879476,3.2740089539821287,2.6306919675293305,1.5796764214916754,2.852690429192953,-0.19470165,-0.896665185,0.41577042000000003,7.49266,17.59478,-24.4923,71.0
1774822182.45051,2.6941299438476562e-05,2026-03-29T22:09:42.450,2026-03-29T18:09:42.450,-32917.815,-48741.57,-85188.915,-50128.965,-14364.09,-19519.065,5335.38,-63838.979999999996,5.218769715107661,6.029269763985948,6.507215233071602,5.734406139651501,5.129369432475463,4.239788161814011,0.5573212444611814,2.965282895827323,-0.19470165,-0.896665185,0.41577042000000003,7.49266,17.59478,-24.4923,71.0
1774822182.455959,0.005449056625366211,2026-03-29T22:09:42.455,2026-03-29T18:09:42.455,-32923.979999999996,-48755.97,-85208.265,-50151.015,-14383.664999999999,-19534.725,5320.845,-63835.829999999994,3.8196673696770596,4.897942936311969,5.389374514295136,4.86868379559843,4.555091197486043,3.8110904821084937,-0.7370634976504286,1.68716126414671,-0.19470165,-0.896665185,0.41577042000000003,7.49266,17.59478,-24.4923,71.0
1774822182.455979,2.002716064453125e-05,2026-03-29T22:09:42.455,2026-03-29T18:09:42.455,-32928.479999999996,-48772.665,-85230.855,-50175.494999999995,-14405.265,-19551.735,5367.285,-63818.009999999995,0.5337098399024952,1.3865230896022593,1.655545817508721,1.6704464123310865,1.7869546423357385,1.5050546984438877,-1.9767289821816834,-0.48522833456044573,-0.19470165,-0.896665185,0.41577042000000003,7.49266,17.59478,-24.4923,71.0
1774822182.458134,0.002154827117919922,2026-03-29T22:09:42.458,2026-03-29T18:09:42.458,-32948.595,-48798.405,-85258.8,-50202.765,-14432.13,-19576.755,5371.47,-63827.82,-3.105748783392321,-2.840248807912272,-2.8984397891027935,-2.3328880212204286,-1.8831540449475985,-1.5970947729380351,-2.727988196143705,-2.5814754480711617,-0.19470165,-0.896665185,0.41577042000000003,7.49266,17.59478,-24.4923,71.0
1774822182.4581532,1.9311904907226562e-05,2026-03-29T22:09:42.458,2026-03-29T18:09:42.458,-32953.275,-48778.604999999996,-85223.745,-50166.54,-14398.425,-19545.614999999998,5361.12,-63854.325,-5.35205355038592,-5.757394842941182,-6.078158865594368,-5.230907675242495,-4.716131289533152,-4.005362107712515,-2.59625841266191,-3.595107052383578,-0.19470165,-0.896665185,0.41577042000000003,7.49266,17.59478,-24.4923,71.0
1774822182.4699755,0.011822223663330078,2026-03-29T22:09:42.469,2026-03-29T18:09:42.469,-32944.905,-48760.29,-85202.55,-50150.88,-14381.595,-19526.895,5372.235,-63852.84,-5.0904500197039875,-5.95420706721709,-6.351499567531351,-5.646663895249958,-5.353861591993614,-4.5389975793496316,-1.4377543873165963,-2.973260295967887,-0.19470165,-0.896665185,0.41577042000000003,7.49266,17.59478,-24.4923,71.0
1774822182.4699996,2.4080276489257812e-05,2026-03-29T22:09:42.469,2026-03-29T18:09:42.469,-32945.94,-48769.155,-85219.29,-50171.174999999996,-14399.865,-19543.995,5365.53,-63847.665,-2.3939165913305818,-3.3163208656806518,-3.5860757485624357,-3.3918515279675425,-3.470337655330899,-2.903362725041116,0.4781135788515248,-0.9171325072730598,-0.19470165,-0.896665185,0.41577042000000003,7.49266,17.59478,-24.4923,71.0
1774822182.4700232,2.3603439331054688e-05,2026-03-29T22:09:42.470,2026-03-29T18:09:42.470,-32942.655,-48767.58,-85219.245,-50166.945,-14395.545,-19541.114999999998,5365.755,-63845.595,1.4889961362990287,0.9148518768591006,0.8919426725386802,0.45183851395460467,0.06689439658489461,0.1557230634408731,2.4765934370409894,1.6696364130221482,-0.18914746500000001,-0.885190605,0.414122475,4.54748,16.80126,-23.51566,71.0
1774822182.4700315,8.344650268554688e-06,2026-03-29T22:09:42.470,2026-03-29T18:09:42.470,-32939.1,-48762.945,-85213.44,-50164.11,-14396.085,-19542.105,5361.929999999999,-63842.625,4.7189435964296615,4.734311790690826,4.941695819158631,4.058709312310502,3.6033302240762146,3.1985241530397164,3.7043935548117917,3.581242753921151,-0.18914746500000001,-0.885190605,0.414122475,4.54748,16.80126,-23.51566,71.0
1774822182.4727757,0.0027441978454589844,2026-03-29T22:09:42.472,2026-03-29T18:09:42.472,-32932.845,-48757.005,-85210.425,-50164.65,-14395.365,-19541.925,5358.465,-63840.329999999994,5.746539587448298,6.331478101555107,6.6383824285713455,5.733827359624797,5.478726994540651,4.775164345173634,3.5053318970428404,3.8801764554584377,-0.18914746500000001,-0.885190605,0.414122475,4.54748,16.80126,-23.51566,71.0
1774822182.4728498,7.414817810058594e-05,2026-03-29T22:09:42.472,2026-03-29T18:09:42.472,-32932.89,-48756.915,-85210.47,-50163.84,-14393.07,-19540.755,5349.285,-63841.994999999995,4.0631482289487435,4.9527183542646505,5.191352464406044,4.714126957041482,4.8109033526264104,4.119292641707755,1.773938905104618,2.3642558719726123,-0.18914746500000001,-0.885190605,0.414122475,4.54748,16.80126,-23.51566,71.0
1774822182.4742427,0.0013928413391113281,2026-03-29T22:09:42.474,2026-03-29T18:09:42.474,-32933.34,-48758.4,-85210.11,-50160.509999999995,-14389.47,-19535.219999999998,5352.075,-63840.6,0.45432453283221874,1.2553326096156847,1.309852108720228,1.514970611809279,1.909991300170347,1.5183979080586945,-0.9043552274849107,-0.3056329717855562,-0.18914746500000001,-0.885190605,0.414122475,4.54748,16.80126,-23.51566,71.0
1774822182.4742644,2.1696090698242188e-05,2026-03-29T22:09:42.474,2026-03-29T18:09:42.474,-32938.515,-48765.869999999995,-85216.59,-50162.895,-14392.935,-19536.795,5354.01,-63841.095,-3.3714776260922665,-3.0129343968752447,-3.1519127143209507,-2.334992654773001,-1.8714043031999075,-1.8176234148303945,-3.4345554758866075,-2.894698943396073,-0.18914746500000001,-0.885190605,0.414122475,4.54748,16.80126,-23.51566,71.0
1774822182.4793947,0.005130290985107422,2026-03-29T22:09:42.479,2026-03-29T18:09:42.479,-32935.77,-48762.99,-85213.98,-50155.92,-14387.58,-19534.41,5352.525,-63840.645,-5.601630109487397,-5.849850691203632,-6.090141498833352,-5.032862269361463,-4.777592986228207,-4.327342443647629,-4.668874470476099,-4.173637882864644,-0.18914746500000001,-0.885190605,0.414122475,4.54748,16.80126,-23.51566,71.0
1774822182.4794471,5.245208740234375e-05,2026-03-29T22:09:42.479,2026-03-29T18:09:42.479,-32937.705,-48766.814999999995,-85222.53,-50162.985,-14394.15,-19542.735,5348.025,-63843.795,-5.188823926796473,-5.94608093897874,-6.150822972076959,-5.3536217682394165,-5.472908707458791,-4.835484383033569,-3.9436773375670633,-3.5126660064700066,-0.18914746500000001,-0.885190605,0.414122475,4.54748,16.80126,-23.51566,71.0
1774822182.482453,0.0030059814453125,2026-03-29T22:09:42.482,2026-03-29T18:09:42.482,-32939.549999999996,-48769.064999999995,-85225.455,-50164.38,-14397.164999999999,-19546.785,5347.125,-63845.505,-2.349342559959026,-3.2919888376049276,-3.3549847597239255,-3.209151090476633,-3.659171443192882,-3.105971578047612,-1.437998487606222,-1.198409938608026,-0.18914746500000001,-0.885190605,0.414122475,4.54748,16.80126,-23.51566,71.0
1774822182.4824684,1.52587890625e-05,2026-03-29T22:09:42.482,2026-03-29T18:09:42.482,-32941.845,-48770.369999999995,-85224.33,-50169.78,-14400.494999999999,-19547.28,5346.72,-63846.27,1.5501524952941814,0.838736116975215,0.939745077534959,0.3423635109278843,-0.20028772429051492,0.05125938761164826,1.8405101891117674,1.6888715031596215,-0.18914746500000001,-0.885190605,0.414122475,4.54748,16.80126,-23.51566,71.0
1774822182.4864342,0.003965854644775391,2026-03-29T22:09:42.486,2026-03-29T18:09:42.486,-32938.335,-48765.555,-85223.06999999999,-50174.055,-14404.365,-19548.765,5340.6449999999995,-63846.81,4.658426086722842,4.509459289204384,4.70763693399534,3.6249979308573734,3.2966082876441645,3.166991201527105,4.466660013719734,3.7862677576071655,-0.184264665,-0.882993345,0.41223039,2.0448399999999998,16.41976,-24.187099999999997,71.0
1774822182.486462,2.7894973754882812e-05,2026-03-29T22:09:42.486,2026-03-29T18:09:42.486,-32933.97,-48760.604999999996,-85213.75499999999,-50157.99,-14388.255,-19536.39,5348.565,-63844.02,5.530345694571785,6.039116584977176,6.220614685178701,5.145322665572552,5.237608266389332,4.805469614373292,5.234997696146199,4.102719195048362,-0.184264665,-0.882993345,0.41223039,2.0448399999999998,16.41976,-24.187099999999997,71.0
1774822182.4907277,0.004265546798706055,2026-03-29T22:09:42.490,2026-03-29T18:09:42.490,-32931.18,-48757.814999999995,-85211.055,-50157.314999999995,-14386.41,-19532.655,5361.66,-63840.645,3.8085832516913523,4.778569822612863,4.846369591750366,4.2782655369456455,4.775944449934373,4.232770856836613,3.7297556671738143,2.4976002141071514,-0.184264665,-0.882993345,0.41223039,2.0448399999999998,16.41976,-24.187099999999997,71.0
1774822182.4907465,1.8835067749023438e-05,2026-03-29T22:09:42.490,2026-03-29T18:09:42.490,-32925.869999999995,-48750.21,-85204.215,-50158.439999999995,-14389.695,-19535.489999999998,5350.455,-63838.305,0.3700754399641552,1.383195642842759,1.3075918288246273,1.5207163878295422,2.1821178299572277,1.746671860913851,0.5504689184349039,-0.25258141232376524,-0.184264665,-0.882993345,0.41223039,2.0448399999999998,16.41976,-24.187099999999997,71.0
1774822182.4943128,0.003566265106201172,2026-03-29T22:09:42.494,2026-03-29T18:09:42.494,-32926.68,-48752.415,-85206.375,-50160.735,-14393.43,-19540.035,5334.48,-63839.159999999996,-3.123054723088551,-2.531322339686876,-2.7013268181929364,-1.7882174628473155,-1.3119660881509398,-1.48088110859002,-2.9293097410174953,-2.833259226432808,-0.184264665,-0.882993345,0.41223039,2.0448399999999998,16.41976,-24.187099999999997,71.0
1774822182.4943285,1.5735626220703125e-05,2026-03-29T22:09:42.494,2026-03-29T18:09:42.494,-32941.08,-48768.75,-85224.375,-50173.56,-14405.4,-19550.565,5329.17,-63848.88,-5.0373246393086575,-5.168305135227994,-5.336143282736419,-4.125270145651344,-4.106691216001543,-3.964819383658149,-5.17171439607636,-4.030158529442546,-0.184264665,-0.882993345,0.41223039,2.0448399999999998,16.41976,-24.187099999999997,71.0
1774822182.5013943,0.007065773010253906,2026-03-29T22:09:42.501,2026-03-29T18:09:42.501,-32950.485,-48777.435,-85232.52,-50181.39,-14412.42,-19557.045,5309.235,-63862.47,-4.543451221112358,-5.384146477584091,-5.460132894168428,-4.492997877795688,-4.9767292731664305,-4.599505450660053,-5.174086869895521,-3.3123784353567123,-0.184264665,-0.882993345,0.41223039,2.0448399999999998,16.41976,-24.187099999999997,71.0
1774822182.5014205,2.6226043701171875e-05,2026-03-29T22:09:42.501,2026-03-29T18:09:42.501,-32938.29,-48764.564999999995,-85216.5,-50166.045,-14396.4,-19539.495,5346.36,-63851.49,-1.9799590969266598,-3.1856473663432316,-3.1343606086890907,-2.846975943605122,-3.612972982808115,-3.155875727224571,-2.930667705184548,-1.0746631760146237,-0.184264665,-0.882993345,0.41223039,2.0448399999999998,16.41976,-24.187099999999997,71.0
1774822182.5014627,4.220008850097656e-05,2026-03-29T22:09:42.501,2026-03-29T18:09:42.501,-32926.32,-48751.83,-85200.56999999999,-50151.33,-14381.324999999999,-19523.565,5378.804999999999,-63835.875,1.3569251046478605,0.3262982521440638,0.4704480162003623,-0.05662756159186982,-0.7225557000920022,-0.3573502426002335,0.5623981284789583,1.5752554617550252,-0.184264665,-0.882993345,0.41223039,2.0448399999999998,16.41976,-24.187099999999997,71.0
1774822182.5014715,8.821487426757812e-06,2026-03-29T22:09:42.501,2026-03-29T18:09:42.501,-32911.47,-48737.43,-85183.83,-50138.82,-14370.84,-19512.45,5393.07,-63819.45,3.873712542057089,3.5140877994463673,3.669449927718504,2.5536176302928,2.3394323764642455,2.486588862750716,3.7622089365522347,3.3713704690668274,-0.184264665,-0.882993345,0.41223039,2.0448399999999998,16.41976,-24.187099999999997,71.0
1774822182.5058675,0.004395961761474609,2026-03-29T22:09:42.505,2026-03-29T18:09:42.505,-32910.075,-48735.314999999995,-85180.815,-50135.805,-14369.67,-19512.135,5387.67,-63819.899999999994,4.451866171349504,4.977369127574278,5.0614428277207555,3.8412240080383873,4.2144983814588155,4.102313897958979,5.280314260895774,3.505540923526603,-0.18054153,-0.888486495,0.41186418,2.31952,15.504159999999999,-25.11796,71.0
1774822182.505897,2.956390380859375e-05,2026-03-29T22:09:42.505,2026-03-29T18:09:42.505,-32923.17,-48750.03,-85200.345,-50151.195,-14382.045,-19526.94,5363.955,-63834.795,2.9524617108720688,4.173220216333133,4.146627102724812,3.350848609088072,4.151175905137267,3.830321202670936,4.501871815070711,1.9999209876710302,-0.18054153,-0.888486495,0.41186418,2.31952,15.504159999999999,-25.11796,71.0
1774822182.510527,0.004629850387573242,2026-03-29T22:09:42.510,2026-03-29T18:09:42.510,-32937.255,-48767.805,-85220.73,-50169.689999999995,-14399.144999999999,-19544.445,5353.514999999999,-63843.165,0.2218488280966641,1.6055755227134605,1.4902251939231181,1.4622702327598023,2.3036067200207793,1.8938335379226439,1.838534884272264,-0.3404241435323632,-0.18054153,-0.888486495,0.41186418,2.31952,15.504159999999999,-25.11796,71.0
1774822182.5105433,1.6450881958007812e-05,2026-03-29T22:09:42.510,2026-03-29T18:09:42.510,-32942.655,-48774.735,-85226.715,-50176.619999999995,-14405.894999999999,-19550.925,5362.5599999999995,-63846.27,-2.3772412907663534,-1.4749164358066367,-1.6116501354332866,-0.8590317071599521,-0.3988952604770711,-0.7512654804356741,-1.4909499058788342,-2.356289365291518,-0.18054153,-0.888486495,0.41186418,2.31952,15.504159999999999,-25.11796,71.0
1774822182.5146694,0.004126071929931641,2026-03-29T22:09:42.514,2026-03-29T18:09:42.514,-32938.695,-48769.515,-85220.28,-50170.409999999996,-14399.055,-19544.309999999998,5358.78,-63845.954999999994,-3.6527611439077385,-3.687671668966151,-3.772177472525783,-2.5574434300420865,-2.722756728297241,-2.8931518657312862,-4.034783206889878,-3.1166951315677345,-0.18054153,-0.888486495,0.41186418,2.31952,15.504159999999999,-25.11796,71.0
1774822182.5147,3.0517578125e-05,2026-03-29T22:09:42.514,2026-03-29T18:09:42.514,-32935.095,-48764.97,-85215.285,-50165.865,-14393.97,-19539.18,5354.46,-63844.649999999994,-3.1391386721651733,-4.14827744788139,-4.14071242668538,-2.9740184405763537,-3.701787638502591,-3.6279375628401795,-4.758845859512292,-2.3585380438155243,-0.18054153,-0.888486495,0.41186418,2.31952,15.504159999999999,-25.11796,71.0
1774822182.5189989,0.0042989253997802734,2026-03-29T22:09:42.518,2026-03-29T18:09:42.518,-32933.79,-48765.915,-85216.455,-50167.575,-14396.894999999999,-19542.78,5348.835,-63845.369999999995,-1.2583527474922485,-2.8166508267884534,-2.7299601038705386,-2.097147331972523,-3.041002236261414,-2.744654255429695,-3.4738551893701097,-0.5711631618209795,-0.18054153,-0.888486495,0.41186418,2.31952,15.504159999999999,-25.11796,71.0
1774822182.5190177,1.8835067749023438e-05,2026-03-29T22:09:42.519,2026-03-29T18:09:42.519,-32922.854999999996,-48763.439999999995,-85215.06,-50167.575,-14397.795,-19543.59,5353.155,-63832.814999999995,0.9642396051108097,-0.4333246643642767,-0.3221669873840214,-0.48468554847936324,-1.1829674882113697,-0.7658092777715367,-0.8589567509931394,1.2977059385834238,-0.18054153,-0.888486495,0.41186418,2.31952,15.504159999999999,-25.11796,71.0
1774822182.5254436,0.0064258575439453125,2026-03-29T22:09:42.525,2026-03-29T18:09:42.525,-32918.265,-48766.455,-85220.415,-50174.82,-14405.355,-19551.195,5354.595,-63823.68,2.4542955082326783,1.8870361147020998,1.9595665530580428,1.0675945068792259,0.9624382210470587,1.34964270618349,1.900292020482845,2.3450446545829338,-0.18054153,-0.888486495,0.41186418,2.31952,15.504159999999999,-25.11796,71.0
1774822182.5254617,1.811981201171875e-05,2026-03-29T22:09:42.525,2026-03-29T18:09:42.525,-32931.494999999995,-48770.909999999996,-85219.65,-50171.04,-14401.71,-19549.079999999998,5350.7699999999995,-63841.994999999995,2.6151103228763497,3.1840555920077582,3.1821827131708837,1.9221024397691033,2.468270819943771,2.676520390718141,3.665347243405029,2.1571710474808334,-0.18054153,-0.888486495,0.41186418,2.31952,15.504159999999999,-25.11796,71.0
1774822182.526462,0.0010004043579101562,2026-03-29T22:09:42.526,2026-03-29T18:09:42.526,-32942.115,-48761.909999999996,-85201.875,-50148.09,-14378.355,-19528.605,5364.045,-63864.36,1.5650393314449778,3.0484415223495773,2.981821059572188,1.861706566224846,2.796236642187924,2.7341618539849137,3.823714408261779,0.973130997375955,-0.17736771,-0.893125155,0.411070725,1.69386,15.06162,-26.033559999999998,71.0
1774822182.5264723,1.0251998901367188e-05,2026-03-29T22:09:42.526,2026-03-29T18:09:42.526,-32937.165,-48765.33,-85210.605,-50156.415,-14387.535,-19536.57,5365.035,-63854.145,-0.00789543838937961,1.7238430097490471,1.6387420768787826,1.1103433739027404,1.977998903059552,1.6526604511938305,2.4872258723868743,-0.49792434352821746,-0.17736771,-0.893125155,0.411070725,1.69386,15.06162,-26.033559999999998,71.0
1774822182.533388,0.006915569305419922,2026-03-29T22:09:42.533,2026-03-29T18:09:42.533,-32930.865,-48760.11,-85205.97,-50153.895,-14386.5,-19535.67,5357.25,-63849.104999999996,-1.2635623007953884,-0.09252726455847027,-0.1426733812357605,0.13885455312054648,0.5176081620804295,0.04170093342644355,0.3539742607954563,-1.486140587916726,-0.17736771,-0.893125155,0.411070725,1.69386,15.06162,-26.033559999999998,71.0
1774822182.5333996,1.1682510375976562e-05,2026-03-29T22:09:42.533,2026-03-29T18:09:42.533,-32927.49,-48755.115,-85199.355,-50152.545,-14386.365,-19535.489999999998,5365.17,-63846.945,-1.6568422504844418,-1.6162482750203726,-1.6030769649937657,-0.6116714304407058,-0.9017734710697646,-1.344720126359604,-1.6608711836418342,-1.5661488743658964,-0.17736771,-0.893125155,0.411070725,1.69386,15.06162,-26.033559999999998,71.0
1774822182.533412,1.239776611328125e-05,2026-03-29T22:09:42.533,2026-03-29T18:09:42.533,-32932.755,-48763.53,-85209.39,-50159.97,-14394.869999999999,-19544.715,5355.135,-63850.454999999994,-1.17693670708254,-2.316926506765396,-2.2532961418158015,-0.932752835766149,-1.742201104177637,-1.9665643015162535,-2.828288412365191,-0.8436918476757708,-0.17736771,-0.893125155,0.411070725,1.69386,15.06162,-26.033559999999998,71.0
1774822182.5334194,7.3909759521484375e-06,2026-03-29T22:09:42.533,2026-03-29T18:09:42.533,-32927.13,-48762.314999999995,-85206.105,-50157.225,-14395.949999999999,-19547.415,5330.205,-63844.11,-0.27253342012533305,-2.084878301166078,-2.015786480968151,-0.8832679216954561,-1.810426885252879,-1.7066021392584152,-2.859643895059366,0.16010547634038186,-0.17736771,-0.893125155,0.411070725,1.69386,15.06162,-26.033559999999998,71.0
1774822182.5446005,0.011181116104125977,2026-03-29T22:09:42.544,2026-03-29T18:09:42.544,-32914.305,-48750.84,-85192.965,-50144.534999999996,-14383.845,-19534.23,5342.58,-63829.305,0.46459443608069106,-1.1823050230525312,-1.1562968571470778,-0.6680269065324965,-1.2610916846663784,-0.8499826425366241,-1.9286692025385497,0.8414233106975986,-0.17736771,-0.893125155,0.411070725,1.69386,15.06162,-26.033559999999998,71.0
1774822182.544659,5.841255187988281e-05,2026-03-29T22:09:42.544,2026-03-29T18:09:42.544,-32923.71,-48760.244999999995,-85209.165,-50159.744999999995,-14390.955,-19539.0,5361.705,-63835.649999999994,0.6580350354903564,-0.048501394858331645,-0.08672973810808471,-0.45982506746947727,-0.44076916325698823,0.1227842783156305,-0.5017616893382044,0.8637862314577168,-0.17736771,-0.893125155,0.411070725,1.69386,15.06162,-26.033559999999998,71.0
1774822182.5446908,3.1948089599609375e-05,2026-03-29T22:09:42.544,2026-03-29T18:09:42.544,-32936.58,-48764.205,-85211.775,-50160.735,-14387.939999999999,-19537.469999999998,5358.51,-63854.82,0.339431338394958,0.91551152571582,0.833921411484629,-0.28588692536978566,0.31616327625128954,0.7989655838835394,0.9013829997611684,0.32714352504090116,-0.17736771,-0.893125155,0.411070725,1.69386,15.06162,-26.033559999999998,71.0
1774822182.5447016,1.0728836059570312e-05,2026-03-29T22:09:42.544,2026-03-29T18:09:42.544,-32931.99,-48759.299999999996,-85207.185,-50155.515,-14384.43,-19536.524999999998,5345.73,-63850.14,-0.12344143645288787,1.4768014496080655,1.4037856827969677,-0.046795968948308106,0.8244506952018066,1.0112124592953111,1.8914716074543365,-0.33033268605318694,-0.17736771,-0.893125155,0.411070725,1.69386,15.06162,-26.033559999999998,71.0
1774822182.546678,0.001976490020751953,2026-03-29T22:09:42.546,2026-03-29T18:09:42.546,-32925.42,-48752.909999999996,-85200.84,-50152.814999999995,-14384.025,-19535.355,5334.4349999999995,-63846.72,-0.3023178298571407,1.580391736847524,1.568030377200649,0.3555648716404491,1.061374902891198,0.8520884752564604,2.2756283916498137,-0.6273739692739793,-0.17370561,-0.89452896,0.41100969,0.8087799999999999,13.67296,-25.087439999999997,71.0
1774822182.546701,2.288818359375e-05,2026-03-29T22:09:42.546,2026-03-29T18:09:42.546,-32921.865,-48749.13,-85194.36,-50145.525,-14377.769999999999,-19527.75,5348.745,-63843.57,-0.008890290316471355,1.2803530179062883,1.3477022210468008,0.8782255931095211,1.0826604898077352,0.5464329878659072,2.026392576356726,-0.3493487965511851,-0.17370561,-0.89452896,0.41100969,0.8087799999999999,13.67296,-25.087439999999997,71.0
1774822182.5518944,0.005193471908569336,2026-03-29T22:09:42.551,2026-03-29T18:09:42.551,-32927.354999999996,-48756.015,-85200.165,-50146.92,-14377.994999999999,-19525.995,5372.73,-63845.055,0.5686535281599405,0.6680992087210045,0.7856333748295603,1.2935198317615115,0.9225832757341472,0.2789277397672598,1.2239828010209646,0.3142754310646775,-0.17370561,-0.89452896,0.41100969,0.8087799999999999,13.67296,-25.087439999999997,71.0
1774822182.551914,1.9550323486328125e-05,2026-03-29T22:09:42.551,2026-03-29T18:09:42.551,-32934.195,-48763.619999999995,-85211.055,-50156.415,-14387.13,-19534.454999999998,5368.23,-63852.165,0.9796840726573955,-0.14736433583084285,-0.04512342331281792,1.2903689996748051,0.5582410594622601,0.08807542853513445,0.032551687765845584,0.8875659923671695,-0.17370561,-0.89452896,0.41100969,0.8087799999999999,13.67296,-25.087439999999997,71.0
1774822182.5541587,0.002244710922241211,2026-03-29T22:09:42.554,2026-03-29T18:09:42.554,-32936.354999999996,-48765.555,-85214.06999999999,-50159.52,-14390.955,-19538.505,5356.53,-63855.854999999996,0.8089629661521202,-1.0091007757764336,-0.9880455811677649,0.6743378419327388,-0.03638692308009473,-0.11445197235493001,-1.2833336057181408,0.9114634777833712,-0.17370561,-0.89452896,0.41100969,0.8087799999999999,13.67296,-25.087439999999997,71.0
1774822182.554184,2.5272369384765625e-05,2026-03-29T22:09:42.554,2026-03-29T18:09:42.554,-32931.765,-48760.29,-85207.275,-50157.27,-14391.765,-19539.45,5351.445,-63849.915,-0.023754999575646817,-1.683917981491582,-1.7708744979606557,-0.45296736046227504,-0.7913843767738292,-0.4244830820354206,-2.3516320167589604,0.25089470913920675,-0.17370561,-0.89452896,0.41100969,0.8087799999999999,13.67296,-25.087439999999997,71.0
1774822182.558866,0.004682064056396484,2026-03-29T22:09:42.558,2026-03-29T18:09:42.558,-32932.44,-48761.595,-85208.48999999999,-50159.34,-14392.529999999999,-19541.88,5351.085,-63849.509999999995,-1.1531559271223437,-1.8960751279663979,-2.0580163862828575,-1.6596154397483378,-1.4822094127355812,-0.8166570693203397,-2.758285346518222,-0.7835346086341737,-0.17370561,-0.89452896,0.41100969,0.8087799999999999,13.67296,-25.087439999999997,71.0
1774822182.558885,1.9073486328125e-05,2026-03-29T22:09:42.558,2026-03-29T18:09:42.558,-32934.104999999996,-48764.205,-85212.18,-50160.689999999995,-14392.574999999999,-19542.69,5351.085,-63853.02,-1.9324297953359066,-1.4410701437839066,-1.5967217136734544,-2.3466103264834977,-1.7795918391831944,-1.1040925073680448,-2.204286314984984,-1.584402855282254,-0.17370561,-0.89452896,0.41100969,0.8087799999999999,13.67296,-25.087439999999997,71.0
1774822182.5659738,0.007088661193847656,2026-03-29T22:09:42.565,2026-03-29T18:09:42.565,-32932.17,-48761.729999999996,-85209.39,-50155.47,-14387.805,-19539.09,5350.679999999999,-63851.265,-1.7963387104829884,-0.33181799639739235,-0.3921008475970053,-2.0481649503783794,-1.4087145233330254,-1.028476220943872,-0.6971836321672121,-1.5942796329457403,-0.17370561,-0.89452896,0.41100969,0.8087799999999999,13.67296,-25.087439999999997,71.0
1774822182.5659893,1.5497207641601562e-05,2026-03-29T22:09:42.565,2026-03-29T18:09:42.565,-32931.854999999996,-48760.515,-85208.48999999999,-50155.064999999995,-14386.59,-19537.875,5343.705,-63851.445,-0.6222853115612331,1.1157533294694264,1.1984707902966567,-0.7173304301453524,-0.3398667837684319,-0.43680502562305484,1.3372162674791308,-0.6561085749371001,-0.17370561,-0.89452896,0.41100969,0.8087799999999999,13.67296,-25.087439999999997,71.0
1774822182.5660088,1.9550323486328125e-05,2026-03-29T22:09:42.566,2026-03-29T18:09:42.566,-32933.115,-48763.08,-85210.83,-50157.405,-14389.47,-19540.395,5338.845,-63855.09,1.126792683586928,2.3403184929473113,2.5407531488264627,1.168777026053978,1.1074041909744452,0.5634601437647944,3.128956811866572,0.841391531457577,-0.16931109,-0.8947731,0.410948655,-0.71722,11.7502,-24.40074,71.0
1774822182.5660143,5.4836273193359375e-06,2026-03-29T22:09:42.566,2026-03-29T18:09:42.566,-32930.055,-48760.695,-85204.89,-50149.755,-14383.935,-19538.235,5348.295,-63852.479999999996,2.5844759032607825,2.749555426686305,2.9748641756749943,2.7710643537397743,2.33609791036399,1.5810944192212162,3.8465226224228193,2.125924454818238,-0.16931109,-0.8947731,0.410948655,-0.71722,11.7502,-24.40074,71.0
1774822182.5712774,0.005263090133666992,2026-03-29T22:09:42.571,2026-03-29T18:09:42.571,-32923.08,-48756.645,-85196.745,-50139.225,-14377.68,-19533.69,5357.655,-63840.509999999995,2.91636183640641,2.0110835070857602,2.1435957886698414,3.267997128627595,2.7199512361134595,2.0931333185267578,2.9897892440654994,2.4431466135476354,-0.16931109,-0.8947731,0.410948655,-0.71722,11.7502,-24.40074,71.0
1774822182.571294,1.6689300537109375e-05,2026-03-29T22:09:42.571,2026-03-29T18:09:42.571,-32924.34,-48765.689999999995,-85208.355,-50149.53,-14384.88,-19540.934999999998,5338.17,-63839.564999999995,1.7873686906505415,0.27509386830751364,0.23282038324690063,2.27811879425237,1.924059099283387,1.7138760502786743,0.7049228010277411,1.4874284972153748,-0.16931109,-0.8947731,0.410948655,-0.71722,11.7502,-24.40074,71.0
1774822182.57668,0.005385875701904297,2026-03-29T22:09:42.576,2026-03-29T18:09:42.576,-32919.93,-48765.555,-85214.295,-50164.695,-14395.994999999999,-19547.19,5325.48,-63835.829999999994,-0.39694259896755923,-1.8078078347196471,-2.0236538575533536,0.10793027581337698,0.13342111850793337,0.44260738587315684,-2.166103561869363,-0.37958439892258095,-0.16931109,-0.8947731,0.410948655,-0.71722,11.7502,-24.40074,71.0
1774822182.576704,2.4080276489257812e-05,2026-03-29T22:09:42.576,2026-03-29T18:09:42.576,-32941.35,-48770.595,-85217.94,-50173.02,-14402.654999999999,-19548.719999999998,5313.69,-63870.659999999996,-2.628267566637534,-3.322084745956131,-3.618962984504129,-2.323524041409279,-1.9511884517222773,-1.257219820429455,-4.3801165096205725,-2.261785461696217,-0.16931109,-0.8947731,0.410948655,-0.71722,11.7502,-24.40074,71.0
1774822182.579703,0.0029990673065185547,2026-03-29T22:09:42.579,2026-03-29T18:09:42.579,-32950.619999999995,-48770.82,-85215.23999999999,-50163.93,-14391.99,-19538.235,5343.345,-63878.67,-3.770173567275377,-3.495440072972015,-3.728558978618473,-3.8779771251718156,-3.384991899995952,-2.619930295181515,-4.83816429921752,-3.166295918576241,-0.16931109,-0.8947731,0.410948655,-0.71722,11.7502,-24.40074,71.0
1774822182.5797212,1.811981201171875e-05,2026-03-29T22:09:42.579,2026-03-29T18:09:42.579,-32930.955,-48759.119999999995,-85201.69499999999,-50150.295,-14382.99,-19531.755,5359.05,-63853.11,-3.1416987266630185,-2.094883060490421,-2.13721331648898,-3.738951706030203,-3.414791333869011,-2.928361085989214,-3.139614934372327,-2.5288304777193265,-0.16931109,-0.8947731,0.410948655,-0.71722,11.7502,-24.40074,71.0
1774822182.5847516,0.005030393600463867,2026-03-29T22:09:42.584,2026-03-29T18:09:42.584,-32924.07,-48754.845,-85197.69,-50145.93,-14378.13,-19526.715,5378.22,-63842.265,-0.9082723430150967,0.39321092566520016,0.583629991639426,-1.8399525792652565,-1.8744466949852139,-1.8903688033767168,0.13742833497077558,-0.5481626152114217,-0.16931109,-0.8947731,0.410948655,-0.71722,11.7502,-24.40074,71.0
1774822182.5847628,1.1205673217773438e-05,2026-03-29T22:09:42.584,2026-03-29T18:09:42.584,-32925.284999999996,-48756.42,-85198.14,-50154.255,-14386.23,-19532.34,5382.0,-63843.795,1.9388911833068707,2.916802016631547,3.267186340332115,1.044155907802376,0.6670346007344011,0.15590773458346543,3.607118612023132,1.862319890519187,-0.16931109,-0.8947731,0.410948655,-0.71722,11.7502,-24.40074,71.0
1774822182.5869105,0.002147674560546875,2026-03-29T22:09:42.586,2026-03-29T18:09:42.586,-32926.095,-48757.905,-85201.605,-50158.395,-14391.855,-19540.98,5361.84,-63848.744999999995,4.030560291136341,4.306237905954728,4.655387323097347,3.613247233438552,3.1070788040638777,2.336340759447304,5.664858231507816,3.503510887532019,-0.164611395,-0.89733657,0.41131486500000003,-2.19744,10.10212,-21.837059999999997,71.0
1774822182.5869224,1.1920928955078125e-05,2026-03-29T22:09:42.586,2026-03-29T18:09:42.586,-32913.54,-48744.9,-85191.165,-50144.22,-14377.68,-19530.18,5357.655,-63843.435,4.288199813431216,3.8241396246919495,3.9960264897356352,4.636728072882247,4.294551825445934,3.6188570305229435,5.24318264351549,3.4948924743365004,-0.164611395,-0.89733657,0.41131486500000003,-2.19744,10.10212,-21.837059999999997,71.0
1774822182.5920734,0.005151033401489258,2026-03-29T22:09:42.592,2026-03-29T18:09:42.592,-32915.295,-48739.14,-85181.48999999999,-50130.27,-14363.505,-19516.86,5370.255,-63850.68,2.482500937671384,1.5551297413989411,1.4463639576211544,3.5511422635601653,3.5819762455914606,3.3098769162685486,2.3728772280044104,1.7463805744707006,-0.164611395,-0.89733657,0.41131486500000003,-2.19744,10.10212,-21.837059999999997,71.0
1774822182.5920959,2.2411346435546875e-05,2026-03-29T22:09:42.592,2026-03-29T18:09:42.592,-32936.895,-48763.08,-85206.285,-50148.72,-14383.845,-19537.785,5343.66,-63865.71,-0.6083408153327649,-1.56968687655339,-1.9314653426585946,0.7671627784450578,1.1763669247710438,1.427275834005812,-1.7476417773587811,-0.9547248781359895,-0.164611395,-0.89733657,0.41131486500000003,-2.19744,10.10212,-21.837059999999997,71.0
1774822182.5975168,0.0054209232330322266,2026-03-29T22:09:42.597,2026-03-29T18:09:42.597,-32933.655,-48763.575,-85205.52,-50143.634999999995,-14379.75,-19534.905,5361.929999999999,-63858.78,-3.538679036231161,-4.154208551980094,-4.612644218944281,-2.4796815298396093,-1.9002029892967383,-1.2495290704706696,-5.24939856405681,-3.303870642870217,-0.164611395,-0.89733657,0.41131486500000003,-2.19744,10.10212,-21.837059999999997,71.0
1774822182.5975447,2.7894973754882812e-05,2026-03-29T22:09:42.597,2026-03-29T18:09:42.597,-32937.03,-48767.67,-85204.395,-50146.155,-14386.005,-19540.755,5361.615,-63857.655,-4.882638229472858,-4.968666911262477,-5.305405979789004,-4.683820646682048,-4.248412625900079,-3.5032782504502675,-6.452533555009856,-4.118915749250842,-0.164611395,-0.89733657,0.41131486500000003,-2.19744,10.10212,-21.837059999999997,71.0
1774822182.5975692,2.4557113647460938e-05,2026-03-29T22:09:42.597,2026-03-29T18:09:42.597,-32938.74,-48770.369999999995,-85213.17,-50167.979999999996,-14406.074999999999,-19554.84,5347.3949999999995,-63859.274999999994,-3.9366974784743007,-3.5417324927792357,-3.5794570779241366,-4.778007961406917,-4.738919233876612,-4.241820859990852,-4.688267327317401,-2.9414134852835,-0.164611395,-0.89733657,0.41131486500000003,-2.19744,10.10212,-21.837059999999997,71.0
1774822182.597581,1.1682510375976562e-05,2026-03-29T22:09:42.597,2026-03-29T18:09:42.597,-32926.68,-48760.92,-85200.795,-50161.59,-14401.439999999999,-19549.62,5348.205,-63849.735,-1.0877489414614046,-0.42542643038832434,-0.11898929713115049,-2.657668207148631,-3.0650672848174962,-3.036101435839338,-0.6747424062734656,-0.2911220188696085,-0.164611395,-0.89733657,0.41131486500000003,-2.19744,10.10212,-21.837059999999997,71.0
1774822182.6037397,0.0061588287353515625,2026-03-29T22:09:42.603,2026-03-29T18:09:42.603,-32918.445,-48755.115,-85190.94,-50150.655,-14392.619999999999,-19542.6,5344.74,-63840.6,2.345539219344181,3.012791022305541,3.5430908953257947,0.739284739021348,0.073196611702931,-0.3648342803973277,3.7645201214355617,2.5659362292210233,-0.164611395,-0.89733657,0.41131486500000003,-2.19744,10.10212,-21.837059999999997,71.0
1774822182.603754,1.430511474609375e-05,2026-03-29T22:09:42.603,2026-03-29T18:09:42.603,-32921.415,-48760.515,-85204.665,-50153.4,-14388.029999999999,-19537.649999999998,5356.485,-63847.935,4.73245844159137,5.195371799920951,5.709263876441857,3.8501184476543675,3.2612667087193117,2.571531389183799,6.5355237077175445,4.230946256714105,-0.164611395,-0.89733657,0.41131486500000003,-2.19744,10.10212,-21.837059999999997,71.0
1774822182.607132,0.0033779144287109375,2026-03-29T22:09:42.607,2026-03-29T18:09:42.607,-32931.27,-48761.415,-85202.50499999999,-50147.64,-14380.74,-19528.425,5375.655,-63862.244999999995,4.91534223937815,5.066875743609145,5.31209034035874,5.215222649946773,5.016569867339425,4.39782112644305,6.277280828273277,3.8660466706882053,-0.15917928,-0.901425915,0.410826585,-0.79352,8.49982,-20.158459999999998,71.0
1774822182.6071763,4.4345855712890625e-05,2026-03-29T22:09:42.607,2026-03-29T18:09:42.607,-32938.965,-48766.77,-85206.915,-50150.97,-14385.06,-19533.42,5359.635,-63870.615,2.777375669904763,2.6094644231435375,2.4440928184160122,4.17337400316037,4.49049158029155,4.219773778356901,3.046641167431094,1.6205229855390475,-0.15917928,-0.901425915,0.410826585,-0.79352,8.49982,-20.158459999999998,71.0
1774822182.6108708,0.0036945343017578125,2026-03-29T22:09:42.610,2026-03-29T18:09:42.610,-32932.619999999995,-48764.52,-85205.34,-50145.93,-14380.83,-19529.864999999998,5360.985,-63861.615,-0.6878388789774198,-1.1119765782115318,-1.6414668237945516,1.1888514799990086,1.8879735125661057,2.0709962159405806,-1.6661477033609986,-1.4289761146412554,-0.15917928,-0.901425915,0.410826585,-0.79352,8.49982,-20.158459999999998,71.0
1774822182.610908,3.719329833984375e-05,2026-03-29T22:09:42.610,2026-03-29T18:09:42.610,-32938.155,-48773.159999999996,-85214.87999999999,-50155.56,-14390.64,-19540.665,5357.61,-63863.729999999996,-3.8443101964071125,-4.413379303093035,-5.07991252443955,-2.35399069137847,-1.6063363015561352,-1.0755974388711236,-5.623544457182661,-3.800729467224702,-0.15917928,-0.901425915,0.410826585,-0.79352,8.49982,-20.158459999999998,71.0
1774822182.6145408,0.003632783889770508,2026-03-29T22:09:42.614,2026-03-29T18:09:42.614,-32936.354999999996,-48769.2,-85208.625,-50155.875,-14390.369999999999,-19540.934999999998,5356.71,-63863.954999999994,-5.195658276486314,-5.76075392785516,-6.252882352534811,-4.798471172802402,-4.372456504261341,-3.7518417225787295,-6.913300204690095,-4.33646809535563,-0.15917928,-0.901425915,0.410826585,-0.79352,8.49982,-20.158459999999998,71.0
1774822182.6145515,1.0728836059570312e-05,2026-03-29T22:09:42.614,2026-03-29T18:09:42.614,-32928.659999999996,-48757.59,-85195.98,-50147.955,-14383.755,-19535.399999999998,5352.21,-63863.505,-4.10292266980303,-4.490494175826164,-4.5569182742691625,-5.000112453598846,-5.117635483629225,-4.689842095096595,-4.889163539404684,-2.774193510649134,-0.15917928,-0.901425915,0.410826585,-0.79352,8.49982,-20.158459999999998,71.0
1774822182.6209483,0.006396770477294922,2026-03-29T22:09:42.620,2026-03-29T18:09:42.620,-32929.155,-48758.085,-85197.555,-50145.795,-14383.439999999999,-19539.945,5337.585,-63866.655,-1.0903259483494476,-1.1393542393132627,-0.7151253575260439,-2.8722788292079087,-3.4932418860006735,-3.4351596009102914,-0.5103977077801027,0.12087430565362133,-0.15917928,-0.901425915,0.410826585,-0.79352,8.49982,-20.158459999999998,71.0
1774822182.620968,1.9788742065429688e-05,2026-03-29T22:09:42.620,2026-03-29T18:09:42.620,-32931.36,-48762.9,-85203.81,-50147.145,-14385.015,-19544.13,5327.91,-63866.79,2.408531339998244,2.7809009296000786,3.529051188465093,0.571266044677509,-0.2662687294377966,-0.576018715199687,4.103503872946685,2.933518395550121,-0.15917928,-0.901425915,0.410826585,-0.79352,8.49982,-20.158459999999998,71.0
1774822182.6224391,0.0014710426330566406,2026-03-29T22:09:42.622,2026-03-29T18:09:42.622,-32925.15,-48759.39,-85201.69499999999,-50145.345,-14383.08,-19541.745,5333.175,-63859.049999999996,4.739733071938818,5.470092223987682,6.2071364506534445,3.700030879988098,3.0423101534403476,2.5305381055330773,6.700048074685493,4.296597494639964,-0.15917928,-0.901425915,0.410826585,-0.79352,8.49982,-20.158459999999998,71.0
1774822182.6224496,1.049041748046875e-05,2026-03-29T22:09:42.622,2026-03-29T18:09:42.622,-32920.47,-48755.52,-85195.08,-50142.284999999996,-14381.189999999999,-19535.445,5367.42,-63846.99,4.818931798658363,5.673431316744324,6.045284662944531,5.04550762297797,4.8819788627901985,4.408973900359909,6.004293798019996,3.562794422073536,-0.15917928,-0.901425915,0.410826585,-0.79352,8.49982,-20.158459999999998,71.0
1774822182.6268709,0.004421234130859375,2026-03-29T22:09:42.626,2026-03-29T18:09:42.626,-32933.88,-48768.03,-85208.48999999999,-50154.705,-14392.305,-19544.355,5375.429999999999,-63857.744999999995,2.6413334149597567,3.2732285507305177,3.075782984522803,4.000129305970243,4.411628887285929,4.1778740369925265,2.3607828045404085,1.1169566261146533,-0.158507895,-0.90392835,0.411681075,0.03052,7.828379999999999,-18.6172,71.0
1774822182.6268969,2.5987625122070312e-05,2026-03-29T22:09:42.626,2026-03-29T18:09:42.626,-32939.729999999996,-48771.27,-85211.45999999999,-50153.58,-14390.64,-19543.5,5329.44,-63870.03,-0.7302335735984447,-0.6429734939649261,-1.355275245409938,1.099699805803921,1.8956180729026615,1.975868394574139,-2.4223086959124656,-1.823560785049547,-0.158507895,-0.90392835,0.411681075,0.03052,7.828379999999999,-18.6172,71.0
1774822182.6309917,0.004094839096069336,2026-03-29T22:09:42.630,2026-03-29T18:09:42.630,-32936.445,-48767.04,-85207.14,-50151.24,-14389.56,-19541.295,5317.335,-63869.13,-3.686840095267147,-4.276661595929138,-5.19925758019601,-2.2454914187675805,-1.434532590795418,-1.1100810645617283,-5.962268194831464,-3.817425932061249,-0.158507895,-0.90392835,0.411681075,0.03052,7.828379999999999,-18.6172,71.0
1774822182.6310115,1.9788742065429688e-05,2026-03-29T22:09:42.631,2026-03-29T18:09:42.631,-32937.615,-48775.59,-85219.2,-50163.165,-14401.26,-19553.715,5315.22,-63864.674999999996,-4.847134076249716,-5.949525635025776,-6.656996961217588,-4.437880049664948,-3.983702495978749,-3.5804031957122615,-6.489736803211227,-3.9111602813258926,-0.158507895,-0.90392835,0.411681075,0.03052,7.828379999999999,-18.6172,71.0
1774822182.6350188,0.0040073394775390625,2026-03-29T22:09:42.635,2026-03-29T18:09:42.635,-32931.585,-48777.57,-85226.58,-50166.9,-14404.095,-19557.855,5338.755,-63850.814999999995,-3.708509150620404,-4.88509080189517,-5.026968246587234,-4.46249315326192,-4.565699813157506,-4.2588579420368085,-3.7424329640739042,-2.1003937544080853,-0.158507895,-0.90392835,0.411681075,0.03052,7.828379999999999,-18.6172,71.0
1774822182.6350455,2.6702880859375e-05,2026-03-29T22:09:42.635,2026-03-29T18:09:42.635,-32935.095,-48774.465,-85222.34999999999,-50163.255,-14401.394999999999,-19556.145,5348.97,-63857.835,-0.8664685550529987,-1.5740936980507847,-1.0472581117750002,-2.3654835038234006,-2.966990093721029,-2.8645511860259703,0.8902794245776956,0.6847053660569337,-0.158507895,-0.90392835,0.411681075,0.03052,7.828379999999999,-18.6172,71.0
1774822182.6489675,0.013921976089477539,2026-03-29T22:09:42.648,2026-03-29T18:09:42.648,-32943.015,-48761.729999999996,-85203.27,-50146.38,-14381.595,-19535.13,5378.67,-63877.409999999996,2.293928016715487,2.4502340188534464,3.4369494952870667,0.7880164857169173,-0.02865373375925306,-0.13691433066038988,5.056008881681333,3.0556384014700786,-0.158507895,-0.90392835,0.411681075,0.03052,7.828379999999999,-18.6172,71.0
1774822182.6489847,1.71661376953125e-05,2026-03-29T22:09:42.648,2026-03-29T18:09:42.648,-32935.994999999995,-48760.29,-85204.98,-50153.895,-14388.615,-19540.62,5372.775,-63863.009999999995,4.27539944738636,5.324534655999553,6.331204865247975,3.4499265451698,2.7872908462562465,2.5463159269654976,6.6245381078674095,3.8599080666798646,-0.158507895,-0.90392835,0.411681075,0.03052,7.828379999999999,-18.6172,71.0
1774822182.6490078,2.3126602172851562e-05,2026-03-29T22:09:42.649,2026-03-29T18:09:42.649,-32936.534999999996,-48765.42,-85210.69499999999,-50156.189999999995,-14390.505,-19543.77,5360.76,-63861.75,4.18213079536773,5.723213397456574,6.274999124376923,4.351019648201618,4.126559604957256,3.864219272870517,4.775321645780865,2.7451997693179693,-0.158507895,-0.90392835,0.411681075,0.03052,7.828379999999999,-18.6172,71.0
1774822182.6490147,6.9141387939453125e-06,2026-03-29T22:09:42.649,2026-03-29T18:09:42.649,-32932.17,-48761.28,-85205.25,-50147.145,-14382.765,-19537.92,5360.22,-63857.295,2.12782629840342,3.475414435886473,3.28661924867665,3.1126241564020942,3.4023634708550023,3.2103342467756653,0.43252215162224894,0.3155920787536019,-0.158507895,-0.90392835,0.411681075,0.03052,7.828379999999999,-18.6172,71.0
1774822182.6490247,1.0013580322265625e-05,2026-03-29T22:09:42.649,2026-03-29T18:09:42.649,-32930.549999999996,-48759.57,-85204.53,-50144.354999999996,-14380.244999999999,-19536.48,5364.2699999999995,-63854.865,-0.8488197367146305,-0.358392846787672,-1.238209680936791,0.41055903396753934,1.0612181060938872,0.9823871921783958,-4.184656775180381,-2.1901029109126013,-0.15722616,-0.9038673150000001,0.41650284,-2.12114,8.6982,-14.6496,71.0
1774822182.6490316,6.9141387939453125e-06,2026-03-29T22:09:42.649,2026-03-29T18:09:42.649,-32936.22,-48765.375,-85212.315,-50150.88,-14385.644999999999,-19539.855,5362.83,-63862.38,-3.307176156467448,-3.985994767808106,-5.178009985026276,-2.3820685823555237,-1.6696884372960834,-1.6389269781275333,-6.681747827736462,-3.52840285562854,-0.15722616,-0.9038673150000001,0.41650284,-2.12114,8.6982,-14.6496,71.0
1774822182.6528091,0.0037775039672851562,2026-03-29T22:09:42.652,2026-03-29T18:09:42.652,-32932.35,-48760.02,-85202.145,-50148.854999999996,-14385.644999999999,-19537.245,5346.8099999999995,-63861.795,-4.103435448299003,-5.723975763918481,-6.683218214028009,-3.888279075137731,-3.417367011943834,-3.3052221933848847,-5.718390295384149,-3.0695207557169852,-0.15722616,-0.9038673150000001,0.41650284,-2.12114,8.6982,-14.6496,71.0
1774822182.652824,1.4781951904296875e-05,2026-03-29T22:09:42.652,2026-03-29T18:09:42.652,-32933.88,-48762.18,-85205.06999999999,-50154.884999999995,-14390.595,-19540.53,5347.17,-63862.02,-2.9254384289632127,-4.783764342282348,-5.049227178782414,-3.408025721720996,-3.3544847935621585,-3.1926747071153363,-1.7200928386859038,-1.0958981698693973,-0.15722616,-0.9038673150000001,0.41650284,-2.12114,8.6982,-14.6496,71.0
1774822182.6528368,1.2874603271484375e-05,2026-03-29T22:09:42.652,2026-03-29T18:09:42.652,-32939.28,-48768.165,-85213.53,-50158.845,-14394.465,-19546.245,5349.285,-63863.505,-0.41249271180039493,-1.6340722954136873,-1.050580151703367,-1.2487494296787645,-1.598428122562647,-1.4161676277637114,3.302707387442582,1.3614228745370767,-0.15722616,-0.9038673150000001,0.41650284,-2.12114,8.6982,-14.6496,71.0
1774822182.6528432,6.4373016357421875e-06,2026-03-29T22:09:42.652,2026-03-29T18:09:42.652,-32933.205,-48764.025,-85207.31999999999,-50152.814999999995,-14390.1,-19542.329999999998,5347.9349999999995,-63854.64,2.1841136912182844,2.228839606326918,3.4240563197121916,1.4527799430173594,0.8777831289711083,1.0456555468781812,6.75467000514941,3.056970812180193,-0.15722616,-0.9038673150000001,0.41650284,-2.12114,8.6982,-14.6496,71.0
1774822182.6602504,0.007407188415527344,2026-03-29T22:09:42.660,2026-03-29T18:09:42.660,-32929.875,-48763.35,-85203.9,-50154.57,-14393.609999999999,-19544.85,5345.01,-63849.375,3.6221637788133743,4.991862178093613,6.264913563380696,3.319574589424066,2.7678122274075654,2.8727046285413262,6.780560390502119,3.160257074611273,-0.15722616,-0.9038673150000001,0.41650284,-2.12114,8.6982,-14.6496,71.0
1774822182.660277,2.6464462280273438e-05,2026-03-29T22:09:42.660,2026-03-29T18:09:42.660,-32928.57,-48762.314999999995,-85208.715,-50157.63,-14393.97,-19544.715,5342.8949999999995,-63853.56,3.263533133547772,5.379039779528082,6.1392995825732575,3.4323590059493303,3.1127482749861195,3.0999433559014973,3.2438746439144754,1.6628821640719862,-0.15722616,-0.9038673150000001,0.41650284,-2.12114,8.6982,-14.6496,71.0
1774822182.6627152,0.0024383068084716797,2026-03-29T22:09:42.662,2026-03-29T18:09:42.662,-32928.615,-48753.045,-85195.34999999999,-50138.369999999995,-14372.189999999999,-19524.51,5355.45,-63861.479999999996,1.3578591206008759,3.245254396306348,3.1210045204533667,1.7836913678310036,1.788268276446541,1.6244063553016648,-2.150895835949799,-0.6363869473864674,-0.15722616,-0.9038673150000001,0.41650284,-2.12114,8.6982,-14.6496,71.0
1774822182.662742,2.6702880859375e-05,2026-03-29T22:09:42.662,2026-03-29T18:09:42.662,-32924.655,-48746.475,-85188.645,-50134.095,-14367.689999999999,-19519.335,5368.23,-63857.52,-1.1112772719290518,-0.3686166454101117,-1.3482839886874878,-0.736948599103668,-0.4498321876455464,-0.7428173649366827,-6.677288981713246,-2.552421299357262,-0.15722616,-0.9038673150000001,0.41650284,-2.12114,8.6982,-14.6496,71.0
1774822182.6678371,0.005095243453979492,2026-03-29T22:09:42.667,2026-03-29T18:09:42.667,-32937.795,-48763.08,-85207.905,-50156.865,-14392.35,-19542.915,5340.51,-63866.924999999996,-2.928614430873488,-3.7406276232671685,-5.146905764170378,-2.812723651580523,-2.379180515669707,-2.708207796507311,-7.9540356385397475,-3.1205333515849034,-0.152038185,-0.902158335,0.42022597500000003,-5.82932,10.36154,-10.13264,71.0
1774822182.667856,1.8835067749023438e-05,2026-03-29T22:09:42.667,2026-03-29T18:09:42.667,-32945.715,-48775.14,-85220.50499999999,-50161.095,-14394.96,-19547.145,5343.66,-63869.445,-3.2433795720713245,-5.288856736061689,-6.482386292912411,-3.3793264527745004,-2.9629911413711185,-3.1861045165131006,-5.177972397139121,-2.079951142844944,-0.152038185,-0.902158335,0.42022597500000003,-5.82932,10.36154,-10.13264,71.0
1774822182.6705763,0.002720355987548828,2026-03-29T22:09:42.670,2026-03-29T18:09:42.670,-32946.119999999995,-48778.47,-85221.98999999999,-50156.909999999996,-14389.244999999999,-19544.04,5360.67,-63866.295,-1.9676096996714514,-4.316713228009454,-4.740734615976475,-2.1667954802626026,-1.8980365134172832,-1.8847971220382935,0.40910359566603366,0.007572373694110861,-0.152038185,-0.902158335,0.42022597500000003,-5.82932,10.36154,-10.13264,71.0
1774822182.6705916,1.52587890625e-05,2026-03-29T22:09:42.670,2026-03-29T18:09:42.670,-32942.07,-48772.755,-85210.83,-50151.42,-14388.48,-19544.175,5359.724999999999,-63862.2,0.20984491515777287,-1.329805771617361,-0.7717162735493482,0.1715079203233335,0.22826516274298964,0.5234819177596851,6.079195418903319,2.057360328367014,-0.152038185,-0.902158335,0.42022597500000003,-5.82932,10.36154,-10.13264,71.0
1774822182.7055893,0.03499770164489746,2026-03-29T22:09:42.705,2026-03-29T18:09:42.705,-32934.78,-48762.54,-85201.785,-50151.869999999995,-14390.144999999999,-19543.905,5358.465,-63858.96,2.187572732996044,2.2214159651407197,3.523929835880689,2.4047772417124826,2.2531203855792152,2.745095166320916,8.949412356998206,3.021138249983534,-0.152038185,-0.902158335,0.42022597500000003,-5.82932,10.36154,-10.13264,71.0
1774822182.7056148,2.5510787963867188e-05,2026-03-29T22:09:42.705,2026-03-29T18:09:42.705,-32931.72,-48757.545,-85198.635,-50152.229999999996,-14389.019999999999,-19541.969999999998,5346.8099999999995,-63859.14,3.004298616050906,4.6443088915419635,6.105520429060232,3.3646525876396414,3.0598393181809627,3.547222613117321,7.43559400746225,2.4191514466661,-0.152038185,-0.902158335,0.42022597500000003,-5.82932,10.36154,-10.13264,71.0
1774822182.705638,2.3126602172851562e-05,2026-03-29T22:09:42.705,2026-03-29T18:09:42.705,-32940.405,-48768.84,-85210.425,-50163.39,-14399.505,-19549.215,5332.05,-63864.674999999996,2.304328126330838,4.812118268649498,5.764485121220131,2.5491370038956886,2.178207570824512,2.4242354386922353,2.0990548258907173,0.5763781936805554,-0.152038185,-0.902158335,0.42022597500000003,-5.82932,10.36154,-10.13264,71.0
1774822182.705645,7.152557373046875e-06,2026-03-29T22:09:42.705,2026-03-29T18:09:42.705,-32948.909999999996,-48778.695,-85218.66,-50167.35,-14401.935,-19552.5,5336.639999999999,-63872.325,0.49103724108021907,2.6909393743496284,2.6929859026058827,0.3806834112692472,0.04601457739010363,-0.10613862306688973,-4.556961972857345,-1.552446313878431,-0.152038185,-0.902158335,0.42022597500000003,-5.82932,10.36154,-10.13264,71.0
1774822182.705654,8.821487426757812e-06,2026-03-29T22:09:42.705,2026-03-29T18:09:42.705,-32951.115,-48780.045,-85218.20999999999,-50164.604999999996,-14399.189999999999,-19551.6,5322.0599999999995,-63879.39,-1.497087372369097,-0.6623688238986571,-1.6199300271951664,-2.0129669621719595,-2.209904265527078,-2.743531581307639,-9.269668607820599,-2.875032173685314,-0.152038185,-0.902158335,0.42022597500000003,-5.82932,10.36154,-10.13264,71.0
1774822182.7056603,6.4373016357421875e-06,2026-03-29T22:09:42.705,2026-03-29T18:09:42.705,-32948.729999999996,-48781.395,-85220.86499999999,-50163.615,-14397.39,-19548.989999999998,5314.545,-63876.284999999996,-2.666604136645999,-3.6232486497704373,-5.1101765137797965,-3.3815689429293543,-3.36312362034813,-4.069900120011454,-9.61552222980801,-2.718098542053786,-0.152038185,-0.902158335,0.42022597500000003,-5.82932,10.36154,-10.13264,71.0
1774822182.7056684,8.106231689453125e-06,2026-03-29T22:09:42.705,2026-03-29T18:09:42.705,-32935.545,-48775.905,-85219.92,-50164.244999999995,-14397.885,-19548.315,5333.264999999999,-63856.665,-2.4619430566555045,-4.785921059762663,-6.1284286682999705,-2.998912008623356,-2.741336368842853,-3.299724941742816,-5.241475108675724,-1.1661315669742447,-0.147765735,-0.901670055,0.42126357000000003,-7.49266,11.704419999999999,-6.302379999999999,71.0
1774822182.7056744,5.9604644775390625e-06,2026-03-29T22:09:42.705,2026-03-29T18:09:42.705,-32927.76,-48772.665,-85219.56,-50166.81,-14400.765,-19549.844999999998,5356.575,-63842.534999999996,-1.0277711617443543,-3.632543331850876,-4.2221074980467534,-1.0408604275592737,-0.6001980532591337,-0.7225976147878022,1.8917811788166714,0.986605777438343,-0.147765735,-0.901670055,0.42126357000000003,-7.49266,11.704419999999999,-6.302379999999999,71.0
1774822182.7056818,7.3909759521484375e-06,2026-03-29T22:09:42.705,2026-03-29T18:09:42.705,-32938.56,-48765.195,-85202.91,-50145.705,-14380.154999999999,-19531.44,5369.445,-63865.17,0.8824279134460874,-0.7655419739170684,-0.3373536755892198,1.4996323067735662,1.9849539552618225,2.4040724069779933,8.400550146746625,2.6428706910908866,-0.147765735,-0.901670055,0.42126357000000003,-7.49266,11.704419999999999,-6.302379999999999,71.0
1774822182.7056875,5.7220458984375e-06,2026-03-29T22:09:42.705,2026-03-29T18:09:42.705,-32950.26,-48763.619999999995,-85194.54,-50142.96,-14378.445,-19530.0,5362.785,-63882.945,2.297341853812652,2.4020763508451597,3.649717233561074,3.3179052592621803,3.6622694237648674,4.473606277813283,11.092665312858479,2.959607599390163,-0.147765735,-0.901670055,0.42126357000000003,-7.49266,11.704419999999999,-6.302379999999999,71.0
1774822182.7056952,7.62939453125e-06,2026-03-29T22:09:42.705,2026-03-29T18:09:42.705,-32943.869999999995,-48763.17,-85195.89,-50150.43,-14387.355,-19537.965,5355.764999999999,-63871.244999999995,2.517488860167719,4.341169753309099,5.840608595156676,3.465484458561905,3.5058708028415158,4.353477685289381,8.530985637272826,1.7733868128698838,-0.147765735,-0.901670055,0.42126357000000003,-7.49266,11.704419999999999,-6.302379999999999,71.0
1774822182.7057016,6.4373016357421875e-06,2026-03-29T22:09:42.705,2026-03-29T18:09:42.705,-32944.815,-48766.814999999995,-85203.09,-50157.81,-14395.994999999999,-19549.079999999998,5331.554999999999,-63874.485,1.458363510533328,4.14502327138415,5.220988802774698,1.8391879241040503,1.5140337478767696,1.9921083988726933,1.780346035341919,-0.319144342972244,-0.147765735,-0.901670055,0.42126357000000003,-7.49266,11.704419999999999,-6.302379999999999,71.0
1774822182.7057092,7.62939453125e-06,2026-03-29T22:09:42.705,2026-03-29T18:09:42.705,-32942.655,-48766.545,-85207.68,-50161.229999999996,-14398.515,-19552.77,5314.23,-63874.439999999995,-0.3203143164283686,1.954893237306593,2.131920345244916,-0.759002968500952,-1.3608091854999949,-1.5118513609466386,-6.043263802465809,-2.2639016033674304,-0.147765735,-0.901670055,0.42126357000000003,-7.49266,11.704419999999999,-6.302379999999999,71.0
1774822182.7057152,5.9604644775390625e-06,2026-03-29T22:09:42.705,2026-03-29T18:09:42.705,-32942.34,-48767.939999999995,-85215.06,-50170.229999999996,-14406.48,-19558.98,5312.97,-63873.899999999994,-1.9075411043794022,-1.1281211378362062,-1.9141125670346972,-3.023167512784467,-3.6759422221637412,-4.429697299156653,-11.226176395945794,-3.0806612874038053,-0.147765735,-0.901670055,0.42126357000000003,-7.49266,11.704419999999999,-6.302379999999999,71.0
1774822182.7057228,7.62939453125e-06,2026-03-29T22:09:42.705,2026-03-29T18:09:42.705,-32932.395,-48758.67,-85205.34,-50159.564999999995,-14394.285,-19547.91,5340.105,-63863.189999999995,-2.5042084677785215,-3.5939210799737964,-4.974740739164331,-3.802889197747935,-4.2268024915245626,-5.262239963873274,-11.228372610962197,-2.355188919604916,-0.147765735,-0.901670055,0.42126357000000003,-7.49266,11.704419999999999,-6.302379999999999,71.0
1774822182.7057285,5.7220458984375e-06,2026-03-29T22:09:42.705,2026-03-29T18:09:42.705,-32926.635,-48752.369999999995,-85192.965,-50143.68,-14380.605,-19536.12,5359.86,-63856.125,-1.8224918087854287,-4.262484398527776,-5.612795454417619,-2.6866761491822126,-2.6703418588746253,-3.508476343872529,-5.923907190180866,-0.44596322271242833,-0.147765735,-0.901670055,0.42126357000000003,-7.49266,11.704419999999999,-6.302379999999999,71.0
1774822182.7057362,7.62939453125e-06,2026-03-29T22:09:42.705,2026-03-29T18:09:42.705,-32935.32,-48760.02,-85198.455,-50146.784999999996,-14382.404999999999,-19535.355,5356.304999999999,-63862.695,-0.22294398983748293,-2.8495055030233396,-3.5734637630102974,-0.21368950702510944,0.2782930171452073,0.050504427090463475,2.2937956506100527,1.696328546749088,-0.146484,-0.903134895,0.423521865,-7.202719999999999,11.8265,-1.55652,71.0
1774822182.705742,5.7220458984375e-06,2026-03-29T22:09:42.705,2026-03-29T18:09:42.705,-32945.85,-48772.89,-85213.08,-50164.515,-14396.894999999999,-19541.88,5371.245,-63869.49,1.4754608111576457,-0.08678739756944444,0.1167910765865807,2.393441597897281,3.1836466322108783,3.7079238852924896,9.607704242235519,3.004355665312435,-0.146484,-0.903134895,0.423521865,-7.202719999999999,11.8265,-1.55652,71.0
1774822182.7112916,0.00554966926574707,2026-03-29T22:09:42.711,2026-03-29T18:09:42.711,-32932.034999999996,-48760.875,-85201.965,-50154.345,-14388.074999999999,-19534.32,5370.03,-63858.24,2.412905675961946,2.6535436032871362,3.6665166439712316,3.8397256131502098,4.598878297825271,5.661709278346885,12.56515971255844,2.8261451948424097,-0.146484,-0.903134895,0.423521865,-7.202719999999999,11.8265,-1.55652,71.0
1774822182.7113025,1.0967254638671875e-05,2026-03-29T22:09:42.711,2026-03-29T18:09:42.711,-32920.695,-48748.275,-85188.42,-50134.905,-14369.805,-19520.19,5367.375,-63852.345,2.1219543807494508,4.039428503699995,5.3913375177588945,3.404778418606004,3.791490904346151,4.909873241304027,9.714023081829897,1.2484021369055334,-0.146484,-0.903134895,0.423521865,-7.202719999999999,11.8265,-1.55652,71.0
1774822182.7172613,0.0059587955474853516,2026-03-29T22:09:42.717,2026-03-29T18:09:42.717,-32923.89,-48748.5,-85187.385,-50129.055,-14364.945,-19516.905,5362.514999999999,-63858.329999999994,0.7590083631434901,3.426852049976557,4.516197398408675,1.300851685528447,1.119593179946577,1.7627259673465547,2.3090279353833263,-0.9484417644363806,-0.146484,-0.903134895,0.423521865,-7.202719999999999,11.8265,-1.55652,71.0
1774822182.7173092,4.792213439941406e-05,2026-03-29T22:09:42.717,2026-03-29T18:09:42.717,-32943.78,-48769.064999999995,-85207.77,-50153.354999999996,-14391.675,-19544.04,5335.2,-63873.09,-0.9801186089609987,1.159763565950834,1.5242134880814238,-1.4358792886379919,-2.133774849150593,-2.2896209386967454,-6.252534755798772,-2.6790962369436992,-0.146484,-0.903134895,0.423521865,-7.202719999999999,11.8265,-1.55652,71.0
1774822182.719607,0.0022978782653808594,2026-03-29T22:09:42.719,2026-03-29T18:09:42.719,-32945.13,-48770.775,-85208.58,-50159.205,-14399.1,-19551.51,5347.485,-63869.49,-2.215192552593571,-1.6182726216690206,-2.10527681694065,-3.4632308900613045,-4.388636355707492,-5.295794426582467,-12.006257607679487,-3.0914365577282923,-0.146484,-0.903134895,0.423521865,-7.202719999999999,11.8265,-1.55652,71.0
1774822182.7196264,1.9311904907226562e-05,2026-03-29T22:09:42.719,2026-03-29T18:09:42.719,-32943.195,-48769.155,-85207.86,-50158.979999999996,-14398.92,-19551.555,5351.58,-63867.375,-2.326426554177772,-3.5395730734369444,-4.629473951110526,-3.7982940509402634,-4.5461511947198625,-5.795781303654144,-12.26928253174403,-1.9863921423032878,-0.146484,-0.903134895,0.423521865,-7.202719999999999,11.8265,-1.55652,71.0
1774822182.722819,0.0031926631927490234,2026-03-29T22:09:42.722,2026-03-29T18:09:42.722,-32938.47,-48764.43,-85203.18,-50152.994999999995,-14392.574999999999,-19545.614999999998,5357.835,-63864.899999999994,-1.264812218909857,-3.6859425995215607,-4.882213763341962,-2.2974632279069565,-2.529103699990631,-3.537048789956329,-6.894728254611558,0.0871923420679804,-0.146484,-0.903134895,0.423521865,-7.202719999999999,11.8265,-1.55652,71.0
1774822182.7228353,1.621246337890625e-05,2026-03-29T22:09:42.722,2026-03-29T18:09:42.722,-32949.72,-48777.705,-85217.175,-50161.905,-14400.09,-19550.34,5354.054999999999,-63873.0,0.4272524618597641,-2.028364975848672,-2.8149732367977065,0.28472243415823234,0.6832612364225523,0.40021589726037327,1.6558629540882412,2.107350158175312,-0.146484,-0.903134895,0.423521865,-7.202719999999999,11.8265,-1.55652,71.0
1774822182.726929,0.004093647003173828,2026-03-29T22:09:42.726,2026-03-29T18:09:42.726,-32951.88,-48779.189999999995,-85216.59,-50158.395,-14393.564999999999,-19544.895,5338.08,-63876.869999999995,1.8934282002165055,0.5783942600347867,0.5133075998167655,2.680548288835231,3.540569892159211,4.130146831123655,9.454334031806273,3.0850847813851736,-0.146667105,-0.898862445,0.42504774,-9.96478,12.31482,2.5942,71.0
1774822182.7269444,1.5497207641601562e-05,2026-03-29T22:09:42.726,2026-03-29T18:09:42.726,-32939.729999999996,-48764.52,-85199.805,-50150.159999999996,-14387.265,-19539.225,5343.929999999999,-63867.825,2.397241285701015,2.8347816179717955,3.4773247042289612,3.739390821242752,4.682298206599851,5.879031855876472,12.926014998970473,2.5503338961947377,-0.146667105,-0.898862445,0.42504774,-9.96478,12.31482,2.5942,71.0
1774822182.7312205,0.0042760372161865234,2026-03-29T22:09:42.731,2026-03-29T18:09:42.731,-32933.52,-48760.56,-85199.84999999999,-50158.395,-14396.31,-19543.725,5357.655,-63861.795,1.6925332384596685,3.644437663764997,4.6816064898060175,2.986760957141031,3.5955877517256365,4.841053896255525,10.498251881645595,0.7784496086149051,-0.146667105,-0.898862445,0.42504774,-9.96478,12.31482,2.5942,71.0
1774822182.7312508,3.0279159545898438e-05,2026-03-29T22:09:42.731,2026-03-29T18:09:42.731,-32938.155,-48769.65,-85209.525,-50167.259999999995,-14404.904999999999,-19551.87,5356.485,-63863.729999999996,0.14404969331803627,2.647967305250839,3.6207133788125274,0.8378294919192297,0.8475511942632453,1.5537412037933318,3.313148277563206,-1.3520453656960176,-0.146667105,-0.898862445,0.42504774,-9.96478,12.31482,2.5942,71.0
1774822182.7345834,0.0033326148986816406,2026-03-29T22:09:42.734,2026-03-29T18:09:42.734,-32938.965,-48771.854999999996,-85211.28,-50169.509999999995,-14407.019999999999,-19555.92,5349.87,-63863.595,-1.4611787596047812,0.3819968038804705,0.889643932634234,-1.6309275857342735,-2.214015775727564,-2.3836921135302127,-5.3182337108189515,-2.7968439933359597,-0.146667105,-0.898862445,0.42504774,-9.96478,12.31482,2.5942,71.0
1774822182.7346065,2.3126602172851562e-05,2026-03-29T22:09:42.734,2026-03-29T18:09:42.734,-32940.494999999995,-48768.795,-85207.31999999999,-50162.4,-14399.505,-19550.745,5347.215,-63867.465,-2.314447023923609,-2.0067818300892624,-2.1422300946959916,-3.2268352917795458,-4.132494743250581,-5.100408645332904,-11.455676151460919,-2.8600322516483123,-0.146667105,-0.898862445,0.42504774,-9.96478,12.31482,2.5942,71.0
1774822182.744436,0.009829521179199219,2026-03-29T22:09:42.744,2026-03-29T18:09:42.744,-32951.7,-48772.619999999995,-85208.535,-50159.79,-14398.244999999999,-19550.655,5324.3099999999995,-63883.755,-1.994048475662014,-3.341576600759335,-4.0180319144263565,-3.2245487702947897,-4.047552564971442,-5.357043783709867,-12.34157563986437,-1.5311028270713778,-0.146667105,-0.898862445,0.42504774,-9.96478,12.31482,2.5942,71.0
1774822182.7444625,2.6464462280273438e-05,2026-03-29T22:09:42.744,2026-03-29T18:09:42.744,-32953.32,-48777.525,-85214.205,-50165.055,-14403.465,-19554.344999999998,5307.4349999999995,-63884.34,-0.6750841476738413,-2.9962866899801783,-3.8964676433922225,-1.6994909374214544,-2.0870202086688976,-3.1197542216711533,-7.646226087809788,0.5190706629120164,-0.146667105,-0.898862445,0.42504774,-9.96478,12.31482,2.5942,71.0
1774822182.7444875,2.5033950805664062e-05,2026-03-29T22:09:42.744,2026-03-29T18:09:42.744,-32942.07,-48773.61,-85214.83499999999,-50160.42,-14396.984999999999,-19548.855,5315.085,-63872.82,0.9646030138572832,-1.1899129305261091,-1.9305209782881048,0.5436063813825708,0.7356504953622955,0.46452229379087895,0.4180513800285522,2.2771640681119867,-0.146667105,-0.898862445,0.42504774,-9.96478,12.31482,2.5942,71.0
1774822182.744498,1.049041748046875e-05,2026-03-29T22:09:42.744,2026-03-29T18:09:42.744,-32925.78,-48762.854999999996,-85203.81,-50148.945,-14387.715,-19540.62,5350.41,-63853.47,2.0925978338970244,1.1443017676185119,0.8493000611044322,2.3956643283268404,3.0492822638089487,3.6605254653621047,8.147940906940073,2.889988526854177,-0.146667105,-0.898862445,0.42504774,-9.96478,12.31482,2.5942,71.0
1774822182.7471457,0.0026476383209228516,2026-03-29T22:09:42.747,2026-03-29T18:09:42.747,-32942.385,-48765.555,-85197.19499999999,-50138.955,-14378.894999999999,-19532.835,5361.4349999999995,-63875.79,2.1455905120174554,2.839777496197087,3.0711335944857088,2.9972429571923285,3.8017595361147785,4.997037546693459,12.062278114444348,2.0808447204862723,-0.14575158,-0.894223785,0.424498425,-15.168439999999999,12.467419999999999,6.134519999999999,71.0
1774822182.7471955,4.982948303222656e-05,2026-03-29T22:09:42.747,2026-03-29T18:09:42.747,-32952.645,-48761.055,-85190.265,-50134.5,-14373.359999999999,-19524.645,5361.165,-63890.145,1.1125805562939377,3.0802908154732775,3.7000276978199045,2.1425709147870045,2.747180486811876,3.9552239571595833,10.479550958674938,0.2755654645651997,-0.14575158,-0.894223785,0.424498425,-15.168439999999999,12.467419999999999,6.134519999999999,71.0
1774822182.7564118,0.00921630859375,2026-03-29T22:09:42.756,2026-03-29T18:09:42.756,-32945.04,-48760.92,-85193.415,-50144.4,-14383.394999999999,-19532.969999999998,5356.304999999999,-63872.505,-0.4655483620012477,1.7940589079775926,2.522452762989655,0.341549420357786,0.5139707791985224,1.1659817693547336,4.240978458566171,-1.6196411741260826,-0.14575158,-0.894223785,0.424498425,-15.168439999999999,12.467419999999999,6.134519999999999,71.0
1774822182.7564287,1.6927719116210938e-05,2026-03-29T22:09:42.756,2026-03-29T18:09:42.756,-32948.46,-48768.479999999996,-85203.765,-50156.729999999996,-14394.555,-19544.445,5347.304999999999,-63872.145,-1.777706086106818,-0.3326479554828231,0.20921390163695738,-1.4732502229215196,-1.7566050337434571,-1.9562219901749816,-3.7315503380921635,-2.673437737367164,-0.14575158,-0.894223785,0.424498425,-15.168439999999999,12.467419999999999,6.134519999999999,71.0
1774822182.756446,1.71661376953125e-05,2026-03-29T22:09:42.756,2026-03-29T18:09:42.756,-32947.424999999996,-48770.505,-85206.78,-50157.314999999995,-14397.93,-19549.98,5329.9349999999995,-63871.47,-2.159508457522713,-2.21893011296062,-2.055495648993101,-2.430141123328504,-2.998234147049147,-3.9360197668252503,-9.812162903749071,-2.3888823475374226,-0.14575158,-0.894223785,0.424498425,-15.168439999999999,12.467419999999999,6.134519999999999,71.0
1774822182.756453,7.152557373046875e-06,2026-03-29T22:09:42.756,2026-03-29T18:09:42.756,-32948.82,-48776.31,-85206.555,-50150.295,-14396.625,-19551.149999999998,5314.905,-63870.39,-1.4311492087418822,-2.9384024456542024,-3.177906527099902,-2.1414253695089336,-2.7290969417920743,-3.944820188786712,-11.330111130486667,-0.9397429614378369,-0.14575158,-0.894223785,0.424498425,-15.168439999999999,12.467419999999999,6.134519999999999,71.0
1774822182.758952,0.0024988651275634766,2026-03-29T22:09:42.758,2026-03-29T18:09:42.758,-32947.56,-48776.265,-85203.315,-50145.21,-14391.539999999999,-19546.515,5321.5199999999995,-63866.159999999996,0.016194992116448117,-2.1751027320350893,-2.68444102890556,-0.8589135142972372,-1.2358858490515212,-2.1494467598493032,-7.747928513493311,0.9296363496186764,-0.14575158,-0.894223785,0.424498425,-15.168439999999999,12.467419999999999,6.134519999999999,71.0
1774822182.7589788,2.6941299438476562e-05,2026-03-29T22:09:42.758,2026-03-29T18:09:42.758,-32949.9,-48776.67,-85204.75499999999,-50151.104999999996,-14393.205,-19545.57,5348.835,-63863.865,1.4277418435807039,-0.3613058261353496,-0.9202301603957131,0.6992955015883882,0.6360697756765697,0.4455748351293186,-0.8370906699671931,2.2852485589153737,-0.14575158,-0.894223785,0.424498425,-15.168439999999999,12.467419999999999,6.134519999999999,71.0
1774822182.7654312,0.006452322006225586,2026-03-29T22:09:42.765,2026-03-29T18:09:42.765,-32943.015,-48767.174999999996,-85197.555,-50154.03,-14394.015,-19542.69,5362.245,-63860.805,2.0773596421880054,1.5623440815867211,1.16598897263423,1.742764031138834,1.9518439327222497,2.5502364667149857,6.197045280141802,2.4707320312133656,-0.14575158,-0.894223785,0.424498425,-15.168439999999999,12.467419999999999,6.134519999999999,71.0
1774822182.765448,1.6927719116210938e-05,2026-03-29T22:09:42.765,2026-03-29T18:09:42.765,-32944.32,-48769.02,-85203.09,-50154.93,-14394.33,-19544.219999999998,5358.33,-63867.6,1.6413489404743433,2.6332112145823685,2.5244717984937233,1.810173853582818,2.1583207837925182,3.235688387225304,10.208877738578984,1.4269406047774973,-0.14575158,-0.894223785,0.424498425,-15.168439999999999,12.467419999999999,6.134519999999999,71.0
1774822182.7668188,0.0013706684112548828,2026-03-29T22:09:42.766,2026-03-29T18:09:42.766,-32944.59,-48768.165,-85199.985,-50156.955,-14397.029999999999,-19546.92,5352.03,-63868.77,0.3611828192396592,2.3485830964140884,2.531206066946172,0.9742229161987783,1.318424269835761,2.348798689148648,9.525745544389485,-0.29264368417013925,-0.142272585,-0.89550552,0.42492567000000003,-19.39546,14.497,8.14884,71.0
1774822182.7668328,1.4066696166992188e-05,2026-03-29T22:09:42.766,2026-03-29T18:09:42.766,-32942.159999999996,-48767.174999999996,-85197.51,-50152.229999999996,-14392.98,-19543.32,5351.58,-63866.924999999996,-1.0872607254642304,0.9016834936669772,1.2750873102707343,-0.24115664211059826,0.00837982836669424,0.5076229062465839,4.643221453174556,-1.8124019854877116,-0.142272585,-0.89550552,0.42492567000000003,-19.39546,14.497,8.14884,71.0
1774822182.770362,0.003529071807861328,2026-03-29T22:09:42.770,2026-03-29T18:09:42.770,-32947.155,-48774.465,-85204.305,-50151.869999999995,-14394.24,-19547.594999999998,5346.764999999999,-63870.524999999994,-1.9482377537375248,-0.9390190352900296,-0.5267447350836172,-1.1690166655363223,-1.0393320698228958,-1.28451892790749,-2.0848144630989522,-2.3796532795557432,-0.142272585,-0.89550552,0.42492567000000003,-19.39546,14.497,8.14884,71.0
1774822182.770373,1.1205673217773438e-05,2026-03-29T22:09:42.770,2026-03-29T18:09:42.770,-32955.255,-48784.229999999996,-85213.98,-50159.25,-14403.375,-19557.54,5337.8099999999995,-63877.905,-1.7792734726394501,-2.235344699331699,-1.9253344440493572,-1.3582153893525053,-1.3376313952053727,-2.178637975428747,-7.580947901199231,-1.7382864225773782,-0.142272585,-0.89550552,0.42492567000000003,-19.39546,14.497,8.14884,71.0
1774822182.7737179,0.0033447742462158203,2026-03-29T22:09:42.773,2026-03-29T18:09:42.773,-32954.265,-48782.564999999995,-85213.08,-50159.34,-14401.529999999999,-19553.579999999998,5339.385,-63877.32,-0.6787108813913169,-2.356742572323978,-2.2336475605575616,-0.7923856166500022,-0.8736790387543611,-1.8855975778996261,-9.456518254605065,-0.2449592723170523,-0.142272585,-0.89550552,0.42492567000000003,-19.39546,14.497,8.14884,71.0
1774822182.7737453,2.7418136596679688e-05,2026-03-29T22:09:42.773,2026-03-29T18:09:42.773,-32947.965,-48775.229999999996,-85205.97,-50156.82,-14398.74,-19549.215,5339.205,-63873.99,0.7695315123807788,-1.28678633945483,-1.3630539240088941,0.13688753583911398,-0.056431852845249084,-0.7524067386242435,-7.051369308516715,1.3252119320251565,-0.142272585,-0.89550552,0.42492567000000003,-19.39546,14.497,8.14884,71.0
1774822182.7791178,0.005372524261474609,2026-03-29T22:09:42.779,2026-03-29T18:09:42.779,-32941.08,-48766.14,-85196.87999999999,-50149.215,-14392.755,-19542.42,5343.84,-63868.005,1.8037031219638608,0.3901118323623868,0.1617710222296933,0.8730784659913832,0.5648139928504821,0.49871295554750866,-1.648287976073599,2.179160954893078,-0.142272585,-0.89550552,0.42492567000000003,-19.39546,14.497,8.14884,71.0
1774822182.7791395,2.1696090698242188e-05,2026-03-29T22:09:42.779,2026-03-29T18:09:42.779,-32942.07,-48766.86,-85197.555,-50152.049999999996,-14394.96,-19543.905,5346.2699999999995,-63868.095,1.8829820027681567,1.804606823615738,1.5035886616417025,1.0113235783553212,0.6358456084069677,1.1989451034020364,4.196382868838266,1.9062390274422518,-0.142272585,-0.89550552,0.42492567000000003,-19.39546,14.497,8.14884,71.0
1774822182.784531,0.005391597747802734,2026-03-29T22:09:42.784,2026-03-29T18:09:42.784,-32947.515,-48773.88,-85205.79,-50161.59,-14403.015,-19551.465,5341.635,-63873.18,0.9690609978676842,2.2514438901367675,1.9619354961751627,0.5140270958179239,0.1923319105334578,1.084790164271413,7.861724986506389,0.6761698388548693,-0.142272585,-0.89550552,0.42492567000000003,-19.39546,14.497,8.14884,71.0
1774822182.784551,1.9788742065429688e-05,2026-03-29T22:09:42.784,2026-03-29T18:09:42.784,-32949.54,-48775.455,-85206.19499999999,-50158.08,-14400.81,-19551.78,5338.62,-63874.845,-0.4557777620454769,1.5402214767395994,1.3337525005902888,-0.2867405781682938,-0.39064759893810663,0.3900216117674378,7.839112138474685,-0.8612588686360081,-0.142272585,-0.89550552,0.42492567000000003,-19.39546,14.497,8.14884,71.0
1774822182.7874804,0.0029294490814208984,2026-03-29T22:09:42.787,2026-03-29T18:09:42.787,-32946.84,-48772.665,-85201.02,-50151.915,-14396.715,-19550.52,5338.71,-63873.36,-1.6425380941218937,0.07370657487079191,0.0016030240864952855,-0.8925000387671552,-0.6537208980058358,-0.34964164508799345,4.348165740630022,-1.917488103008916,-0.140319465,-0.896665185,0.424254285,-20.036379999999998,15.80936,10.78882,71.0
1774822182.787514,3.361701965332031e-05,2026-03-29T22:09:42.787,2026-03-29T18:09:42.787,-32949.27,-48775.275,-85201.065,-50152.409999999996,-14398.244999999999,-19552.77,5337.045,-63876.465,-1.9679140328291767,-1.3768599558869061,-1.287837341828166,-0.9284921091478092,-0.35486143047282404,-0.6458018972407366,-0.8565122998865045,-1.9689405370135213,-0.140319465,-0.896665185,0.424254285,-20.036379999999998,15.80936,10.78882,71.0
1774822182.7911768,0.0036628246307373047,2026-03-29T22:09:42.791,2026-03-29T18:09:42.791,-32946.84,-48774.15,-85200.075,-50150.97,-14396.31,-19548.765,5341.41,-63874.755,-1.2599722268693507,-2.0754903789608377,-1.8307728414053484,-0.35823293274400025,0.364813127053048,-0.3498856358258311,-5.357512848622486,-1.0165506384592715,-0.140319465,-0.896665185,0.424254285,-20.036379999999998,15.80936,10.78882,71.0
1774822182.7912056,2.8848648071289062e-05,2026-03-29T22:09:42.791,2026-03-29T18:09:42.791,-32945.49,-48772.71,-85198.95,-50148.09,-14392.08,-19543.68,5344.335,-63874.89,0.11266636041070334,-1.6935328699104617,-1.341173363744996,0.494818475148504,1.0523156300263103,0.2774106829577727,-7.1956430659145845,0.42788914860560434,-0.140319465,-0.896665185,0.424254285,-20.036379999999998,15.80936,10.78882,71.0
1774822182.7950027,0.0037970542907714844,2026-03-29T22:09:42.795,2026-03-29T18:09:42.795,-32941.215,-48767.534999999996,-85196.87999999999,-50142.06,-14384.789999999999,-19537.38,5353.514999999999,-63870.615,1.433981508400842,-0.46244210237757843,-0.09733358456023972,1.1284339363900349,1.213030441923472,0.7499627412090926,-5.7208056795559985,1.6154428914664478,-0.140319465,-0.896665185,0.424254285,-20.036379999999998,15.80936,10.78882,71.0
1774822182.7950253,2.2649765014648438e-05,2026-03-29T22:09:42.795,2026-03-29T18:09:42.795,-32941.89,-48769.38,-85200.97499999999,-50145.75,-14389.244999999999,-19542.105,5349.33,-63871.38,2.014442222510591,0.9629044966876623,1.2133930045185943,1.1448724799967052,0.6237032323178946,0.6755138349221748,-1.8046339630652857,1.9480645183547376,-0.140319465,-0.896665185,0.424254285,-20.036379999999998,15.80936,10.78882,71.0
1774822182.799111,0.004085540771484375,2026-03-29T22:09:42.799,2026-03-29T18:09:42.799,-32947.604999999996,-48775.634999999995,-85209.61499999999,-50158.034999999996,-14403.555,-19555.829999999998,5326.5599999999995,-63879.03,1.5501349973420717,1.8511987560122043,1.8662713073390194,0.48058099879627425,-0.49760548396666415,0.01624419733416,2.6440463783297945,1.2798622098289587,-0.140319465,-0.896665185,0.424254285,-20.036379999999998,15.80936,10.78882,71.0
1774822182.7991266,1.5735626220703125e-05,2026-03-29T22:09:42.799,2026-03-29T18:09:42.799,-32940.27,-48767.13,-85201.515,-50148.494999999995,-14393.97,-19547.145,5338.304999999999,-63872.64,0.2801057065900143,1.7687054541044755,1.4894365201073219,-0.5440539539637078,-1.5736526395633634,-0.8667690191160731,5.601405144300037,-0.020559964646716927,-0.140319465,-0.896665185,0.424254285,-20.036379999999998,15.80936,10.78882,71.0
1774822182.803059,0.003932476043701172,2026-03-29T22:09:42.803,2026-03-29T18:09:42.803,-32943.24,-48767.939999999995,-85197.95999999999,-50152.545,-14397.975,-19549.485,5344.5599999999995,-63873.09,-1.1391403991684748,0.7894283616038233,0.26652737593144094,-1.3846394561891164,-1.9699448092860052,-1.4154543752282773,5.84612274399735,-1.2727393473475277,-0.140319465,-0.896665185,0.424254285,-20.036379999999998,15.80936,10.78882,71.0
1774822182.8030748,1.5735626220703125e-05,2026-03-29T22:09:42.803,2026-03-29T18:09:42.803,-32944.994999999995,-48769.335,-85200.12,-50155.29,-14398.56,-19549.44,5342.58,-63874.305,-1.975338886989739,-0.5597230328152959,-1.1554524924730856,-1.5599643703517156,-1.3565434276157953,-1.2089044006123162,3.457971418405284,-1.8412157273957375,-0.140319465,-0.896665185,0.424254285,-20.036379999999998,15.80936,10.78882,71.0
1774822182.8073597,0.004284858703613281,2026-03-29T22:09:42.807,2026-03-29T18:09:42.807,-32946.659999999996,-48771.045,-85200.75,-50154.39,-14397.21,-19549.755,5338.98,-63875.88,-1.7996057726404735,-1.5818514125650993,-2.0057411024660436,-0.9155238070035802,0.07228072564053362,-0.23608505922210393,-0.302639739361106,-1.459165276781706,-0.141296025,-0.89562759,0.42431532,-18.037319999999998,16.38924,11.41448,71.0
1774822182.8073945,3.4809112548828125e-05,2026-03-29T22:09:42.807,2026-03-29T18:09:42.807,-32947.604999999996,-48771.81,-85199.355,-50147.189999999995,-14392.755,-19547.235,5324.13,-63879.57,-0.7060003948738344,-1.7695425371287092,-1.7998475580820203,0.2768312134677893,1.6533759339276703,1.0562251055609446,-3.6418304506616996,-0.3532178285079909,-0.141296025,-0.89562759,0.42431532,-18.037319999999998,16.38924,11.41448,71.0
1774822182.8115225,0.004127979278564453,2026-03-29T22:09:42.811,2026-03-29T18:09:42.811,-32934.42,-48755.97,-85178.25,-50121.72,-14370.93,-19529.19,5316.12,-63875.07,0.7410231154346432,-1.0556965574960466,-0.6049808599675796,1.4394858034554714,2.5723993145822335,1.9795960127234338,-5.080320907695678,0.8891097209438281,-0.141296025,-0.89562759,0.42431532,-18.037319999999998,16.38924,11.41448,71.0
1774822182.8115432,2.0742416381835938e-05,2026-03-29T22:09:42.811,2026-03-29T18:09:42.811,-32928.03,-48747.915,-85171.905,-50120.415,-14368.365,-19526.715,5334.795,-63869.985,1.8014672476287557,0.16783148654400226,0.9806422254573826,1.9729560672921442,2.286991996556764,1.974541061948832,-4.104721899176736,1.6331694609579712,-0.141296025,-0.89562759,0.42431532,-18.037319999999998,16.38924,11.41448,71.0
1774822182.8154056,0.0038623809814453125,2026-03-29T22:09:42.815,2026-03-29T18:09:42.815,-32938.02,-48760.83,-85191.48,-50141.295,-14385.869999999999,-19543.005,5332.455,-63873.945,1.9416898955010604,1.2650380746535252,2.128685251056729,1.5615597275271114,0.8339227663028568,0.9347109462073112,-1.337505666366314,1.5241957590297992,-0.141296025,-0.89562759,0.42431532,-18.037319999999998,16.38924,11.41448,71.0
1774822182.8154347,2.9087066650390625e-05,2026-03-29T22:09:42.815,2026-03-29T18:09:42.815,-32951.385,-48778.695,-85207.815,-50154.03,-14399.82,-19554.614999999998,5353.875,-63875.564999999995,1.1048060754955593,1.686654003480214,2.210018194007404,0.34627956543477606,-1.1492887408985368,-0.6980285681220668,1.822663690852092,0.6577998800535982,-0.141296025,-0.89562759,0.42431532,-18.037319999999998,16.38924,11.41448,71.0
1774822182.8190985,0.003663778305053711,2026-03-29T22:09:42.819,2026-03-29T18:09:42.819,-32955.705,-48783.015,-85209.48,-50159.655,-14408.73,-19560.87,5361.075,-63877.229999999996,-0.26841999651505766,1.244987423808812,1.1315498572079372,-1.125107237645025,-2.713777524191753,-2.131100263739272,3.893760151713925,-0.4889683292485206,-0.141296025,-0.89562759,0.42431532,-18.037319999999998,16.38924,11.41448,71.0
1774822182.819116,1.7642974853515625e-05,2026-03-29T22:09:42.819,2026-03-29T18:09:42.819,-32952.195,-48774.915,-85200.20999999999,-50152.634999999995,-14401.845,-19555.785,5345.6849999999995,-63880.38,-1.474723454752444,0.19532542304099218,-0.5965871060990979,-2.1509201589544054,-3.0633855131340324,-2.617846166155697,3.9986347472044743,-1.3211152106575739,-0.141296025,-0.89562759,0.42431532,-18.037319999999998,16.38924,11.41448,71.0
1774822182.8254604,0.006344318389892578,2026-03-29T22:09:42.825,2026-03-29T18:09:42.825,-32945.715,-48770.055,-85201.155,-50147.775,-14392.08,-19548.0,5339.429999999999,-63877.365,-1.9132224756533354,-0.9101990266005033,-2.1050302088808737,-2.2116244575929733,-1.961838522323338,-1.8496814031647055,2.232089519023688,-1.4384834024041744,-0.141296025,-0.89562759,0.42431532,-18.037319999999998,16.38924,11.41448,71.0
1774822182.8254788,1.8358230590820312e-05,2026-03-29T22:09:42.825,2026-03-29T18:09:42.825,-32945.04,-48773.205,-85210.515,-50150.475,-14391.449999999999,-19547.46,5340.87,-63876.78,-1.3889209731180143,-1.513506989149495,-2.6025741178325914,-1.2274193784527758,0.1260513543196809,-0.13666540335778415,-0.44443965895321275,-0.8318815310235055,-0.141296025,-0.89562759,0.42431532,-18.037319999999998,16.38924,11.41448,71.0
1774822182.8267217,0.0012428760528564453,2026-03-29T22:09:42.826,2026-03-29T18:09:42.826,-32947.695,-48774.869999999995,-85208.265,-50154.39,-14393.88,-19548.495,5345.955,-63879.479999999996,-0.19966614154320494,-1.333025364425586,-1.7871464599969424,0.38794779187926387,2.2380695467080742,1.7243176730739802,-2.705506081971096,0.13547916109437402,-0.136413225,-0.904111455,0.42993054,-6.88226,17.79316,9.842699999999999,71.0
1774822182.8267355,1.3828277587890625e-05,2026-03-29T22:09:42.826,2026-03-29T18:09:42.826,-32950.034999999996,-48775.68,-85201.33499999999,-50152.814999999995,-14391.18,-19545.795,5348.88,-63878.49,1.0325103869963372,-0.494607393707066,-0.01879102081589528,1.9062891030159737,3.3696485323573953,2.83370088662539,-3.5062308108104,0.9414337026795989,-0.136413225,-0.904111455,0.42993054,-6.88226,17.79316,9.842699999999999,71.0
1774822182.8308172,0.00408172607421875,2026-03-29T22:09:42.830,2026-03-29T18:09:42.830,-32949.99,-48777.345,-85202.73,-50151.195,-14390.234999999999,-19545.344999999998,5347.665,-63878.579999999994,1.6908661942371255,0.5495744454911352,1.8406645250838238,2.6163833661180216,2.9595350376257854,2.6343183805125845,-2.560122056837585,1.190089218585985,-0.136413225,-0.904111455,0.42993054,-6.88226,17.79316,9.842699999999999,71.0
1774822182.8308284,1.1205673217773438e-05,2026-03-29T22:09:42.830,2026-03-29T18:09:42.830,-32949.405,-48775.95,-85201.965,-50147.955,-14393.43,-19550.88,5345.099999999999,-63880.47,1.4783805705508402,1.2643797747734877,2.8492285426157427,2.1553178676050795,1.1677794613092043,1.1928329459935427,-0.4338812219575149,0.8122167493748278,-0.136413225,-0.904111455,0.42993054,-6.88226,17.79316,9.842699999999999,71.0
1774822182.8350189,0.0041904449462890625,2026-03-29T22:09:42.835,2026-03-29T18:09:42.835,-32947.29,-48769.47,-85192.605,-50141.79,-14393.519999999999,-19552.005,5344.065,-63881.28,0.554485275247109,1.3068056333323264,2.4609300309260727,0.686459894237519,-1.191322425349266,-0.8251346012974378,1.767806870631256,0.07676275304925992,-0.136413225,-0.904111455,0.42993054,-6.88226,17.79316,9.842699999999999,71.0
