unix_time_s,dt_s,UTC,LOCAL,EMG1_Raw,EMG2_Raw,EMG3_Raw,EMG4_Raw,EMG5_Raw,EMG6_Raw,EMG7_Raw,EMG8_Raw,EMG1_Filtered,EMG2_Filtered,EMG3_Filtered,EMG4_Filtered,EMG5_Filtered,EMG6_Filtered,EMG7_Filtered,EMG8_Filtered,Accel1_Raw,Accel2_Raw,Accel3_Raw,Gyro1_Raw,Gyro2_Raw,Gyro3_Raw,Battery
1774822646.7200084,,2026-03-29T22:17:26.720,2026-03-29T18:17:26.720,-33977.295,-46468.845,-84458.79,-49732.155,-12839.31,-17801.37,6378.165,-48495.104999999996,-0.6273258881800257,0.10476837399024001,-0.9522334442810438,-1.977901113216626,-1.4776017630275193,-1.0201792092949231,-0.014593945178618402,-1.4061529321982325,0.198790995,-0.16699176,0.948178725,-1.63282,-20.84516,-5.478339999999999,70.0
1774822646.72003,2.1696090698242188e-05,2026-03-29T22:17:26.720,2026-03-29T18:17:26.720,-33973.92,-46466.82,-84467.97,-49752.674999999996,-12860.595,-17823.285,6375.78,-48478.725,-1.7768889674733561,-3.1347395514626673,-5.977272373680557,-2.1278061291245254,-2.5042746566184166,-2.9153218764664213,-2.6337221796001393,-3.3289362897999744,0.198790995,-0.16699176,0.948178725,-1.63282,-20.84516,-5.478339999999999,70.0
1774822646.724969,0.004938840866088867,2026-03-29T22:17:26.724,2026-03-29T18:17:26.724,-33981.435,-46468.08,-84469.815,-49756.229999999996,-12854.88,-17809.92,6392.745,-48466.619999999995,-1.8100937317951302,-5.072243097863384,-8.458193518511983,-1.390616469379337,-2.601387341901273,-3.85649619037907,-4.521204366368841,-3.505746610827654,0.198790995,-0.16699176,0.948178725,-1.63282,-20.84516,-5.478339999999999,70.0
1774822646.724992,2.3126602172851562e-05,2026-03-29T22:17:26.724,2026-03-29T18:17:26.724,-34011.09,-46485.585,-84475.98,-49741.695,-12845.654999999999,-17808.704999999998,6391.304999999999,-48470.04,-0.5599162603851553,-4.82629305129405,-7.344852264362267,-0.26240473520396806,-1.8411591935429388,-3.4984213703208966,-4.797269280857802,-1.7164790648924457,0.198790995,-0.16699176,0.948178725,-1.63282,-20.84516,-5.478339999999999,70.0
1774822646.725012,2.002716064453125e-05,2026-03-29T22:17:26.725,2026-03-29T18:17:26.725,-34015.14,-46493.28,-84471.97499999999,-49718.295,-12819.779999999999,-17785.575,6379.92,-48456.314999999995,1.3378447125467907,-2.4582887912124325,-3.118798165478512,0.6887978695804298,-0.5379040186733082,-1.8732075216501756,-3.1037885801783127,1.1872681599510646,0.197326155,-0.190612305,0.9533667,7.7063,-18.60194,-0.56462,70.0
1774822646.7250204,8.344650268554688e-06,2026-03-29T22:17:26.725,2026-03-29T18:17:26.725,-34016.265,-46481.13,-84447.495,-49717.53,-12816.045,-17776.53,6378.3,-48443.58,2.7683316819662545,1.0312317362070864,2.410209779197856,1.0998059407873977,0.8739854673501045,0.5603647100976956,0.12244657430651647,3.688615100537586,0.197326155,-0.190612305,0.9533667,7.7063,-18.60194,-0.56462,70.0
1774822646.7302136,0.005193233489990234,2026-03-29T22:17:26.730,2026-03-29T18:17:26.730,-33983.505,-46451.07,-84440.745,-49748.85,-12853.215,-17812.98,6371.46,-48416.49,2.767882402609685,4.12449732502734,6.878195462513663,0.9427562712989419,1.960671808688025,2.990817013911219,3.6889446988024295,4.391108438163082,0.197326155,-0.190612305,0.9533667,7.7063,-18.60194,-0.56462,70.0
1774822646.7302296,1.5974044799804688e-05,2026-03-29T22:17:26.730,2026-03-29T18:17:26.730,-33982.065,-46455.615,-84452.22,-49745.205,-12835.845,-17785.8,6391.08,-48399.615,1.1128785130825996,5.449412335120833,8.381555386434227,0.4676618275704033,2.3912483718174062,4.483006819574894,6.059248809119512,2.7790034579903726,0.197326155,-0.190612305,0.9533667,7.7063,-18.60194,-0.56462,70.0
1774822646.734501,0.004271268844604492,2026-03-29T22:17:26.734,2026-03-29T18:17:26.734,-33987.42,-46472.445,-84469.77,-49749.705,-12839.22,-17789.309999999998,6392.429999999999,-48385.71,-1.4744340825840008,4.392890904712314,6.295510482234801,0.01484315283389527,2.0195396500710707,4.325576113888288,6.0134110008739565,-0.4551977975476736,0.197326155,-0.190612305,0.9533667,7.7063,-18.60194,-0.56462,70.0
1774822646.734534,3.314018249511719e-05,2026-03-29T22:17:26.734,2026-03-29T18:17:26.734,-33997.365,-46491.345,-84491.81999999999,-49765.14,-12864.33,-17826.93,6374.88,-48374.909999999996,-3.64633925596841,1.3883953637987783,1.5412089060412342,-0.18650316128299696,0.937577663526649,2.37534631458872,3.2744052433901407,-3.7099500767872775,0.197326155,-0.190612305,0.9533667,7.7063,-18.60194,-0.56462,70.0
1774822646.7416291,0.0070950984954833984,2026-03-29T22:17:26.741,2026-03-29T18:17:26.741,-34005.465,-46488.42,-84483.18,-49748.715,-12852.449999999999,-17823.239999999998,6378.885,-48369.689999999995,-4.131763212125019,-2.258884949602125,-3.816550218409322,-0.12488620606065111,-0.521774308860221,-0.7699518731422337,-1.221032790426129,-5.2708174084139845,0.197326155,-0.190612305,0.9533667,7.7063,-18.60194,-0.56462,70.0
1774822646.7416575,2.8371810913085938e-05,2026-03-29T22:17:26.741,2026-03-29T18:17:26.741,-33978.33,-46459.305,-84454.83,-49732.965,-12838.59,-17805.6,6380.054999999999,-48352.77,-2.454158283221045,-4.940498812763335,-7.467741937509427,0.027486338180554327,-1.8590811330705999,-3.903161523009915,-5.60217714402358,-4.2063829175715695,0.197326155,-0.190612305,0.9533667,7.7063,-18.60194,-0.56462,70.0
1774822646.741685,2.7418136596679688e-05,2026-03-29T22:17:26.741,2026-03-29T18:17:26.741,-33956.415,-46461.555,-84478.455,-49774.185,-12874.005,-17829.045,6369.075,-48323.655,0.731363051311061,-5.458777885247216,-7.860404620764784,0.054334502246062066,-2.5635661145125668,-5.652438072600572,-7.838250635337206,-0.8981210759321847,0.197326155,-0.190612305,0.9533667,7.7063,-18.60194,-0.56462,70.0
1774822646.741696,1.0967254638671875e-05,2026-03-29T22:17:26.741,2026-03-29T18:17:26.741,-33970.545,-46472.895,-84489.3,-49774.77,-12873.33,-17833.68,6351.03,-48318.615,3.8928739178820964,-3.567409634738299,-4.869822482939319,-0.14940547801831,-2.3107903548279176,-5.086578367874047,-6.689265860591008,3.0887526041270914,0.197326155,-0.190612305,0.9533667,7.7063,-18.60194,-0.56462,70.0
1774822646.751968,0.010272026062011719,2026-03-29T22:17:26.751,2026-03-29T18:17:26.751,-33990.345,-46490.67,-84492.45,-49747.814999999995,-12847.59,-17819.1,6350.535,-48312.54,5.369939677486259,-0.09196038257894044,0.15956668697421555,-0.49909157668444115,-1.1246026890472263,-2.212008270481379,-2.3839176722150333,5.754495395012072,0.21325629000000002,-0.21691839000000002,0.96117918,22.47798,-17.44218,-3.052,70.0
1774822646.752016,4.8160552978515625e-05,2026-03-29T22:17:26.752,2026-03-29T18:17:26.752,-33992.28,-46493.64,-84485.925,-49741.244999999995,-12838.769999999999,-17807.489999999998,6365.16,-48292.56,4.244830059542389,3.430093645470892,5.016209972734828,-0.7633968254079067,0.5825174668763708,1.9035756621074993,3.342804424103667,5.671801618135872,0.21325629000000002,-0.21691839000000002,0.96117918,22.47798,-17.44218,-3.052,70.0
1774822646.7520359,1.9788742065429688e-05,2026-03-29T22:17:26.752,2026-03-29T18:17:26.752,-34000.74,-46477.259999999995,-84469.905,-49760.505,-12854.07,-17817.255,6380.73,-48283.74,0.8797107156822082,5.43320859328919,7.599060478412467,-0.7035894301081099,2.1370182857214175,5.501036570997816,7.939095686583587,2.7416187567926023,0.21325629000000002,-0.21691839000000002,0.96117918,22.47798,-17.44218,-3.052,70.0
1774822646.7520425,6.67572021484375e-06,2026-03-29T22:17:26.752,2026-03-29T18:17:26.752,-34004.565,-46472.625,-84469.36499999999,-49769.235,-12875.355,-17851.77,6361.245,-48275.909999999996,-3.1838272941202344,5.025697929895794,6.836320148156053,-0.22959843596293383,2.8703806714205586,6.881380047152959,9.18473125295146,-1.6996168374654268,0.21325629000000002,-0.21691839000000002,0.96117918,22.47798,-17.44218,-3.052,70.0
1774822646.7542536,0.0022110939025878906,2026-03-29T22:17:26.754,2026-03-29T18:17:26.754,-34005.78,-46462.229999999996,-84443.44499999999,-49727.43,-12837.914999999999,-17822.25,6362.82,-48262.32,-5.945361867196971,2.392231622483821,3.1388521577282433,0.517031496007771,2.418314894925473,5.218511847632411,6.276019168659629,-5.499213742912236,0.21325629000000002,-0.21691839000000002,0.96117918,22.47798,-17.44218,-3.052,70.0
1774822646.7542667,1.3113021850585938e-05,2026-03-29T22:17:26.754,2026-03-29T18:17:26.754,-34001.865,-46474.83,-84459.59999999999,-49733.729999999996,-12824.55,-17777.295,6401.61,-48237.525,-5.943012588513668,-1.2873915165673302,-1.8080823304536204,1.2053147440171097,0.9135601537179293,1.040055680105914,0.3110975567235054,-6.742839545432543,0.21325629000000002,-0.21691839000000002,0.96117918,22.47798,-17.44218,-3.052,70.0
1774822646.7580695,0.003802776336669922,2026-03-29T22:17:26.758,2026-03-29T18:17:26.758,-34013.97,-46503.72,-84505.995,-49769.46,-12853.439999999999,-17806.545,6378.885,-48229.244999999995,-3.0249491320086186,-4.368658148873495,-5.813611074454858,1.4682470683245719,-1.0336405298169402,-3.897460889104197,-6.106562919255045,-4.723048501747872,0.21325629000000002,-0.21691839000000002,0.96117918,22.47798,-17.44218,-3.052,70.0
1774822646.758089,1.9550323486328125e-05,2026-03-29T22:17:26.758,2026-03-29T18:17:26.758,-33996.6,-46507.545,-84504.825,-49756.229999999996,-12839.445,-17801.415,6373.575,-48202.064999999995,1.5112969675807406,-5.482604969745154,-7.159345756140872,1.0936806993772206,-2.580522011362469,-7.340235985726029,-10.014271666271936,-0.32978534398931564,0.21325629000000002,-0.21691839000000002,0.96117918,22.47798,-17.44218,-3.052,70.0
1774822646.7620308,0.003941774368286133,2026-03-29T22:17:26.762,2026-03-29T18:17:26.762,-33979.455,-46487.835,-84498.39,-49792.95,-12883.095,-17855.01,6337.71,-48177.18,5.507998857711836,-4.150196984786082,-5.346262455871724,0.15542024225987253,-3.0250058201729404,-7.5745669437537035,-9.476459047016649,4.34875606488769,0.21325629000000002,-0.21691839000000002,0.96117918,22.47798,-17.44218,-3.052,70.0
1774822646.762046,1.52587890625e-05,2026-03-29T22:17:26.762,2026-03-29T18:17:26.762,-33975.09,-46470.689999999995,-84489.345,-49796.505,-12885.48,-17844.48,6371.1449999999995,-48170.34,6.991602966509793,-0.9921581379012898,-1.28087400870134,-0.9875223050946982,-2.137664421105852,-4.288533816400261,-4.5534623788855795,7.03284857492097,0.21325629000000002,-0.21691839000000002,0.96117918,22.47798,-17.44218,-3.052,70.0
1774822646.7658951,0.003849029541015625,2026-03-29T22:17:26.765,2026-03-29T18:17:26.765,-33955.92,-46469.924999999996,-84485.925,-49786.064999999995,-12886.244999999999,-17850.195,6385.41,-48134.115,5.158891109777316,2.559521649627116,3.1699342764711513,-1.8335226501423683,-0.28976507856305256,1.17851318171249,2.636904624071882,6.374111181095946,0.22265568,-0.18518019,0.9525732450000001,16.67918,-18.235699999999998,-5.38678,70.0
1774822646.76591,1.4781951904296875e-05,2026-03-29T22:17:26.765,2026-03-29T18:17:26.765,-33978.645,-46476.045,-84472.425,-49756.59,-12842.64,-17797.454999999998,6396.3,-48119.67,0.8072380183500226,4.914467136421007,6.039433041678606,-1.9634585630676051,1.6964155026121743,6.3678727767551715,8.836769745841671,2.6362628819366125,0.22265568,-0.18518019,0.9525732450000001,16.67918,-18.235699999999998,-5.38678,70.0
1774822646.776767,0.010857105255126953,2026-03-29T22:17:26.776,2026-03-29T18:17:26.776,-34033.185,-46463.939999999995,-84420.81,-49679.595,-12749.13,-17697.645,6431.175,-48149.055,-4.0197518052688475,5.041709206313963,6.1382877610862705,-1.2456449883902398,2.9171906265018257,8.811076476288871,11.143966769623804,-2.4115724971619024,0.22265568,-0.18518019,0.9525732450000001,16.67918,-18.235699999999998,-5.38678,70.0
1774822646.77679,2.288818359375e-05,2026-03-29T22:17:26.776,2026-03-29T18:17:26.776,-34011.27,-46452.689999999995,-84433.185,-49699.799999999996,-12788.324999999999,-17758.53,6394.86,-48140.1,-7.010043964174842,2.9256648679188917,3.5530232193615996,0.07818007466128894,2.808681642487718,7.2143001341236,8.389722093925878,-6.345404025439743,0.22265568,-0.18518019,0.9525732450000001,16.67918,-18.235699999999998,-5.38678,70.0
1774822646.7768116,2.1696090698242188e-05,2026-03-29T22:17:26.776,2026-03-29T18:17:26.776,-33994.979999999996,-46470.195,-84461.48999999999,-49720.994999999995,-12816.449999999999,-17791.785,6367.275,-48113.369999999995,-6.708446425990211,-0.44357869987884213,-0.44612363939485616,1.473861602062298,1.4187681665339449,2.144703331482654,1.735088619200442,-7.266185969850576,0.22265568,-0.18518019,0.9525732450000001,16.67918,-18.235699999999998,-5.38678,70.0
1774822646.7768211,9.5367431640625e-06,2026-03-29T22:17:26.776,2026-03-29T18:17:26.776,-33989.354999999996,-46474.74,-84473.50499999999,-49745.34,-12845.475,-17820.315,6337.71,-48089.655,-3.2338960066173104,-3.5344804000113488,-4.024548291722501,2.3355411028238637,-0.6058394720117529,-4.145025773776673,-5.820176868792831,-4.727842930819541,0.22265568,-0.18518019,0.9525732450000001,16.67918,-18.235699999999998,-5.38678,70.0
1774822646.7781713,0.0013501644134521484,2026-03-29T22:17:26.778,2026-03-29T18:17:26.778,-33984.045,-46463.265,-84445.425,-49722.075,-12826.305,-17798.94,6335.505,-48065.805,1.7686339085993987,-4.97435260070749,-5.628896509497849,2.252873500052802,-2.318513669404809,-8.71613984151771,-10.807544221665847,0.04493705456361355,0.22265568,-0.18518019,0.9525732450000001,16.67918,-18.235699999999998,-5.38678,70.0
1774822646.7781875,1.621246337890625e-05,2026-03-29T22:17:26.778,2026-03-29T18:17:26.778,-33979.545,-46467.27,-84436.69499999999,-49692.015,-12802.814999999999,-17791.875,6350.085,-48039.93,5.921252055481372,-4.163383194739529,-4.6666970936446175,1.2056261085063646,-2.9195102179923498,-9.32406215204019,-10.903999021559079,4.756329568488018,0.22265568,-0.18518019,0.9525732450000001,16.67918,-18.235699999999998,-5.38678,70.0
1774822646.7821167,0.00392913818359375,2026-03-29T22:17:26.782,2026-03-29T18:17:26.782,-33960.915,-46476.36,-84451.59,-49691.744999999995,-12799.664999999999,-17794.665,6371.325,-48007.799999999996,7.262404404559485,-1.5255604239156249,-1.7198468945804484,-0.4060692869537544,-2.1375325587901766,-5.527404533057117,-6.02878516863822,7.159168781465335,0.22265568,-0.18518019,0.9525732450000001,16.67918,-18.235699999999998,-5.38678,70.0
1774822646.7821364,1.9788742065429688e-05,2026-03-29T22:17:26.782,2026-03-29T18:17:26.782,-33957.45,-46474.74,-84462.03,-49723.155,-12815.685,-17787.105,6396.255,-47993.445,5.188420501354037,1.7088820513823,1.7820557799717982,-1.91727630653971,-0.3607658842311243,1.0250045085663066,1.602035280945079,6.142094832758848,0.22265568,-0.18518019,0.9525732450000001,16.67918,-18.235699999999998,-5.38678,70.0
1774822646.7871978,0.00506138801574707,2026-03-29T22:17:26.787,2026-03-29T18:17:26.787,-33980.4,-46477.08,-84471.39,-49762.259999999995,-12840.705,-17790.255,6408.9,-47995.064999999995,0.7288658542461076,4.079030141820213,4.252360142706731,-2.6781893119852356,1.5488340066483743,7.303931456078415,8.496441119746118,2.2514202476988996,0.22412052,-0.15905721,0.940122105,1.49548,-16.89282,-2.4110799999999997,70.0
1774822646.7872155,1.7642974853515625e-05,2026-03-29T22:17:26.787,2026-03-29T18:17:26.787,-33962.67,-46457.595,-84467.7,-49772.924999999996,-12853.439999999999,-17802.765,6406.0199999999995,-47986.47,-3.971335368660459,4.556358278257643,4.668525018349643,-2.3385698511071507,2.6709114866550543,10.30332100110504,11.505590003159229,-2.600874131338997,0.22412052,-0.15905721,0.940122105,1.49548,-16.89282,-2.4110799999999997,70.0
1774822646.7903795,0.003164052963256836,2026-03-29T22:17:26.790,2026-03-29T18:17:26.790,-33952.095,-46463.715,-84465.36,-49751.235,-12834.63,-17794.215,6396.884999999999,-47970.09,-6.699432785362584,2.992645623200552,2.994428496404824,-1.0102800467672794,2.4719311076232953,8.485090836023566,9.280223096088504,-6.087556211674782,0.22412052,-0.15905721,0.940122105,1.49548,-16.89282,-2.4110799999999997,70.0
1774822646.7904308,5.125999450683594e-05,2026-03-29T22:17:26.790,2026-03-29T18:17:26.790,-33952.68,-46484.415,-84481.605,-49751.82,-12837.689999999999,-17806.77,6375.87,-47955.869999999995,-6.233371384727935,0.15699201212753858,0.1299818178227245,0.7681984255786082,1.0640521745362903,2.5678555561790297,2.882132412899307,-6.597964628065432,0.22412052,-0.15905721,0.940122105,1.49548,-16.89282,-2.4110799999999997,70.0
1774822646.7941277,0.003696918487548828,2026-03-29T22:17:26.794,2026-03-29T18:17:26.794,-33947.955,-46493.909999999996,-84484.845,-49738.049999999996,-12828.689999999999,-17805.059999999998,6385.59,-47936.205,-2.897461131247161,-2.6410535184309554,-2.5590408090780006,2.2550651157061194,-0.8495419001919597,-4.744461173811826,-4.729123240947909,-3.9940071627741456,0.22412052,-0.15905721,0.940122105,1.49548,-16.89282,-2.4110799999999997,70.0
1774822646.7941415,1.3828277587890625e-05,2026-03-29T22:17:26.794,2026-03-29T18:17:26.794,-33949.619999999995,-46502.729999999996,-84488.31,-49734.0,-12827.97,-17806.905,6384.105,-47919.15,1.6411088143593504,-4.157633549782565,-3.889243573227584,2.8218661361661166,-2.318197456191669,-9.998291349586506,-10.08255683771638,0.36985457834135604,0.22412052,-0.15905721,0.940122105,1.49548,-16.89282,-2.4110799999999997,70.0
1774822646.7983022,0.004160642623901367,2026-03-29T22:17:26.798,2026-03-29T18:17:26.798,-33924.69,-46487.115,-84478.41,-49736.61,-12829.005,-17805.96,6382.62,-47892.915,5.213873191903881,-3.7684287147993265,-3.3786475127125235,2.225303454551071,-2.610423192352995,-10.624805087702143,-10.797253974063924,4.351805814348805,0.22412052,-0.15905721,0.940122105,1.49548,-16.89282,-2.4110799999999997,70.0
1774822646.7983296,2.7418136596679688e-05,2026-03-29T22:17:26.798,2026-03-29T18:17:26.798,-33904.305,-46470.869999999995,-84468.19499999999,-49747.905,-12837.42,-17808.93,6380.865,-47868.84,6.202212238027142,-1.7231357070596234,-1.4095577693941002,0.713729734687258,-1.5762738575480661,-6.197361681594133,-6.651313856882665,6.085593914587677,0.22412052,-0.15905721,0.940122105,1.49548,-16.89282,-2.4110799999999997,70.0
1774822646.8039744,0.005644798278808594,2026-03-29T22:17:26.803,2026-03-29T18:17:26.803,-33917.354999999996,-46477.755,-84460.05,-49729.814999999995,-12815.01,-17788.364999999998,6383.25,-47857.994999999995,4.281751084690484,1.0015394124673374,1.0124305547992083,-1.0796278204049454,0.2731148337951232,1.3043250175385606,0.3660761344341178,4.868670662578983,0.22412052,-0.15905721,0.940122105,1.49548,-16.89282,-2.4110799999999997,70.0
1774822646.8039947,2.0265579223632812e-05,2026-03-29T22:17:26.803,2026-03-29T18:17:26.803,-33909.84,-46477.439999999995,-84471.705,-49755.06,-12832.019999999999,-17794.844999999998,6385.7699999999995,-47837.655,0.5126556419465018,3.167556169702502,2.7626618733153188,-2.409725808428471,2.0111743038072643,8.37783773343549,7.019024559609627,1.4469364649833412,0.22412052,-0.15905721,0.940122105,1.49548,-16.89282,-2.4110799999999997,70.0
1774822646.8062487,0.002254009246826172,2026-03-29T22:17:26.806,2026-03-29T18:17:26.806,-33900.93,-46484.955,-84492.765,-49783.005,-12863.43,-17823.329999999998,6381.0,-47815.29,-3.238339576601204,3.8376798107742167,3.1147319128882494,-2.7379770833498744,2.7506112591867935,11.63523718296113,10.333193991910925,-2.4192082547713682,0.23535096,-0.169250055,0.942319365,3.9828599999999996,-13.68822,-3.26564,70.0
1774822646.8062792,3.0517578125e-05,2026-03-29T22:17:26.806,2026-03-29T18:17:26.806,-33892.56,-46479.555,-84479.76,-49766.49,-12852.9,-17814.87,6380.099999999999,-47794.32,-5.231655462056972,2.778834412434479,2.034654002583522,-1.9555920573992138,2.0870678978109716,9.42681975193936,8.937288485223227,-4.862909926814507,0.23535096,-0.169250055,0.942319365,3.9828599999999996,-13.68822,-3.26564,70.0
1774822646.8107195,0.0044403076171875,2026-03-29T22:17:26.810,2026-03-29T18:17:26.810,-33887.61,-46479.465,-84478.905,-49761.405,-12848.625,-17813.7,6379.11,-47769.705,-4.67319290622899,0.5343583973303457,0.13683778929468504,-0.4164337372040576,0.3132222421219927,2.6721820789629067,3.6275132412901283,-4.823576656661625,0.23535096,-0.169250055,0.942319365,3.9828599999999996,-13.68822,-3.26564,70.0
1774822646.8107505,3.0994415283203125e-05,2026-03-29T22:17:26.810,2026-03-29T18:17:26.810,-33883.065,-46479.24,-84480.795,-49761.72,-12849.39,-17820.09,6364.889999999999,-47750.715,-2.0270120813347585,-1.8513495861008025,-1.6493877022515298,1.2290644924807055,-1.7072433656116623,-5.5183572766395255,-3.074975343115489,-2.513128328550307,0.23535096,-0.169250055,0.942319365,3.9828599999999996,-13.68822,-3.26564,70.0
1774822646.8191218,0.008371353149414062,2026-03-29T22:17:26.819,2026-03-29T18:17:26.819,-33885.945,-46479.689999999995,-84476.025,-49754.295,-12840.39,-17812.215,6359.535,-47734.515,1.29849814663901,-3.3171423668273525,-2.52656151345632,2.318705269744599,-2.9525477063460626,-11.278140332459637,-8.13134127213852,0.7719623132733497,0.23535096,-0.169250055,0.942319365,3.9828599999999996,-13.68822,-3.26564,70.0
1774822646.8191397,1.7881393432617188e-05,2026-03-29T22:17:26.819,2026-03-29T18:17:26.819,-33886.89,-46485.09,-84480.84,-49757.04,-12841.154999999999,-17809.11,6366.78,-47713.049999999996,3.6971025966641706,-3.2542519623778197,-2.1772129585012814,2.4526708848533776,-2.7477385017249047,-11.81132554325573,-9.374023001592567,3.363348647068871,0.23535096,-0.169250055,0.942319365,3.9828599999999996,-13.68822,-3.26564,70.0
1774822646.8191612,2.1457672119140625e-05,2026-03-29T22:17:26.819,2026-03-29T18:17:26.819,-33875.549999999996,-46489.229999999996,-84494.655,-49774.77,-12859.83,-17827.38,6374.25,-47683.799999999996,4.149224620691465,-1.7542590370439415,-0.8651025576654956,1.6393401872527054,-1.1162851918509573,-6.747995198494244,-6.4375263243695855,4.071863633721855,0.23535096,-0.169250055,0.942319365,3.9828599999999996,-13.68822,-3.26564,70.0
1774822646.8191662,5.0067901611328125e-06,2026-03-29T22:17:26.819,2026-03-29T18:17:26.819,-33862.229999999996,-46485.54,-84492.765,-49771.034999999996,-12854.925,-17824.094999999998,6379.425,-47657.97,2.6573441785374223,0.4622188879189464,0.7337195088007503,0.25955829495138255,1.1998729900294975,1.6292218579303896,-0.8313589730925146,2.7411519685289956,0.23535096,-0.169250055,0.942319365,3.9828599999999996,-13.68822,-3.26564,70.0
1774822646.8257587,0.006592512130737305,2026-03-29T22:17:26.825,2026-03-29T18:17:26.825,-33844.905,-46486.034999999996,-84503.745,-49784.715,-12869.414999999999,-17842.815,6357.285,-47631.915,0.14546050243760245,2.389316581239949,1.8698428393449689,-1.1196371225163348,3.074435668803113,9.417090778950973,4.833247613811575,0.2425038446390717,0.23535096,-0.169250055,0.942319365,3.9828599999999996,-13.68822,-3.26564,70.0
1774822646.8257775,1.8835067749023438e-05,2026-03-29T22:17:26.825,2026-03-29T18:17:26.825,-33839.28,-46485.27,-84501.09,-49783.409999999996,-12869.189999999999,-17847.0,6339.87,-47605.59,-2.0833626309553943,3.1888981110142445,2.0626810531539936,-1.9875121921164338,3.5358880186884782,12.914268571532254,8.067261348084859,-2.0510383842728226,0.23535096,-0.169250055,0.942319365,3.9828599999999996,-13.68822,-3.26564,70.0
1774822646.8257985,2.09808349609375e-05,2026-03-29T22:17:26.825,2026-03-29T18:17:26.825,-33856.92,-46486.305,-84492.81,-49767.975,-12852.855,-17830.665,6349.7699999999995,-47599.74,-3.0230836863334143,2.5503173070760488,1.2935527352840586,-2.079687395475774,2.256826755102262,10.381264123509967,7.601288852975882,-3.008118528632959,0.25305111,-0.19580028,0.956723625,13.13886,-8.97288,-3.9828599999999996,70.0
1774822646.8258033,4.76837158203125e-06,2026-03-29T22:17:26.825,2026-03-29T18:17:26.825,-33849.18,-46489.68,-84502.665,-49778.415,-12859.019999999999,-17821.17,6370.38,-47576.115,-2.423368882706788,0.8051091504564335,-0.022326499381096928,-1.4439087479356731,-0.24797333160457113,2.900087924911207,3.8715087001048545,-2.3016016523160143,0.25305111,-0.19580028,0.956723625,13.13886,-8.97288,-3.9828599999999996,70.0
1774822646.8303745,0.004571199417114258,2026-03-29T22:17:26.830,2026-03-29T18:17:26.830,-33863.04,-46475.729999999996,-84470.175,-49758.795,-12844.664999999999,-17807.715,6389.37,-47571.39,-0.8195154689428595,-1.2420467762661966,-1.2531024920381009,-0.37464889411238966,-2.8255690776419105,-6.0894857519505505,-1.2842720480692071,-0.5084966798604292,0.25305111,-0.19580028,0.956723625,13.13886,-8.97288,-3.9828599999999996,70.0
1774822646.830405,3.0517578125e-05,2026-03-29T22:17:26.830,2026-03-29T18:17:26.830,-33860.79,-46478.52,-84477.465,-49767.39,-12860.505,-17843.805,6396.525,-47556.45,0.8396287173332005,-2.6809245288413686,-1.8455860325536804,0.7320777375177613,-4.211970183178878,-12.377770209170942,-5.5315154028917695,1.2757467026815619,0.25305111,-0.19580028,0.956723625,13.13886,-8.97288,-3.9828599999999996,70.0
1774822646.8349102,0.004505157470703125,2026-03-29T22:17:26.834,2026-03-29T18:17:26.834,-33846.435,-46473.479999999996,-84472.965,-49754.07,-12844.664999999999,-17844.84,6366.96,-47532.42,1.7327345375898744,-2.895505011812828,-1.5640390198545098,1.5282572823772558,-3.6430867085132497,-12.961300158007472,-7.099297609049711,2.0728896068641185,0.25305111,-0.19580028,0.956723625,13.13886,-8.97288,-3.9828599999999996,70.0
1774822646.83495,3.981590270996094e-05,2026-03-29T22:17:26.834,2026-03-29T18:17:26.834,-33836.715,-46459.439999999995,-84450.915,-49726.395,-12812.67,-17808.795,6355.665,-47512.799999999996,1.574725966114787,-1.8228381105643672,-0.5742187961993992,1.8090224707533173,-1.2576353939186953,-7.477124663745568,-5.5134009421308585,1.550131891294338,0.25305111,-0.19580028,0.956723625,13.13886,-8.97288,-3.9828599999999996,70.0
1774822646.8381772,0.00322723388671875,2026-03-29T22:17:26.838,2026-03-29T18:17:26.838,-33852.735,-46461.015,-84446.86499999999,-49718.924999999996,-12799.664999999999,-17773.92,6366.87,-47503.619999999995,0.6886754341133915,0.03512446564675199,0.651473229766319,1.535993853066232,1.9144533171452542,1.5901720338373229,-1.7022510079519362,0.1586327338102471,0.25305111,-0.19580028,0.956723625,13.13886,-8.97288,-3.9828599999999996,70.0
1774822646.8381984,2.1219253540039062e-05,2026-03-29T22:17:26.838,2026-03-29T18:17:26.838,-33845.4,-46474.38,-84477.645,-49752.765,-12825.045,-17773.605,6396.03,-47477.07,-0.2639811085404399,1.8439464969803434,1.554921963681136,0.8100320486762683,4.395508622459403,10.041488567849864,2.5210335991443706,-1.1751150416261322,0.25305111,-0.19580028,0.956723625,13.13886,-8.97288,-3.9828599999999996,70.0
1774822646.8514268,0.013228416442871094,2026-03-29T22:17:26.851,2026-03-29T18:17:26.851,-33845.49,-46484.145,-84484.305,-49758.03,-12832.965,-17786.835,6397.425,-47454.75,-0.7114874538786821,2.8069287289821165,1.7382467135896984,-0.17126846236475438,4.945674717939398,13.916579526106291,5.320129242827243,-1.6139565695207618,0.25305111,-0.19580028,0.956723625,13.13886,-8.97288,-3.9828599999999996,70.0
1774822646.851454,2.7179718017578125e-05,2026-03-29T22:17:26.851,2026-03-29T18:17:26.851,-33834.42,-46479.915,-84478.68,-49755.645,-12836.43,-17799.93,6392.88,-47431.305,-0.5001197590482899,2.511179526805688,1.1304908607831652,-1.1499660130029012,3.1739484012713723,11.355218992127014,5.631794125643247,-0.9032232628097189,0.25305111,-0.19580028,0.956723625,13.13886,-8.97288,-3.9828599999999996,70.0
1774822646.8514822,2.8133392333984375e-05,2026-03-29T22:17:26.851,2026-03-29T18:17:26.851,-33818.49,-46473.975,-84485.52,-49768.695,-12852.765,-17824.005,6373.665,-47405.205,0.06055329825987024,1.1016681668307093,0.009503374396949675,-1.8431064365420249,-0.22331273491667697,3.488722165059618,3.553390347178287,0.48740829195336616,0.257140455,-0.200499975,0.97228755,17.12172,-5.60042,-0.32045999999999997,70.0
1774822646.851494,1.1920928955078125e-05,2026-03-29T22:17:26.851,2026-03-29T18:17:26.851,-33805.17,-46469.34,-84483.98999999999,-49766.715,-12852.18,-17836.38,6350.445,-47375.055,0.44381223303911566,-0.7886731143201634,-1.1244648664399493,-1.9975185667780082,-3.7317162170350584,-6.06548486083494,0.1902585781290127,1.6504012736286366,0.257140455,-0.200499975,0.97228755,17.12172,-5.60042,-0.32045999999999997,70.0
1774822646.8515093,1.52587890625e-05,2026-03-29T22:17:26.851,2026-03-29T18:17:26.851,-33801.479999999996,-46477.799999999996,-84495.105,-49772.655,-12847.365,-17822.655,6373.485,-47345.85,0.278937590089036,-2.319808840420939,-1.766876749803854,-1.4739793660166856,-5.694914025971262,-12.878356534456936,-2.9178914707085597,1.7883593826730906,0.257140455,-0.200499975,0.97228755,17.12172,-5.60042,-0.32045999999999997,70.0
1774822646.8515203,1.0967254638671875e-05,2026-03-29T22:17:26.851,2026-03-29T18:17:26.851,-33824.07,-46492.064999999995,-84492.405,-49762.845,-12830.49,-17797.23,6390.45,-47333.07,-0.3846199271742406,-2.813653196683188,-1.6266878204610864,-0.3386103170079455,-5.09584119921713,-13.77314945617538,-4.499192101143834,0.7071540706463785,0.257140455,-0.200499975,0.97228755,17.12172,-5.60042,-0.32045999999999997,70.0
1774822646.8590271,0.007506847381591797,2026-03-29T22:17:26.859,2026-03-29T18:17:26.859,-33837.93,-46494.945,-84495.42,-49776.57,-12859.74,-17834.04,6360.03,-47328.255,-1.0891385830570932,-2.0513521667720758,-0.7532344340067395,1.0913038819441747,-2.075070865791286,-8.31221544871304,-4.061800007673401,-1.0342333983926906,0.257140455,-0.200499975,0.97228755,17.12172,-5.60042,-0.32045999999999997,70.0
1774822646.8590572,3.0040740966796875e-05,2026-03-29T22:17:26.859,2026-03-29T18:17:26.859,-33853.77,-46487.564999999995,-84479.715,-49757.625,-12838.859999999999,-17814.555,6358.32,-47327.625,-1.2555247786611383,-0.36978720151252686,0.481111555271561,2.302191275696609,2.0751234312209053,0.9920797490095059,-2.014757839692394,-2.414566129018053,0.257140455,-0.200499975,0.97228755,17.12172,-5.60042,-0.32045999999999997,70.0
1774822646.85908,2.288818359375e-05,2026-03-29T22:17:26.859,2026-03-29T18:17:26.859,-33867.09,-46483.65,-84469.905,-49738.365,-12807.585,-17777.114999999998,6374.16,-47326.32,-0.5747372639671727,1.485388050595098,1.5371036213375475,2.7562998872829456,5.46485436170509,9.843415537015636,0.6103145316480587,-2.529912403654695,0.257140455,-0.200499975,0.97228755,17.12172,-5.60042,-0.32045999999999997,70.0
1774822646.8590908,1.0728836059570312e-05,2026-03-29T22:17:26.859,2026-03-29T18:17:26.859,-33841.395,-46479.15,-84471.84,-49739.4,-12806.955,-17772.434999999998,6384.96,-47287.619999999995,0.7381573283457941,2.687421942404141,1.940311688735616,2.131615759706168,6.47166517752648,14.159476656793938,2.6694024413710666,-1.1401789569576994,0.257140455,-0.200499975,0.97228755,17.12172,-5.60042,-0.32045999999999997,70.0
1774822646.8650057,0.005914926528930664,2026-03-29T22:17:26.865,2026-03-29T18:17:26.865,-33834.42,-46477.17,-84473.955,-49749.119999999995,-12828.015,-17803.395,6369.75,-47257.875,1.998486800018946,2.694534689129711,1.4912197587866591,0.5225668204496733,4.51914209308112,11.966772037830113,3.3998154022516576,1.1329824918093514,0.257140455,-0.200499975,0.97228755,17.12172,-5.60042,-0.32045999999999997,70.0
1774822646.865026,2.0265579223632812e-05,2026-03-29T22:17:26.865,2026-03-29T18:17:26.865,-33835.185,-46474.335,-84462.93,-49728.015,-12799.8,-17775.989999999998,6385.905,-47235.78,2.410162388637692,1.4933359611614632,0.36196001060994476,-1.5156593968847252,0.39441732327769985,4.307348550796147,2.6872090919896854,3.0893535608794123,0.257140455,-0.200499975,0.97228755,17.12172,-5.60042,-0.32045999999999997,70.0
1774822646.8650448,1.8835067749023438e-05,2026-03-29T22:17:26.865,2026-03-29T18:17:26.865,-33843.24,-46482.119999999995,-84464.415,-49727.159999999996,-12799.845,-17781.12,6391.755,-47215.71,1.5396469640589074,-0.389828988603043,-0.9672185735604025,-3.140699159906502,-4.066622695734344,-5.261694768023584,1.021616043762225,3.5829444334003733,0.245299665,-0.183532245,0.978330015,7.63,-7.034859999999999,-1.9075,70.0
1774822646.8650515,6.67572021484375e-06,2026-03-29T22:17:26.865,2026-03-29T18:17:26.865,-33832.35,-46477.53,-84471.345,-49751.28,-12847.095,-17854.649999999998,6358.7699999999995,-47192.805,-0.3664114654381356,-2.117994150582335,-1.9106807853613286,-3.5722378941237585,-6.80290573079044,-12.33404020105608,-0.7950273998920909,2.171233864983994,0.245299665,-0.183532245,0.978330015,7.63,-7.034859999999999,-1.9075,70.0
1774822646.870902,0.005850553512573242,2026-03-29T22:17:26.870,2026-03-29T18:17:26.870,-33815.744999999995,-46473.345,-84469.36499999999,-49739.445,-12838.68,-17848.17,6350.085,-47161.979999999996,-2.423674014618151,-2.9145641970938896,-2.0353026071920812,-2.472335737962073,-6.488956199051763,-13.699691352189062,-2.027882454098886,-0.5788058293134193,0.245299665,-0.183532245,0.978330015,7.63,-7.034859999999999,-1.9075,70.0
1774822646.870922,2.002716064453125e-05,2026-03-29T22:17:26.870,2026-03-29T18:17:26.870,-33810.84,-46472.759999999995,-84470.04,-49728.78,-12814.289999999999,-17806.86,6362.235,-47137.229999999996,-3.526080824078927,-2.412254764978944,-1.2601702097399128,-0.16932254531048332,-3.1814717859843538,-8.813457374040386,-2.298801914807122,-3.31790390745604,0.245299665,-0.183532245,0.978330015,7.63,-7.034859999999999,-1.9075,70.0
1774822646.879978,0.009055852890014648,2026-03-29T22:17:26.879,2026-03-29T18:17:26.879,-33809.4,-46469.88,-84472.065,-49745.744999999995,-12819.33,-17783.954999999998,6389.91,-47109.78,-2.936731443931849,-0.8228567582520172,0.09496200458632545,2.4119957161643533,1.6660379352987942,-0.009092370892555386,-1.6767579460431012,-4.583960672638422,0.245299665,-0.183532245,0.978330015,7.63,-7.034859999999999,-1.9075,70.0
1774822646.8799987,2.0742416381835938e-05,2026-03-29T22:17:26.879,2026-03-29T18:17:26.879,-33817.994999999995,-46479.195,-84483.62999999999,-49762.439999999995,-12839.445,-17809.155,6377.445,-47087.685,-0.7394413951676455,1.1514205919753435,1.4411153352464576,4.120229437394576,5.847286525831982,8.623737740751237,-0.5645563022481872,-3.578345698291522,0.245299665,-0.183532245,0.978330015,7.63,-7.034859999999999,-1.9075,70.0
1774822646.8800185,1.9788742065429688e-05,2026-03-29T22:17:26.880,2026-03-29T18:17:26.880,-33819.885,-46477.034999999996,-84476.87999999999,-49747.005,-12824.01,-17801.55,6364.8,-47066.85,2.1123409935760273,2.628770086390565,2.178557881674881,4.101122278680433,7.419049157246002,13.15637245429573,0.5318818331334872,-0.6385911069970815,0.245299665,-0.183532245,0.978330015,7.63,-7.034859999999999,-1.9075,70.0
1774822646.8800256,7.152557373046875e-06,2026-03-29T22:17:26.880,2026-03-29T18:17:26.880,-33804.315,-46462.59,-84456.94499999999,-49726.619999999995,-12797.73,-17771.309999999998,6370.695,-47035.575,4.212853342127972,2.9431189978396555,1.9680795874627108,2.2326214675593157,5.616332440402528,11.62628781524545,1.2284142271164873,2.86165643758411,0.245299665,-0.183532245,0.978330015,7.63,-7.034859999999999,-1.9075,70.0
1774822646.8828359,0.002810239791870117,2026-03-29T22:17:26.882,2026-03-29T18:17:26.882,-33801.255,-46469.159999999996,-84477.105,-49756.409999999996,-12829.545,-17800.965,6371.19,-47004.57,4.402762818623444,1.94581961935235,0.8901683216238935,-0.7533804359421838,1.2304394919342447,4.8932389780806025,1.384303501877211,5.163894310207568,0.245299665,-0.183532245,0.978330015,7.63,-7.034859999999999,-1.9075,70.0
1774822646.8828676,3.170967102050781e-05,2026-03-29T22:17:26.882,2026-03-29T18:17:26.882,-33814.845,-46483.83,-84489.48,-49765.005,-12839.58,-17811.27,6386.49,-46985.22,2.399193710224016,0.07586677121497407,-0.5848210601977805,-3.552298047007058,-3.7398958409280447,-3.830528279164112,1.089856750273532,5.01402515926444,0.245299665,-0.183532245,0.978330015,7.63,-7.034859999999999,-1.9075,70.0
1774822646.8879807,0.005113124847412109,2026-03-29T22:17:26.887,2026-03-29T18:17:26.887,-33808.905,-46478.07,-84477.645,-49750.064999999995,-12824.55,-17798.13,6391.9349999999995,-46958.085,-0.9816191593450421,-1.8350836862780715,-1.8059060235504834,-4.866894855998151,-7.010704271786528,-10.524868023044082,0.5586723449509176,2.337435983635551,0.250182465,-0.169738335,0.9741186000000001,-0.48832,-5.38678,-1.89224,70.0
1774822646.8880036,2.288818359375e-05,2026-03-29T22:17:26.888,2026-03-29T18:17:26.888,-33807.24,-46478.295,-84477.465,-49750.83,-12825.269999999999,-17801.82,6385.905,-46933.92,-4.155607157051579,-2.9357969643146613,-2.2357014592652513,-4.023977530159496,-7.078335182585136,-12.233786201821085,0.0007374541989981103,-1.6602561823903221,0.250182465,-0.169738335,0.9741186000000001,-0.48832,-5.38678,-1.89224,70.0
1774822646.8908064,0.0028028488159179688,2026-03-29T22:17:26.890,2026-03-29T18:17:26.890,-33809.174999999996,-46488.869999999995,-84489.39,-49753.53,-12828.96,-17808.704999999998,6380.865,-46908.314999999995,-5.521893624530855,-2.737702699874773,-1.6933595875882828,-1.3278634759543544,-3.9242098885774253,-8.384738109494416,-0.4552895751389266,-5.04407543235625,0.250182465,-0.169738335,0.9741186000000001,-0.48832,-5.38678,-1.89224,70.0
1774822646.8908331,2.6702880859375e-05,2026-03-29T22:17:26.890,2026-03-29T18:17:26.890,-33805.17,-46488.915,-84492.045,-49758.705,-12835.08,-17817.704999999998,6376.1849999999995,-46882.305,-4.27305307022298,-1.3327980254524903,-0.4327683920856056,2.0383354103710025,0.9779589648027983,-0.9596141208692438,-0.7647378929723899,-6.09652728970792,0.250182465,-0.169738335,0.9741186000000001,-0.48832,-5.38678,-1.89224,70.0
1774822646.8945134,0.0036802291870117188,2026-03-29T22:17:26.894,2026-03-29T18:17:26.894,-33792.975,-46478.744999999995,-84491.28,-49783.409999999996,-12856.68,-17833.364999999998,6368.76,-46852.74,-0.8530061221875076,0.6510176209275863,0.9796860355766206,4.539385585670688,5.357867427807739,6.521393047850198,-0.9180152573697895,-4.192421319355104,0.250182465,-0.169738335,0.9741186000000001,-0.48832,-5.38678,-1.89224,70.0
1774822646.8945346,2.1219253540039062e-05,2026-03-29T22:17:26.894,2026-03-29T18:17:26.894,-33797.07,-46475.82,-84473.325,-49752.09,-12820.05,-17798.13,6360.48,-46827.27,3.1902832303281508,2.335085682480371,1.9281166492876565,5.005081628149019,7.216263539212143,10.684319155843735,-0.8915379792605155,-0.15476491160919836,0.250182465,-0.169738335,0.9741186000000001,-0.48832,-5.38678,-1.89224,70.0
1774822646.9006872,0.006152629852294922,2026-03-29T22:17:26.900,2026-03-29T18:17:26.900,-33803.82,-46482.345,-84473.775,-49743.09,-12805.965,-17780.67,6364.8,-46800.314999999995,5.914301539376199,2.9840965783114615,2.025032638469534,3.195377476820241,5.755493103589679,9.841771901289949,-0.6423636230650392,4.105232478100071,0.250182465,-0.169738335,0.9741186000000001,-0.48832,-5.38678,-1.89224,70.0
1774822646.9007037,1.6450881958007812e-05,2026-03-29T22:17:26.900,2026-03-29T18:17:26.900,-33802.155,-46485.72,-84495.06,-49780.845,-12856.769999999999,-17841.78,6352.155,-46776.869999999995,5.923875556133764,2.329790116138638,1.2739170823381476,-0.06720487877398237,1.7315159178113657,4.677285467216672,-0.15436920739441287,6.504181699925035,0.250182465,-0.169738335,0.9741186000000001,-0.48832,-5.38678,-1.89224,70.0
1774822646.900725,2.1219253540039062e-05,2026-03-29T22:17:26.900,2026-03-29T18:17:26.900,-33812.369999999995,-46488.284999999996,-84490.155,-49768.92,-12838.275,-17814.69,6376.724999999999,-46755.945,3.0845149280666817,0.6800204973562748,0.04533519298418687,-3.2740348607469,-2.9332028663341507,-2.2044602054899,0.4974846699718055,5.814170638585649,0.250182465,-0.169738335,0.9741186000000001,-0.48832,-5.38678,-1.89224,70.0
1774822646.9007325,7.62939453125e-06,2026-03-29T22:17:26.900,2026-03-29T18:17:26.900,-33815.025,-46491.39,-84496.275,-49771.575,-12836.744999999999,-17807.579999999998,6386.085,-46728.36,-1.3572701179580677,-1.230572984751433,-1.1125223008113942,-4.942569190391646,-6.079645035108218,-7.5924320516894905,1.118750221091238,2.2912126719448183,0.250182465,-0.169738335,0.9741186000000001,-0.48832,-5.38678,-1.89224,70.0
1774822646.915372,0.01463937759399414,2026-03-29T22:17:26.915,2026-03-29T18:17:26.915,-33828.119999999995,-46501.695,-84506.895,-49779.765,-12839.22,-17808.165,6378.21,-46705.365,-5.328463452802496,-2.574146654576623,-1.7297119726597936,-4.321673917613978,-6.330445055058293,-9.1851571718902,1.4423306432485954,-2.4171058109699257,0.272399205,-0.160827225,0.965756805,5.70724,-1.0224199999999999,-1.38866,70.0
1774822646.9154027,3.075599670410156e-05,2026-03-29T22:17:26.915,2026-03-29T18:17:26.915,-33833.43,-46496.88,-84498.39,-49774.32,-12841.56,-17819.28,6373.08,-46685.924999999996,-6.908296245176744,-2.7928737056360964,-1.612035143732476,-1.7455533264752332,-3.707613235502824,-6.584302877144147,1.2463614511004237,-6.052576445852387,0.272399205,-0.160827225,0.965756805,5.70724,-1.0224199999999999,-1.38866,70.0
1774822646.9154365,3.3855438232421875e-05,2026-03-29T22:17:26.915,2026-03-29T18:17:26.915,-33814.215,-46479.33,-84488.44499999999,-49770.314999999995,-12845.789999999999,-17833.77,6361.155,-46656.585,-5.263623011019348,-1.8299095254589388,-0.893014124650365,1.5379247859171306,0.43467594534274445,-1.3316221725587651,0.4901555385325588,-6.840716059435739,0.272399205,-0.160827225,0.965756805,5.70724,-1.0224199999999999,-1.38866,70.0
1774822646.9154491,1.2636184692382812e-05,2026-03-29T22:17:26.915,2026-03-29T18:17:26.915,-33805.215,-46468.17,-84472.29,-49750.424999999996,-12820.994999999999,-17808.66,6366.42,-46627.02,-1.0823005129704883,-0.13247740421622106,0.06831998817322207,3.979323615607545,4.107737903481275,3.963277797262502,-0.6095736817103724,-4.362964037525312,0.272399205,-0.160827225,0.965756805,5.70724,-1.0224199999999999,-1.38866,70.0
1774822646.9154637,1.4543533325195312e-05,2026-03-29T22:17:26.915,2026-03-29T18:17:26.915,-33797.295,-46456.784999999996,-84453.03,-49722.03,-12785.355,-17769.825,6396.21,-46585.979999999996,3.7186825951503404,1.5625209664289708,0.8760348570749603,4.476600082197359,5.657685430647077,6.925489213001495,-1.6224260808396753,0.22468246541525994,0.272399205,-0.160827225,0.965756805,5.70724,-1.0224199999999999,-1.38866,70.0
1774822646.9154747,1.0967254638671875e-05,2026-03-29T22:17:26.915,2026-03-29T18:17:26.915,-33796.619999999995,-46462.77,-84458.83499999999,-49727.79,-12792.375,-17770.094999999998,6421.545,-46546.47,6.884017821163376,2.554687907245877,1.2697639948458859,2.890977373427956,4.527552445902802,6.494935574449853,-2.0720139819480137,4.739278299400677,0.272399205,-0.160827225,0.965756805,5.70724,-1.0224199999999999,-1.38866,70.0
1774822646.9233315,0.00785684585571289,2026-03-29T22:17:26.923,2026-03-29T18:17:26.923,-33816.015,-46483.38,-84475.845,-49747.229999999996,-12810.779999999999,-17785.035,6392.745,-46525.409999999996,6.890025770982867,2.4704730675911284,1.2006496619597649,0.07957956412159158,1.4526982343252768,3.2856893466890624,-1.6631107126913647,7.021308767934367,0.272399205,-0.160827225,0.965756805,5.70724,-1.0224199999999999,-1.38866,70.0
1774822646.923348,1.6450881958007812e-05,2026-03-29T22:17:26.923,2026-03-29T18:17:26.923,-33809.04,-46482.345,-84493.665,-49781.564999999995,-12849.164999999999,-17833.094999999998,6351.255,-46499.085,3.6811004782070005,1.39657816184551,0.7926906919639324,-2.560268176038881,-1.9771678085843123,-0.886162524843717,-0.4592749735416701,5.976928542858628,0.272399205,-0.160827225,0.965756805,5.70724,-1.0224199999999999,-1.38866,70.0
1774822646.9233718,2.384185791015625e-05,2026-03-29T22:17:26.923,2026-03-29T18:17:26.923,-33812.235,-46475.909999999996,-84481.065,-49762.485,-12825.539999999999,-17811.945,6365.835,-46478.205,-1.284825121190711,-0.18711105559272403,0.23584826410094045,-3.7952981578737126,-4.140986837213435,-4.001387175609955,1.0902484223766291,2.104788142596414,0.272399205,-0.160827225,0.965756805,5.70724,-1.0224199999999999,-1.38866,70.0
1774822646.923378,6.198883056640625e-06,2026-03-29T22:17:26.923,2026-03-29T18:17:26.923,-33817.365,-46473.03,-84475.665,-49756.68,-12822.119999999999,-17813.024999999998,6375.96,-46459.845,-5.7098398799482215,-1.6292994263337994,-0.3131369721378469,-3.149814443394758,-4.167607657883596,-4.824146432990641,2.3122973824760495,-2.747341701065423,0.272399205,-0.160827225,0.965756805,5.70724,-1.0224199999999999,-1.38866,70.0
1774822646.9279687,0.004590749740600586,2026-03-29T22:17:26.927,2026-03-29T18:17:26.927,-33819.84,-46479.78,-84490.47,-49781.475,-12855.015,-17850.645,6356.16,-46432.439999999995,-7.532037212287638,-2.3777879510651867,-0.7659546243393048,-1.0948805224695068,-2.2918324726091193,-3.389932316207759,2.605694168751369,-6.274790055728706,0.299132535,-0.14550744000000002,0.95593017,11.20084,2.53316,-5.5699,70.0
1774822646.927988,1.9311904907226562e-05,2026-03-29T22:17:26.927,2026-03-29T18:17:26.927,-33823.485,-46485.9,-84495.95999999999,-49778.28,-12844.17,-17831.79,6354.179999999999,-46407.15,-5.8940713023263385,-2.1847657137364296,-1.0707809514482338,1.2459015245837703,0.3635078657504807,-0.8031190838710132,1.740208149930987,-6.8212684712060385,0.299132535,-0.14550744000000002,0.95593017,11.20084,2.53316,-5.5699,70.0
1774822646.93053,0.0025420188903808594,2026-03-29T22:17:26.930,2026-03-29T18:17:26.930,-33830.909999999996,-46497.24,-84510.045,-49773.96,-12834.539999999999,-17818.155,6363.315,-46380.645,-1.5456113685004393,-1.1739041043853604,-1.1604042422314058,2.703250622620853,2.4294038055825355,1.4779677651093495,0.009145460851904354,-4.162180372904013,0.299132535,-0.14550744000000002,0.95593017,11.20084,2.53316,-5.5699,70.0
1774822646.9305549,2.47955322265625e-05,2026-03-29T22:17:26.930,2026-03-29T18:17:26.930,-33822.99,-46506.06,-84517.515,-49757.13,-12819.015,-17809.065,6370.514999999999,-46341.045,3.508859463937012,0.2386912726835454,-0.9415372052752288,2.6562224071231397,2.9995574448326017,2.4417830638847313,-1.857505222536821,0.4070339796575451,0.299132535,-0.14550744000000002,0.95593017,11.20084,2.53316,-5.5699,70.0
1774822646.9352062,0.004651308059692383,2026-03-29T22:17:26.935,2026-03-29T18:17:26.935,-33823.575,-46491.795,-84495.19499999999,-49748.625,-12810.824999999999,-17804.34,6364.485,-46306.125,6.947165216120903,1.52019627373747,-0.3536000280819662,1.3071194321722628,2.0375815970112487,1.9778117623046483,-3.002041879063707,4.709709918761025,0.299132535,-0.14550744000000002,0.95593017,11.20084,2.53316,-5.5699,70.0
1774822646.9352183,1.2159347534179688e-05,2026-03-29T22:17:26.935,2026-03-29T18:17:26.935,-33825.69,-46461.735,-84462.165,-49765.994999999995,-12826.215,-17806.905,6354.63,-46282.905,7.207199952925376,2.2167822350097337,0.5336016140113823,-0.4898254735598575,0.2946112661230999,0.777269919258468,-2.839430310788063,6.735295736221231,0.299132535,-0.14550744000000002,0.95593017,11.20084,2.53316,-5.5699,70.0
1774822646.938622,0.0034036636352539062,2026-03-29T22:17:26.938,2026-03-29T18:17:26.938,-33813.765,-46472.939999999995,-84489.795,-49798.979999999996,-12856.095,-17829.495,6352.605,-46241.325,4.199991259761414,2.100234579331517,1.4588732657505337,-1.7324763806505095,-1.1805167598012756,-0.20552177481683173,-1.3599201657362365,5.586362519891833,0.299132535,-0.14550744000000002,0.95593017,11.20084,2.53316,-5.5699,70.0
1774822646.9386508,2.8848648071289062e-05,2026-03-29T22:17:26.938,2026-03-29T18:17:26.938,-33832.305,-46482.705,-84490.245,-49781.7,-12838.005,-17815.68,6378.4349999999995,-46220.805,-0.6690064206061126,1.226836116288903,2.0174810831654497,-1.8213524423026901,-1.644178885380558,-0.3797459008592405,0.823642719367968,1.8757347613105178,0.299132535,-0.14550744000000002,0.95593017,11.20084,2.53316,-5.5699,70.0
1774822646.942852,0.004201173782348633,2026-03-29T22:17:26.942,2026-03-29T18:17:26.942,-33855.615,-46480.005,-84473.595,-49758.21,-12813.345,-17793.855,6398.1449999999995,-46218.78,-5.168448256308914,-0.09540940173089163,1.8321251781477532,-0.8567445003159122,-1.036552920754814,0.14482162516958624,2.7274827386759,-2.6014908853871384,0.299132535,-0.14550744000000002,0.95593017,11.20084,2.53316,-5.5699,70.0
1774822646.942872,2.002716064453125e-05,2026-03-29T22:17:26.942,2026-03-29T18:17:26.942,-33835.095,-46473.119999999995,-84471.345,-49757.534999999996,-12815.685,-17800.695,6388.92,-46187.369999999995,-7.276158721005562,-1.4103229795571173,0.7783155932639365,0.4686146257028894,0.058845439144911214,0.6969972690590951,3.4459353338662226,-5.745020934630742,0.299132535,-0.14550744000000002,0.95593017,11.20084,2.53316,-5.5699,70.0
1774822646.946592,0.0037200450897216797,2026-03-29T22:17:26.946,2026-03-29T18:17:26.946,-33819.93,-46467.54,-84468.78,-49754.52,-12812.625,-17798.265,6388.335,-46150.604999999996,-6.094758094120028,-2.2557174913859153,-0.8620868970439474,1.3048852089587173,0.8255157356392421,0.5539287308183768,2.590737358853365,-6.14293111474338,0.32751381,-0.131408355,0.958676745,9.03392,8.82028,-7.0196,70.0
1774822646.9466147,2.2649765014648438e-05,2026-03-29T22:17:26.946,2026-03-29T18:17:26.946,-33820.335,-46470.555,-84476.34,-49762.305,-12819.375,-17802.989999999998,6390.224999999999,-46124.729999999996,-2.2300859833997406,-2.309313925641176,-2.43492438435098,1.1519493935839142,0.7376833784454859,-0.5084850147882033,0.50417657417155,-3.7078035836598393,0.32751381,-0.131408355,0.958676745,9.03392,8.82028,-7.0196,70.0
1774822646.951256,0.004641294479370117,2026-03-29T22:17:26.951,2026-03-29T18:17:26.951,-33819.885,-46471.86,-84485.25,-49772.025,-12829.455,-17811.315,6383.16,-46101.24,2.525075863472125,-1.502895793440694,-3.1658365707822176,0.1469749876820658,-0.11550150485730241,-1.98087676684835,-1.8717221633290015,0.3319225040969839,0.32751381,-0.131408355,0.958676745,9.03392,8.82028,-7.0196,70.0
1774822646.951276,2.002716064453125e-05,2026-03-29T22:17:26.951,2026-03-29T18:17:26.951,-33816.33,-46470.33,-84481.37999999999,-49766.4,-12822.885,-17804.52,6378.165,-46079.369999999995,6.034863363074371,-0.06969796883621575,-2.538798936978819,-1.0291697798301718,-1.0948036507840297,-2.8706195828652237,-3.423997641968553,4.056116848259612,0.32751381,-0.131408355,0.958676745,9.03392,8.82028,-7.0196,70.0
1774822646.9547076,0.003431558609008789,2026-03-29T22:17:26.954,2026-03-29T18:17:26.954,-33814.575,-46473.165,-84483.54,-49767.615,-12823.019999999999,-17802.675,6383.34,-46053.72,6.7890151302532065,1.502392578576261,-0.6171493337481481,-1.5695598453764457,-1.4234139559437615,-2.311968019341218,-3.3992060333205307,5.773433205798431,0.32751381,-0.131408355,0.958676745,9.03392,8.82028,-7.0196,70.0
1774822646.954733,2.5272369384765625e-05,2026-03-29T22:17:26.954,2026-03-29T18:17:26.954,-33818.76,-46478.7,-84491.055,-49775.805,-12832.65,-17812.89,6381.045,-46032.93,4.552705352843137,2.6172398627601257,1.8802727774312642,-1.0396301293038597,-0.6994368086240044,-0.18000001154096615,-1.7790117634008136,4.793147054822372,0.32751381,-0.131408355,0.958676745,9.03392,8.82028,-7.0196,70.0
1774822646.9604194,0.005686521530151367,2026-03-29T22:17:26.960,2026-03-29T18:17:26.960,-33817.14,-46476.494999999995,-84490.515,-49775.805,-12833.775,-17817.03,6372.8099999999995,-46012.14,0.4181485879689641,2.785208954524489,3.833279451495951,0.3355782070842981,0.8029192329829602,2.6776833004177045,0.6902885583617845,1.6944788110986257,0.32751381,-0.131408355,0.958676745,9.03392,8.82028,-7.0196,70.0
1774822646.96044,2.0503997802734375e-05,2026-03-29T22:17:26.960,2026-03-29T18:17:26.960,-33816.96,-46473.255,-84485.47499999999,-49767.84,-12824.189999999999,-17807.805,6368.535,-45992.564999999995,-3.7372158377516,1.83575485000569,4.22429038894799,1.7699935834652878,2.237558872800988,4.779316876662783,2.841331663471658,-2.0064300023092834,0.32751381,-0.131408355,0.958676745,9.03392,8.82028,-7.0196,70.0
1774822646.9630363,0.0025963783264160156,2026-03-29T22:17:26.963,2026-03-29T18:17:26.963,-33823.08,-46480.005,-84493.08,-49775.805,-12831.615,-17814.239999999998,6365.745,-45972.765,-6.113696533002611,0.03687563547181254,2.6649443273429516,2.35656955180753,2.656509014987328,4.781891787067035,3.644633050688062,-4.603907065606444,0.32751381,-0.131408355,0.958676745,9.03392,8.82028,-7.0196,70.0
1774822646.9630668,3.0517578125e-05,2026-03-29T22:17:26.963,2026-03-29T18:17:26.963,-33832.215,-46484.369999999995,-84489.165,-49773.195,-12832.515,-17817.93,6363.224999999999,-45955.619999999995,-5.771989021375421,-1.951819339201398,-0.3259967301781781,1.605832479115204,1.5873178172503573,2.2841322078057886,2.7124522445447674,-4.9934527567363824,0.32751381,-0.131408355,0.958676745,9.03392,8.82028,-7.0196,70.0
1774822646.9665103,0.003443479537963867,2026-03-29T22:17:26.966,2026-03-29T18:17:26.966,-33831.045,-46482.93,-84489.48,-49774.545,-12833.73,-17824.905,6367.139999999999,-45935.729999999996,-2.993752806263667,-3.3059614828933594,-3.4695370581250486,-0.22576577283122642,-0.6183886479517443,-1.801960564111655,0.49633381298516416,-3.137070717287763,0.335265255,-0.120544125,0.969296835,-4.6085199999999995,16.587619999999998,-10.57518,70.0
1774822646.9665349,2.4557113647460938e-05,2026-03-29T22:17:26.966,2026-03-29T18:17:26.966,-33822.18,-46480.455,-84494.025,-49779.405,-12838.68,-17835.57,6371.775,-45912.42,0.912038833885228,-3.374360722518536,-5.274030310884256,-2.2188307229756035,-2.888725515328776,-5.570919735570291,-1.9265521350651988,-0.009803373641057732,0.335265255,-0.120544125,0.969296835,-4.6085199999999995,16.587619999999998,-10.57518,70.0
1774822646.9854486,0.018913745880126953,2026-03-29T22:17:26.985,2026-03-29T18:17:26.985,-33813.135,-46475.955,-84493.98,-49781.564999999995,-12844.529999999999,-17844.434999999998,6366.96,-45888.84,4.234882591032605,-1.9917336790530815,-4.749151711516057,-3.26137034071113,-3.9645751483763263,-7.030625022477362,-3.3795311953543012,2.9118646965044657,0.335265255,-0.120544125,0.969296835,-4.6085199999999995,16.587619999999998,-10.57518,70.0
1774822646.985477,2.8371810913085938e-05,2026-03-29T22:17:26.985,2026-03-29T18:17:26.985,-33799.229999999996,-46464.165,-84481.875,-49765.77,-12825.269999999999,-17816.94,6371.28,-45862.92,5.6174895192990295,0.3838846933083615,-1.9417148030415843,-2.662438364259302,-3.091827377707867,-5.156729004452438,-3.167084472584495,4.351412388221748,0.335265255,-0.120544125,0.969296835,-4.6085199999999995,16.587619999999998,-10.57518,70.0
1774822646.9855063,2.9325485229492188e-05,2026-03-29T22:17:26.985,2026-03-29T18:17:26.985,-33793.11,-46461.915,-84482.955,-49768.29,-12822.615,-17810.46,6374.835,-45836.865,4.6038584430582725,2.8009069260797075,1.993895604552217,-0.5728940594284664,-0.49473482657958184,-0.536478684062611,-1.419714836848803,3.788243426215077,0.335265255,-0.120544125,0.969296835,-4.6085199999999995,16.587619999999998,-10.57518,70.0
1774822646.9855187,1.239776611328125e-05,2026-03-29T22:17:26.985,2026-03-29T18:17:26.985,-33814.17,-46462.905,-84458.97,-49734.765,-12787.019999999999,-17779.545,6375.014999999999,-45828.225,1.7630469128923545,4.188895526132167,5.267520017423622,2.0317118151215254,2.650302370520904,4.7797139654442775,0.9730165031710979,1.627229409914367,0.335265255,-0.120544125,0.969296835,-4.6085199999999995,16.587619999999998,-10.57518,70.0
1774822646.9855337,1.5020370483398438e-05,2026-03-29T22:17:26.985,2026-03-29T18:17:26.985,-33832.08,-46474.604999999996,-84466.62,-49746.195,-12803.939999999999,-17791.92,6378.4349999999995,-45814.994999999995,-1.6266995344367525,3.834455666307772,6.276421631034188,3.820939590287264,4.762796264261065,8.205640213403315,2.811136313701919,-1.0611432402211962,0.335265255,-0.120544125,0.969296835,-4.6085199999999995,16.587619999999998,-10.57518,70.0
1774822646.9855447,1.0967254638671875e-05,2026-03-29T22:17:26.985,2026-03-29T18:17:26.985,-33824.97,-46472.265,-84482.37,-49771.53,-12825.855,-17799.21,6381.585,-45793.935,-4.159795686448315,1.7459627552663408,4.397263509808269,3.7995473878970314,4.665915482277845,7.8981094139939065,3.189938415384042,-3.072973726464768,0.335265255,-0.120544125,0.969296835,-4.6085199999999995,16.587619999999998,-10.57518,70.0
1774822646.9855585,1.3828277587890625e-05,2026-03-29T22:17:26.985,2026-03-29T18:17:26.985,-33819.795,-46473.57,-84484.305,-49767.525,-12810.96,-17779.995,6400.3949999999995,-45774.314999999995,-4.883186637395995,-1.2787493104138499,0.35216297085133275,1.855773883933564,2.235713753246851,3.746265094712802,1.9553813017021633,-3.609930683203418,0.335265255,-0.120544125,0.969296835,-4.6085199999999995,16.587619999999998,-10.57518,70.0
1774822646.9855697,1.1205673217773438e-05,2026-03-29T22:17:26.985,2026-03-29T18:17:26.985,-33813.945,-46477.89,-84494.47499999999,-49777.2,-12818.43,-17790.885,6383.429999999999,-45752.805,-3.6368259823750146,-3.9465659820026264,-4.0596883111878155,-1.1323290523828287,-1.4637503998519228,-2.4582080653412697,-0.22417836430460952,-2.5839394878787694,0.335265255,-0.120544125,0.969296835,-4.6085199999999995,16.587619999999998,-10.57518,70.0
1774822646.992185,0.006615400314331055,2026-03-29T22:17:26.992,2026-03-29T18:17:26.992,-33833.205,-46491.345,-84499.33499999999,-49780.215,-12824.1,-17801.055,6374.61,-45740.205,-1.0440299870716288,-5.022955072917741,-6.770658674435949,-3.707068728962461,-4.6586421993395,-7.805445767424493,-2.2080934497035063,-0.5786197165809572,0.318297525,-0.10522434,0.97570551,-29.955379999999998,23.51566,-15.54994,70.0
1774822646.9922073,2.2172927856445312e-05,2026-03-29T22:17:26.992,2026-03-29T18:17:26.992,-33829.38,-46497.284999999996,-84526.875,-49828.005,-12890.88,-17884.98,6345.764999999999,-45725.22,1.8032178756722668,-3.9079696331311604,-6.426246415781684,-4.560092496096209,-5.736140233604721,-9.657507518042404,-2.9760764059250957,1.474995892941866,0.318297525,-0.10522434,0.97570551,-29.955379999999998,23.51566,-15.54994,70.0
1774822646.9962404,0.004033088684082031,2026-03-29T22:17:26.996,2026-03-29T18:17:26.996,-33823.799999999996,-46488.24,-84509.19,-49803.705,-12862.394999999999,-17856.989999999998,6353.955,-45709.244999999995,3.8039132604187476,-0.9634233455455264,-3.0677790223468873,-3.2081631629139595,-4.071613037085423,-6.968860633696706,-2.156932960345669,2.731129037549369,0.318297525,-0.10522434,0.97570551,-29.955379999999998,23.51566,-15.54994,70.0
1774822646.996273,3.266334533691406e-05,2026-03-29T22:17:26.996,2026-03-29T18:17:26.996,-33809.4,-46473.705,-84487.095,-49773.24,-12824.189999999999,-17807.13,6377.804999999999,-45686.07,4.259451216970409,2.5846416127013536,1.830568287072157,-0.2622958267569329,-0.3827619792246872,-0.8684095529657626,-0.21775346505364582,2.7690705527697337,0.318297525,-0.10522434,0.97570551,-29.955379999999998,23.51566,-15.54994,70.0
1774822646.996306,3.2901763916015625e-05,2026-03-29T22:17:26.996,2026-03-29T18:17:26.996,-33797.835,-46470.42,-84490.47,-49778.055,-12830.625,-17812.215,6386.4,-45657.63,3.091528485848682,5.155342611457597,6.014807960828265,2.857989513193365,3.586951058465169,5.817266376115725,1.7868741121901914,1.7086586845669591,0.318297525,-0.10522434,0.97570551,-29.955379999999998,23.51566,-15.54994,70.0
1774822646.9963179,1.1920928955078125e-05,2026-03-29T22:17:26.996,2026-03-29T18:17:26.996,-33816.465,-46475.685,-84487.05,-49777.424999999996,-12834.585,-17819.91,6377.085,-45649.665,0.81531134380839,5.523377290838872,7.50214855032422,4.627278250162032,5.912398751292583,9.896584257959038,2.776051680937048,0.08751380217015761,0.318297525,-0.10522434,0.97570551,-29.955379999999998,23.51566,-15.54994,70.0
1774822646.9984689,0.002151012420654297,2026-03-29T22:17:26.998,2026-03-29T18:17:26.998,-33826.32,-46463.895,-84461.67,-49750.064999999995,-12809.97,-17799.434999999998,6381.36,-45646.064999999995,-1.6892704622603956,3.4083974105247785,5.53338742506027,4.178045580033536,5.440839385653977,9.362600510442888,2.2197226065134132,-1.4098016518420282,0.318297525,-0.10522434,0.97570551,-29.955379999999998,23.51566,-15.54994,70.0
1774822646.9984815,1.2636184692382812e-05,2026-03-29T22:17:26.998,2026-03-29T18:17:26.998,-33812.369999999995,-46463.445,-84466.8,-49753.395,-12814.65,-17807.445,6380.82,-45617.31,-3.505886706029903,-0.342658097012364,0.9632852283047213,1.7356200522879661,2.37441409586049,4.395795797226394,0.4255482754023199,-2.2348821417646665,0.318297525,-0.10522434,0.97570551,-29.955379999999998,23.51566,-15.54994,70.0
1774822647.004182,0.005700588226318359,2026-03-29T22:17:27.004,2026-03-29T18:17:27.004,-33806.744999999995,-46463.805,-84472.605,-49756.005,-12810.465,-17801.55,6382.304999999999,-45596.384999999995,-3.994265376941387,-4.090232053729544,-4.113061016130773,-1.4977254826324964,-1.8176971386585181,-2.6872670679347728,-1.6206653239494273,-2.1572559538986793,0.318297525,-0.10522434,0.97570551,-29.955379999999998,23.51566,-15.54994,70.0
1774822647.004209,2.6941299438476562e-05,2026-03-29T22:17:27.004,2026-03-29T18:17:27.004,-33809.354999999996,-46471.185,-84484.8,-49772.655,-12820.904999999999,-17805.87,6381.585,-45578.655,-2.9942715130348407,-6.124220743635657,-7.333326097996777,-3.9486809590609004,-5.118500368853598,-8.531014562868696,-2.781802753964978,-1.2969798403141035,0.318297525,-0.10522434,0.97570551,-29.955379999999998,23.51566,-15.54994,70.0
1774822647.0067146,0.0025055408477783203,2026-03-29T22:17:27.006,2026-03-29T18:17:27.006,-33821.415,-46479.465,-84490.65,-49776.255,-12823.199999999999,-17807.805,6370.83,-45571.049999999996,-0.8702983382195402,-5.452912078751781,-7.18253172776675,-4.457489746331172,-5.954833646474484,-10.356192487551679,-2.3869216144400913,-0.02963078887798029,0.308898135,-0.10644504,0.969540975,-52.9522,28.94822,-14.10024,70.0
1774822647.0067377,2.3126602172851562e-05,2026-03-29T22:17:27.006,2026-03-29T18:17:27.006,-33814.305,-46476.18,-84491.595,-49777.29,-12824.144999999999,-17808.885,6370.335,-45552.24,1.6109221647090186,-2.290783918619126,-3.716020005372,-2.841884262936901,-3.9646506613461643,-7.304237528201759,-0.6089185532102355,1.173614157890287,0.308898135,-0.10644504,0.969540975,-52.9522,28.94822,-14.10024,70.0
1774822647.0107825,0.004044771194458008,2026-03-29T22:17:27.010,2026-03-29T18:17:27.010,-33809.13,-46466.865,-84480.165,-49766.715,-12814.965,-17802.405,6380.639999999999,-45531.63,3.5347712610526933,1.9967628082966187,1.4589602556888157,0.04038728268305549,-0.15817396248375426,-0.8505289407998755,1.606691230028334,1.9050115993969434,0.308898135,-0.10644504,0.969540975,-52.9522,28.94822,-14.10024,70.0
1774822647.010803,2.0503997802734375e-05,2026-03-29T22:17:27.010,2026-03-29T18:17:27.010,-33808.95,-46464.479999999996,-84476.97,-49763.52,-12812.175,-17800.155,6386.13,-45518.58,4.155045065485214,5.486674022798457,5.938107041570177,2.7500797940235975,3.6006957274352076,5.91613688913557,3.0350602906598363,1.9352181851955477,0.308898135,-0.10644504,0.969540975,-52.9522,28.94822,-14.10024,70.0
1774822647.0145416,0.0037386417388916016,2026-03-29T22:17:27.014,2026-03-29T18:17:27.014,-33800.85,-46458.63,-84471.93,-49758.93,-12808.619999999999,-17796.375,6385.905,-45499.365,3.175522999782283,6.570055610189203,7.652184764822935,3.999586414542838,5.523774516792365,9.79215748990244,2.8331700815746244,1.2678384015407915,0.308898135,-0.10644504,0.969540975,-52.9522,28.94822,-14.10024,70.0
1774822647.014566,2.4318695068359375e-05,2026-03-29T22:17:27.014,2026-03-29T18:17:27.014,-33801.03,-46460.52,-84474.36,-49764.735,-12811.769999999999,-17795.925,6389.955,-45479.655,0.8951844577786479,4.702910095712854,5.836136201075676,3.2811910749923365,4.768024130037033,8.999282481153136,1.0172515258261963,0.13299997711202508,0.308898135,-0.10644504,0.969540975,-52.9522,28.94822,-14.10024,70.0
1774822647.0214376,0.006871700286865234,2026-03-29T22:17:27.021,2026-03-29T18:17:27.021,-33809.58,-46472.4,-84487.95,-49777.515,-12824.055,-17807.265,6386.67,-45467.055,-1.8556949218130694,0.6812565138880813,1.3750526177360278,1.0768019249192127,1.814057707092632,4.0152705748023,-1.5073049555492748,-1.0765033213781043,0.308898135,-0.10644504,0.969540975,-52.9522,28.94822,-14.10024,70.0
1774822647.0214565,1.8835067749023438e-05,2026-03-29T22:17:27.021,2026-03-29T18:17:27.021,-33804.54,-46472.354999999996,-84490.425,-49781.43,-12829.095,-17813.88,6379.785,-45452.07,-3.9953947150306965,-3.6994194647451426,-3.63156596450213,-1.43903629150687,-1.8202535324635525,-2.6995225277445525,-3.3959619651016735,-1.9199673176168044,0.308898135,-0.10644504,0.969540975,-52.9522,28.94822,-14.10024,70.0
1774822647.021472,1.5497207641601562e-05,2026-03-29T22:17:27.021,2026-03-29T18:17:27.021,-33797.159999999996,-46470.78,-84491.81999999999,-49786.064999999995,-12833.46,-17819.145,6378.03,-45433.439999999995,-4.6062767709992825,-6.4542354178706915,-6.870594180964956,-3.0278362313710803,-4.366323606135096,-7.92743180982094,-3.5716105355431638,-2.0555356268807015,0.308898135,-0.10644504,0.969540975,-52.9522,28.94822,-14.10024,70.0
1774822647.0214787,6.67572021484375e-06,2026-03-29T22:17:27.021,2026-03-29T18:17:27.021,-33781.409999999996,-46463.04,-84484.035,-49783.905,-12836.295,-17825.085,6381.045,-45408.015,-3.332166974989144,-6.319039837589862,-6.8979858889347945,-3.009821146740391,-4.680921520189176,-9.255117178398528,-1.8194221653148626,-1.3788600995484532,0.308898135,-0.10644504,0.969540975,-52.9522,28.94822,-14.10024,70.0
1774822647.0266452,0.005166530609130859,2026-03-29T22:17:27.026,2026-03-29T18:17:27.026,-33782.49,-46466.685,-84484.98,-49783.814999999995,-12840.119999999999,-17838.36,6380.55,-45389.205,-0.5836870287344729,-3.338196952881133,-3.789927979256076,-1.5620271800355872,-2.7710247248872846,-6.2044653194333454,1.0521817466717576,-0.0972285375948236,0.305846385,-0.115905465,0.95751708,-56.461999999999996,34.9454,-15.61098,70.0
1774822647.0266583,1.3113021850585938e-05,2026-03-29T22:17:27.026,2026-03-29T18:17:27.026,-33786.315,-46475.369999999995,-84501.0,-49795.29,-12847.455,-17847.899999999998,6382.71,-45375.75,2.565501750532223,1.1468921373082215,0.9346921819271667,0.44223270393832964,0.27873632988928637,-0.3951253949842352,3.5880934418883688,1.3104725741355698,0.305846385,-0.115905465,0.95751708,-56.461999999999996,34.9454,-15.61098,70.0
1774822647.0304177,0.0037593841552734375,2026-03-29T22:17:27.030,2026-03-29T18:17:27.030,-33807.78,-46474.47,-84485.52,-49772.97,-12817.484999999999,-17807.895,6359.3099999999995,-45376.965,4.785710398166997,5.107820518697521,5.064050108345565,1.9403918696975861,2.9098834391000197,5.310448648916326,4.4236135758979716,2.258991088859778,0.305846385,-0.115905465,0.95751708,-56.461999999999996,34.9454,-15.61098,70.0
1774822647.0304332,1.5497207641601562e-05,2026-03-29T22:17:27.030,2026-03-29T18:17:27.030,-33811.56,-46469.88,-84480.56999999999,-49769.189999999995,-12810.555,-17792.37,6360.4349999999995,-45374.759999999995,5.0545921866235455,6.757371002046193,6.741691421826951,2.246448908543652,3.893072838672812,8.229321870532829,3.0083337687116027,2.298808332046679,0.305846385,-0.115905465,0.95751708,-56.461999999999996,34.9454,-15.61098,70.0
1774822647.0345664,0.0041332244873046875,2026-03-29T22:17:27.034,2026-03-29T18:17:27.034,-33790.275,-46472.58,-84498.3,-49789.755,-12837.105,-17828.37,6349.1849999999995,-45345.42,3.1374052472132337,5.366057853960234,5.310419626049888,1.3732604021092205,2.9135402119185616,7.1352280899724105,-0.06380992392242547,1.3356003682383135,0.305846385,-0.115905465,0.95751708,-56.461999999999996,34.9454,-15.61098,70.0
1774822647.0345871,2.0742416381835938e-05,2026-03-29T22:17:27.034,2026-03-29T18:17:27.034,-33793.83,-46475.415,-84502.62,-49793.265,-12841.425,-17834.805,6345.63,-45329.534999999996,-0.2457924629985409,1.589165163076755,1.5637255240363461,-0.0437008474662965,0.6552485507461292,2.775327758900042,-3.3066822095870183,-0.28306442000935766,0.305846385,-0.115905465,0.95751708,-56.461999999999996,34.9454,-15.61098,70.0
1774822647.043142,0.008554935455322266,2026-03-29T22:17:27.043,2026-03-29T18:17:27.043,-33809.04,-46481.805,-84500.45999999999,-49781.79,-12826.89,-17819.505,6361.2,-45326.655,-3.674420798957514,-2.844508847566377,-2.6878301477119577,-1.1527530868778997,-1.627365679703101,-2.591619745069908,-5.06795125640412,-1.8779601913133677,0.305846385,-0.115905465,0.95751708,-56.461999999999996,34.9454,-15.61098,70.0
1774822647.0431688,2.6702880859375e-05,2026-03-29T22:17:27.043,2026-03-29T18:17:27.043,-33814.53,-46484.189999999995,-84501.62999999999,-49778.595,-12823.605,-17817.03,6368.13,-45321.03,-5.623387706223723,-5.9331909732766155,-5.5005355777065565,-1.378583893096372,-2.7963937909020786,-6.364694710787499,-4.371020500458502,-2.72059913355022,0.305846385,-0.115905465,0.95751708,-56.461999999999996,34.9454,-15.61098,70.0
1774822647.043194,2.5272369384765625e-05,2026-03-29T22:17:27.043,2026-03-29T18:17:27.043,-33830.595,-46481.445,-84490.425,-49768.695,-12813.39,-17807.625,6381.045,-45323.145,-5.151319353440926,-6.317004760853588,-5.6959955163835785,-0.7227473429055327,-2.4033067308900002,-6.871949803477309,-1.4433405789496159,-2.3718627608006075,0.305846385,-0.115905465,0.95751708,-56.461999999999996,34.9454,-15.61098,70.0
1774822647.0432055,1.1444091796875e-05,2026-03-29T22:17:27.043,2026-03-29T18:17:27.043,-33816.6,-46470.195,-84483.765,-49767.119999999995,-12812.85,-17803.665,6385.86,-45312.525,-2.365748507061925,-3.88385464898403,-3.354182637791188,0.2856157234901777,-0.856785531146315,-4.116835195394491,2.350439592377203,-0.9165340608812411,0.305846385,-0.115905465,0.95751708,-56.461999999999996,34.9454,-15.61098,70.0
1774822647.04666,0.003454446792602539,2026-03-29T22:17:27.046,2026-03-29T18:17:27.046,-33797.025,-46461.284999999996,-84479.44499999999,-49775.04,-12818.385,-17805.735,6384.42,-45292.905,1.5691396107297029,0.207075807444139,0.30462806483861254,0.9429889476493948,0.8745547282684364,0.33583558419496506,5.155332603864298,1.033676556159825,0.2990715,-0.12145965,0.94445559,-59.819199999999995,34.22818,-19.65488,70.0
1774822647.0466912,3.123283386230469e-05,2026-03-29T22:17:27.046,2026-03-29T18:17:27.046,-33801.39,-46463.22,-84477.645,-49774.409999999996,-12812.445,-17792.55,6395.49,-45286.47,4.915742677515258,4.082676116608153,3.55512756433843,0.8118019857866293,1.8341187045140692,4.227354581975829,5.5414208332670345,2.593137968391533,0.2990715,-0.12145965,0.94445559,-59.819199999999995,34.22818,-19.65488,70.0
1774822647.0506964,0.0040051937103271484,2026-03-29T22:17:27.050,2026-03-29T18:17:27.050,-33810.659999999996,-46466.46,-84479.04,-49763.205,-12802.095,-17790.48,6407.594999999999,-45291.42,6.138744983085784,6.023845706435784,4.988767828491584,-0.012686700045240626,1.5975779427690349,5.752492011340049,3.2321666667075264,3.009051152353542,0.2990715,-0.12145965,0.94445559,-59.819199999999995,34.22818,-19.65488,70.0
1774822647.0507212,2.47955322265625e-05,2026-03-29T22:17:27.050,2026-03-29T18:17:27.050,-33803.1,-46472.49,-84492.045,-49776.795,-12817.439999999999,-17807.895,6402.105,-45287.955,4.623010164119956,5.237101108036086,4.126865414401868,-0.9640324748361919,0.46140527867188236,4.402658844605987,-0.7255877279174446,2.0328307415029188,0.2990715,-0.12145965,0.94445559,-59.819199999999995,34.22818,-19.65488,70.0
1774822647.060572,0.009850740432739258,2026-03-29T22:17:27.060,2026-03-29T18:17:27.060,-33794.82,-46466.549999999996,-84487.995,-49787.055,-12826.529999999999,-17812.079999999998,6379.2,-45290.025,0.9916725100260654,2.179234953772094,1.5570464539092348,-1.3569548342072155,-0.7842958518076405,1.108310843102117,-4.447156674711563,0.0692496869788579,0.2990715,-0.12145965,0.94445559,-59.819199999999995,34.22818,-19.65488,70.0
1774822647.060588,1.5974044799804688e-05,2026-03-29T22:17:27.060,2026-03-29T18:17:27.060,-33806.565,-46471.365,-84494.655,-49793.13,-12832.74,-17818.695,6372.45,-45300.6,-3.1434660166747634,-1.6979652925067983,-1.4301724063418937,-0.8222897606900719,-1.349275140501041,-2.340634276039449,-6.120885151222048,-1.9856183248635642,0.2990715,-0.12145965,0.94445559,-59.819199999999995,34.22818,-19.65488,70.0
1774822647.0606067,1.8835067749023438e-05,2026-03-29T22:17:27.060,2026-03-29T18:17:27.060,-33821.64,-46482.93,-84492.765,-49765.545,-12810.465,-17810.684999999998,6372.585,-45310.095,-5.903156645097618,-4.643753703684038,-3.4915194194644212,0.43455169450397413,-0.9115517605267429,-4.254363676704686,-4.898112103059052,-3.1561727992598545,0.2990715,-0.12145965,0.94445559,-59.819199999999995,34.22818,-19.65488,70.0
1774822647.0606112,4.5299530029296875e-06,2026-03-29T22:17:27.060,2026-03-29T18:17:27.060,-33820.335,-46491.975,-84489.56999999999,-49730.174999999996,-12782.295,-17796.78,6374.969999999999,-45314.505,-6.008103424935622,-5.408489904473061,-3.8393713611456737,1.7129046996619262,0.2061685462532677,-3.8728528852200887,-1.3212457356906442,-2.858093062321202,0.2990715,-0.12145965,0.94445559,-59.819199999999995,34.22818,-19.65488,70.0
1774822647.0628183,0.002207040786743164,2026-03-29T22:17:27.062,2026-03-29T18:17:27.062,-33814.935,-46483.965,-84480.12,-49729.455,-12782.475,-17792.37,6382.62,-45320.085,-3.3858609019724306,-3.7777147713106523,-2.531030351729733,2.2026753414876654,1.2461928259795994,-1.6572620242900737,2.9254584449798227,-1.197348306030994,0.2990715,-0.12145965,0.94445559,-59.819199999999995,34.22818,-19.65488,70.0
1774822647.0628548,3.647804260253906e-05,2026-03-29T22:17:27.062,2026-03-29T18:17:27.062,-33798.015,-46457.1,-84464.86499999999,-49763.205,-12802.545,-17790.39,6394.1849999999995,-45322.2,0.7770662389884143,-0.6100779798348186,-0.3397337324649082,1.4658002776561674,1.4837643554492839,1.062331621899646,5.823891741116557,1.0586873527320573,0.2990715,-0.12145965,0.94445559,-59.819199999999995,34.22818,-19.65488,70.0
1774822647.067152,0.0042972564697265625,2026-03-29T22:17:27.067,2026-03-29T18:17:27.067,-33782.805,-46443.825,-84471.61499999999,-49806.81,-12838.14,-17809.829999999998,6389.955,-45322.29,4.574255420757519,2.6110914461007027,1.6840315970004203,-0.26231507973711204,0.678550286975303,2.8511436323452375,5.9945561735431045,2.8366424876964556,0.283995855,-0.13000455,0.929746155,-69.60086,32.717439999999996,-20.1432,70.0
1774822647.0671723,2.0265579223632812e-05,2026-03-29T22:17:27.067,2026-03-29T18:17:27.067,-33784.875,-46453.14,-84477.06,-49787.145,-12823.83,-17807.13,6388.65,-45329.715,6.263644047677586,4.479743161481191,2.718578655551322,-2.1376228867473164,-0.7553843061260568,2.918720421588931,3.3588017040663036,3.2739739187372203,0.283995855,-0.13000455,0.929746155,-69.60086,32.717439999999996,-20.1432,70.0
1774822647.071062,0.003889799118041992,2026-03-29T22:17:27.071,2026-03-29T18:17:27.071,-33797.07,-46464.119999999995,-84485.52,-49788.81,-12828.689999999999,-17818.065,6383.7,-45339.39,5.081576109763181,4.2871197392141775,2.499782604645732,-3.126744912555556,-1.966440944691801,1.4646693807399358,-0.8297647460663047,2.145366527749337,0.283995855,-0.13000455,0.929746155,-69.60086,32.717439999999996,-20.1432,70.0
1774822647.0710928,3.075599670410156e-05,2026-03-29T22:17:27.071,2026-03-29T18:17:27.071,-33804.765,-46466.82,-84485.745,-49788.36,-12830.984999999999,-17826.075,6377.985,-45354.33,1.5992592884515944,2.283498886167968,1.3441334597125925,-2.569091239955653,-2.1538913056770643,-0.5280400494960632,-4.594705645416554,-0.01570094155520657,0.283995855,-0.13000455,0.929746155,-69.60086,32.717439999999996,-20.1432,70.0
1774822647.0792327,0.008139848709106445,2026-03-29T22:17:27.079,2026-03-29T18:17:27.079,-33793.244999999995,-46458.45,-84479.67,-49780.35,-12824.279999999999,-17822.969999999998,6381.135,-45360.854999999996,-2.5500680292687226,-0.5110142191057037,-0.09796088339190127,-0.5787202942512607,-1.053992035500381,-1.8992880420246254,-6.18493718082612,-2.1677690843316975,0.283995855,-0.13000455,0.929746155,-69.60086,32.717439999999996,-20.1432,70.0
1774822647.0792515,1.8835067749023438e-05,2026-03-29T22:17:27.079,2026-03-29T18:17:27.079,-33791.58,-46457.415,-84476.47499999999,-49773.689999999995,-12814.064999999999,-17810.28,6383.07,-45367.92,-5.444194355526241,-2.8251645836851997,-1.197257847527314,1.9460597067246557,0.8573108583448507,-1.9623740250354673,-4.89976116234397,-3.267150087309241,0.283995855,-0.13000455,0.929746155,-69.60086,32.717439999999996,-20.1432,70.0
1774822647.0857449,0.006493330001831055,2026-03-29T22:17:27.085,2026-03-29T18:17:27.085,-33809.58,-46467.27,-84480.12,-49776.255,-12817.664999999999,-17817.66,6380.775,-45387.99,-5.7759341300032006,-3.721190922617177,-1.6195420982826374,3.7366756893882793,2.575834318654218,-0.8430842404104614,-1.3971794414560847,-2.7810284578346485,0.283995855,-0.13000455,0.929746155,-69.60086,32.717439999999996,-20.1432,70.0
1774822647.085758,1.3113021850585938e-05,2026-03-29T22:17:27.085,2026-03-29T18:17:27.085,-33807.465,-46467.314999999995,-84479.22,-49770.945,-12812.445,-17816.535,6387.255,-45398.43,-3.456579556150557,-2.9737176654861273,-1.399952566754119,3.7965768285693993,3.0976685563613926,0.6580150389731942,2.6497584283110207,-0.9523978066977506,0.283995855,-0.13000455,0.929746155,-69.60086,32.717439999999996,-20.1432,70.0
1774822647.0857725,1.4543533325195312e-05,2026-03-29T22:17:27.085,2026-03-29T18:17:27.085,-33801.255,-46467.18,-84480.885,-49771.53,-12811.455,-17804.25,6388.38,-45410.895,0.3659880551607861,-1.0905084642942626,-0.8211293728120415,1.944414299613313,1.9861688137018227,1.5752259187542657,5.366472921041127,1.317838845777056,0.283995855,-0.13000455,0.929746155,-69.60086,32.717439999999996,-20.1432,70.0
1774822647.0857792,6.67572021484375e-06,2026-03-29T22:17:27.085,2026-03-29T18:17:27.085,-33801.479999999996,-46472.715,-84492.36,-49780.53,-12815.55,-17799.39,6394.1849999999995,-45432.045,3.8753260918103853,0.9971188828220349,-0.2005151557144828,-1.033458604249381,-0.3355346495357154,1.3543422370945444,5.55826504490067,2.91573711020892,0.283995855,-0.13000455,0.929746155,-69.60086,32.717439999999996,-20.1432,70.0
1774822647.0857875,8.344650268554688e-06,2026-03-29T22:17:27.085,2026-03-29T18:17:27.085,-33795.63,-46468.439999999995,-84491.09999999999,-49779.134999999995,-12815.189999999999,-17797.454999999998,6396.075,-45453.104999999996,5.45921125800663,2.3960969924166102,0.2776008768533321,-3.722162074957261,-2.7438780737486215,0.16691347217806743,3.239231282993758,3.065685141383836,0.26690605500000003,-0.14025843,0.92858649,-76.78832,35.49476,-23.881899999999998,70.0
1774822647.085804,1.6450881958007812e-05,2026-03-29T22:17:27.085,2026-03-29T18:17:27.085,-33799.86,-46459.89,-84471.3,-49762.395,-12803.22,-17796.78,6378.075,-45481.994999999995,4.463270066185878,2.636112182300557,0.5990897750959608,-4.7594656805762385,-3.9662237200960093,-1.208848248096439,-0.426902904271402,1.7129891650322557,0.26690605500000003,-0.14025843,0.92858649,-76.78832,35.49476,-23.881899999999998,70.0
1774822647.0914195,0.0056154727935791016,2026-03-29T22:17:27.091,2026-03-29T18:17:27.091,-33787.08,-46450.755,-84473.685,-49779.045,-12824.595,-17821.755,6360.885,-45503.865,1.4670551043356426,1.8101817377931846,0.8322280903521422,-3.5267419348037237,-3.250057044299982,-1.8628697384313844,-3.7193105121323193,-0.4538260130492621,0.26690605500000003,-0.14025843,0.92858649,-76.78832,35.49476,-23.881899999999998,70.0
1774822647.0914536,3.409385681152344e-05,2026-03-29T22:17:27.091,2026-03-29T18:17:27.091,-33790.005,-46454.22,-84477.465,-49779.0,-12822.705,-17819.01,6360.84,-45531.045,-2.037043364041055,0.4402446604480331,0.9993078084532602,-0.49904492984941135,-0.7995848785295961,-1.306105715855595,-5.180611475720284,-2.351594297138351,0.26690605500000003,-0.14025843,0.92858649,-76.78832,35.49476,-23.881899999999998,70.0
1774822647.0950933,0.003639698028564453,2026-03-29T22:17:27.095,2026-03-29T18:17:27.095,-33785.955,-46456.335,-84477.19499999999,-49768.29,-12805.74,-17795.114999999998,6380.054999999999,-45555.57,-4.3893900710840175,-0.8285714552188774,1.0103692174072119,2.9367601591475876,2.2640369721644062,0.21813999111520774,-4.268380497349323,-3.0458750033876494,0.26690605500000003,-0.14025843,0.92858649,-76.78832,35.49476,-23.881899999999998,70.0
1774822647.09512,2.6702880859375e-05,2026-03-29T22:17:27.095,2026-03-29T18:17:27.095,-33790.905,-46464.165,-84486.87,-49777.155,-12811.545,-17797.094999999998,6394.365,-45586.125,-4.559360202657205,-1.533666376860338,0.7134184375094836,5.125807112821673,4.423461020446227,1.8471524132622745,-1.5435879017933654,-2.215315231061051,0.26690605500000003,-0.14025843,0.92858649,-76.78832,35.49476,-23.881899999999998,70.0
1774822647.103236,0.008116006851196289,2026-03-29T22:17:27.103,2026-03-29T18:17:27.103,-33793.11,-46462.049999999996,-84486.95999999999,-49783.185,-12818.34,-17803.53,6398.46,-45618.299999999996,-2.60543177510058,-1.5549799295471685,0.03213340206666271,4.947646934679263,4.520866074760437,2.5797338968139547,1.6611153584871245,-0.30418481278864307,0.26690605500000003,-0.14025843,0.92858649,-76.78832,35.49476,-23.881899999999998,70.0
1774822647.1032572,2.1219253540039062e-05,2026-03-29T22:17:27.103,2026-03-29T18:17:27.103,-33780.24,-46460.97,-84492.81,-49788.225,-12825.99,-17813.52,6392.925,-45641.88,0.4105337689923228,-1.0790321432430523,-0.9041060942554529,2.3858646150975114,2.3703905109857866,1.859924274020147,3.9018825650820457,1.7110310831580005,0.26690605500000003,-0.14025843,0.92858649,-76.78832,35.49476,-23.881899999999998,70.0
1774822647.1059985,0.0027413368225097656,2026-03-29T22:17:27.105,2026-03-29T18:17:27.105,-33759.674999999996,-46456.65,-84494.385,-49792.005,-12834.269999999999,-17827.155,6378.974999999999,-45662.58,2.9896861130103503,-0.4247889200561941,-1.7402246464344393,-1.4226236098360865,-1.0930089820995974,-0.06550086771163895,4.281705527246671,2.8196176826081163,0.26690605500000003,-0.14025843,0.92858649,-76.78832,35.49476,-23.881899999999998,70.0
1774822647.106032,3.337860107421875e-05,2026-03-29T22:17:27.106,2026-03-29T18:17:27.106,-33766.83,-46465.02,-84501.855,-49805.415,-12844.484999999999,-17833.005,6375.375,-45695.07,3.944718699387094,0.14828617521132628,-2.028804744061181,-4.698157030561354,-4.224705256706825,-2.227366163386639,2.8027715837684903,2.4851230649147613,0.26690605500000003,-0.14025843,0.92858649,-76.78832,35.49476,-23.881899999999998,70.0
1774822647.1060643,3.24249267578125e-05,2026-03-29T22:17:27.106,2026-03-29T18:17:27.106,-33794.595,-46468.395,-84489.61499999999,-49790.835,-12825.494999999999,-17814.78,6381.585,-45753.075,2.9547790865326777,0.5410115700082296,-1.466661623294085,-5.85589550384443,-5.457728625923906,-3.4273470223893794,0.27911196704490226,0.9074863339338337,0.25988703,-0.155456145,0.928403385,-94.01686,39.27924,-27.7732,70.0
1774822647.106084,1.9788742065429688e-05,2026-03-29T22:17:27.106,2026-03-29T18:17:27.106,-33804.494999999995,-46462.455,-84471.795,-49767.975,-12801.689999999999,-17790.614999999998,6388.0199999999995,-45811.665,0.6634085226430714,0.7861900677671108,-0.1103800420350585,-4.273313231459965,-4.086242062529983,-2.8904587450871366,-2.107125348824536,-1.090473894897554,0.25988703,-0.155456145,0.928403385,-94.01686,39.27924,-27.7732,70.0
1774822647.1107607,0.0046765804290771484,2026-03-29T22:17:27.110,2026-03-29T18:17:27.110,-33797.475,-46453.365,-84462.93,-49763.97,-12803.715,-17795.295,6380.955,-45862.784999999996,-1.7045467184641954,0.9379267215547699,1.5625159815754461,-0.616043087823613,-0.6539016222667574,-0.7260940095998641,-3.3654204485545236,-2.4895626181967465,0.25988703,-0.155456145,0.928403385,-94.01686,39.27924,-27.7732,70.0
1774822647.110782,2.1219253540039062e-05,2026-03-29T22:17:27.110,2026-03-29T18:17:27.110,-33781.95,-46457.46,-84481.245,-49781.295,-12818.475,-17812.395,6376.905,-45897.39,-2.9897172749279437,0.9728352552657596,2.8123808466501146,3.444366735415747,3.26028890202294,2.063419565788671,-3.104938710587867,-2.5931609824990134,0.25988703,-0.155456145,0.928403385,-94.01686,39.27924,-27.7732,70.0
1774822647.1211517,0.01036977767944336,2026-03-29T22:17:27.121,2026-03-29T18:17:27.121,-33786.9,-46457.505,-84479.48999999999,-49777.424999999996,-12811.769999999999,-17804.52,6386.985,-45951.03,-2.6697313013631847,0.7817090697159232,2.9679996796548727,5.999040456314038,5.774044346746255,4.055155306114725,-1.6250678982573155,-1.3742564169000602,0.25988703,-0.155456145,0.928403385,-94.01686,39.27924,-27.7732,70.0
1774822647.12117,1.8358230590820312e-05,2026-03-29T22:17:27.121,2026-03-29T18:17:27.121,-33795.585,-46453.229999999996,-84470.265,-49766.354999999996,-12803.265,-17798.715,6402.105,-46024.515,-1.0717442161351654,0.2633607440096384,1.7791482081241814,5.8008101987345535,5.609299633389467,4.131807640845,0.3096638719069355,0.5226651609271631,0.25988703,-0.155456145,0.928403385,-94.01686,39.27924,-27.7732,70.0
1774822647.1211872,1.71661376953125e-05,2026-03-29T22:17:27.121,2026-03-29T18:17:27.121,-33784.335,-46456.244999999995,-84482.685,-49776.705,-12814.56,-17809.739999999998,6394.634999999999,-46082.115,0.8606652119915993,-0.5431755646341829,-0.39111612391051187,2.869778363298984,2.736634095134962,2.0907880285120983,1.8633074212461689,2.1201867097909375,0.25988703,-0.155456145,0.928403385,-94.01686,39.27924,-27.7732,70.0
1774822647.121194,6.67572021484375e-06,2026-03-29T22:17:27.121,2026-03-29T18:17:27.121,-33787.08,-46464.84,-84489.39,-49780.799999999996,-12818.385,-17812.395,6391.08,-46144.17,2.100336850554822,-1.388175773850486,-2.656129403443945,-1.4865555261499934,-1.5656228748580563,-1.1890241896861153,2.48840774185635,2.6095467963550374,0.25988703,-0.155456145,0.928403385,-94.01686,39.27924,-27.7732,70.0
1774822647.1260738,0.004879951477050781,2026-03-29T22:17:27.126,2026-03-29T18:17:27.126,-33779.565,-46460.7,-84481.83,-49772.52,-12811.455,-17806.14,6393.42,-46203.345,2.0762277281449606,-1.8746057835073393,-3.9681899580091065,-5.259078122325516,-5.283795580544977,-4.131389509394446,2.0982545728542,1.7580669200560297,0.25988703,-0.155456145,0.928403385,-94.01686,39.27924,-27.7732,70.0
1774822647.1261108,3.695487976074219e-05,2026-03-29T22:17:27.126,2026-03-29T18:17:27.126,-33775.56,-46449.854999999996,-84471.03,-49774.14,-12812.625,-17806.14,6399.45,-46269.854999999996,0.9383541826075856,-1.6482675585498032,-3.6052006812144612,-6.66462120592102,-6.6141812166283165,-5.226129639734287,1.0111654029625292,0.017552161205702115,0.25988703,-0.155456145,0.928403385,-94.01686,39.27924,-27.7732,70.0
1774822647.1261404,2.956390380859375e-05,2026-03-29T22:17:27.126,2026-03-29T18:17:27.126,-33781.95,-46448.369999999995,-84471.075,-49781.07,-12814.605,-17804.79,6399.855,-46351.305,-0.5759795546096355,-0.6221317181518937,-1.5544026731697882,-4.986692808647915,-4.836108746356574,-3.799094568979293,-0.26093224458432096,-1.7158197872909162,0.24059997,-0.184142595,0.924497145,-97.55717999999999,40.25588,-25.0264,70.0
1774822647.12615,9.5367431640625e-06,2026-03-29T22:17:27.126,2026-03-29T18:17:27.126,-33774.659999999996,-46450.439999999995,-84477.735,-49787.505,-12818.564999999999,-17804.114999999998,6402.78,-46420.38,-1.5824162811756382,0.8975270109292375,1.4056521620482127,-0.9344592410114967,-0.6912944359415739,-0.39821038014597204,-1.2512727776621297,-2.5621151140949836,0.24059997,-0.184142595,0.924497145,-97.55717999999999,40.25588,-25.0264,70.0
1774822647.132535,0.006385087966918945,2026-03-29T22:17:27.132,2026-03-29T18:17:27.132,-33774.705,-46456.11,-84484.485,-49790.34,-12819.375,-17801.055,6400.304999999999,-46483.92,-1.5450226264344051,2.28048565596031,3.9945649567385697,3.656705506206999,3.925459779616283,3.4154327128125233,-1.6941547064236488,-2.1017630889483434,0.24059997,-0.184142595,0.924497145,-97.55717999999999,40.25588,-25.0264,70.0
1774822647.1325634,2.8371810913085938e-05,2026-03-29T22:17:27.132,2026-03-29T18:17:27.132,-33797.97,-46451.07,-84462.345,-49762.259999999995,-12790.529999999999,-17775.63,6400.215,-46577.97,-0.5562754266798701,2.836741541893732,4.986195516423286,6.656236196084373,6.8346324210979414,5.791473882821522,-1.5561392963494887,-0.5794915731504037,0.24059997,-0.184142595,0.924497145,-97.55717999999999,40.25588,-25.0264,70.0
1774822647.1352763,0.0027129650115966797,2026-03-29T22:17:27.135,2026-03-29T18:17:27.135,-33793.29,-46447.784999999996,-84459.19499999999,-49760.1,-12789.359999999999,-17777.52,6403.23,-46655.46,0.7430579294576191,2.1633558823356345,3.788798775384132,6.624784900345596,6.60022918084003,5.489578483291357,-0.9728633410899403,1.2295501670366946,0.24059997,-0.184142595,0.924497145,-97.55717999999999,40.25588,-25.0264,70.0
1774822647.1352973,2.09808349609375e-05,2026-03-29T22:17:27.135,2026-03-29T18:17:27.135,-33788.07,-46451.52,-84462.795,-49767.119999999995,-12800.295,-17791.785,6386.04,-46726.064999999995,1.5484104839611197,0.3986661272835557,0.7751112961729377,3.5007575608664308,3.2332853148637635,2.5162828519183895,-0.15761469103157202,2.4168675329687286,0.24059997,-0.184142595,0.924497145,-97.55717999999999,40.25588,-25.0264,70.0
1774822647.1387763,0.00347900390625,2026-03-29T22:17:27.138,2026-03-29T18:17:27.138,-33797.43,-46454.985,-84464.86499999999,-49765.814999999995,-12796.74,-17789.94,6381.135,-46811.88,1.3593619004644688,-1.765663703652821,-2.8139636932427146,-1.3381478913489853,-1.77137578666364,-1.82318651960201,0.6646391815035834,2.3960562420202787,0.24059997,-0.184142595,0.924497145,-97.55717999999999,40.25588,-25.0264,70.0
1774822647.1387944,1.811981201171875e-05,2026-03-29T22:17:27.138,2026-03-29T18:17:27.138,-33788.79,-46449.36,-84465.09,-49765.545,-12797.369999999999,-17792.82,6384.96,-46898.369999999995,0.2685081181714808,-3.3541479629697015,-5.379346383549198,-5.680747427134618,-6.099608568662918,-5.503941300868939,1.2858280711838164,1.187989096240738,0.24059997,-0.184142595,0.924497145,-97.55717999999999,40.25588,-25.0264,70.0
1774822647.1428423,0.004047870635986328,2026-03-29T22:17:27.142,2026-03-29T18:17:27.142,-33772.905,-46437.345,-84456.98999999999,-49758.39,-12790.619999999999,-17787.105,6407.82,-46980.494999999995,-1.088837154787677,-3.554330537362574,-5.678323573524622,-7.489928766249983,-7.6876547686825445,-6.730946383543871,1.5308366380528486,-0.6014588215200273,0.24059997,-0.184142595,0.924497145,-97.55717999999999,40.25588,-25.0264,70.0
1774822647.142862,1.9788742065429688e-05,2026-03-29T22:17:27.142,2026-03-29T18:17:27.142,-33773.715,-46441.755,-84466.125,-49767.75,-12798.72,-17791.065,6415.605,-47068.515,-1.8951508264812096,-2.133047943317118,-3.42363431293605,-5.854476607428056,-5.702885732993067,-4.8114963934061805,1.2917214792055944,-2.0914137008797766,0.24059997,-0.184142595,0.924497145,-97.55717999999999,40.25588,-25.0264,70.0
1774822647.153051,0.010188817977905273,2026-03-29T22:17:27.153,2026-03-29T18:17:27.153,-33783.84,-46453.229999999996,-84475.44,-49774.455,-12805.515,-17799.614999999998,6403.95,-47159.055,-1.6204306694989499,0.39137073683055223,0.5203013908521473,-1.4425426026689319,-0.9712440428132267,-0.5279703400533613,0.5839354893236663,-2.5623111756185453,0.204284145,-0.214293885,0.92199471,-101.46374,36.73082,-30.9778,70.0
1774822647.153067,1.621246337890625e-05,2026-03-29T22:17:27.153,2026-03-29T18:17:27.153,-33784.29,-46457.1,-84483.18,-49780.17,-12812.805,-17807.805,6390.719999999999,-47240.055,-0.33878926360417744,2.930463026531529,4.461648678834615,3.7663873796272096,4.364199871084139,4.182913642407809,-0.4085159726802588,-1.8006836998030438,0.204284145,-0.214293885,0.92199471,-101.46374,36.73082,-30.9778,70.0
1774822647.1530828,1.5735626220703125e-05,2026-03-29T22:17:27.153,2026-03-29T18:17:27.153,-33774.255,-46449.18,-84481.02,-49782.78,-12815.82,-17812.485,6382.844999999999,-47311.875,1.287887241799957,4.30139785258958,6.608053685628102,7.366101232040424,7.8133865436961445,7.1112241473525355,-1.3483637915840416,-0.18794061415013716,0.204284145,-0.214293885,0.92199471,-101.46374,36.73082,-30.9778,70.0
1774822647.1530888,5.9604644775390625e-06,2026-03-29T22:17:27.153,2026-03-29T18:17:27.153,-33769.26,-46439.955,-84471.885,-49782.735,-12817.17,-17814.375,6376.23,-47393.729999999996,2.357299471691533,3.786108641687853,5.883600780426738,7.631507212730645,7.6992967609212695,6.811745481573452,-1.8482064406933172,1.4996429143079204,0.204284145,-0.214293885,0.92199471,-101.46374,36.73082,-30.9778,70.0
1774822647.1547754,0.0016865730285644531,2026-03-29T22:17:27.154,2026-03-29T18:17:27.154,-33757.74,-46429.604999999996,-84459.15,-49768.74,-12804.84,-17806.995,6392.565,-47468.384999999995,2.220824845378167,1.505925536961037,2.4629206813135975,4.341704812663642,3.9686480907399173,3.3108303096188303,-1.6370213073746263,2.4712078559736086,0.204284145,-0.214293885,0.92199471,-101.46374,36.73082,-30.9778,70.0
1774822647.1547897,1.430511474609375e-05,2026-03-29T22:17:27.154,2026-03-29T18:17:27.154,-33744.465,-46433.88,-84472.965,-49781.97,-12816.18,-17817.57,6418.98,-47530.71,0.8561144909945002,-1.5831234756100288,-2.2405183171304426,-1.0726523102174201,-1.7364602608360606,-1.8606205544007748,-0.7147399004064774,2.2922379145067,0.204284145,-0.214293885,0.92199471,-101.46374,36.73082,-30.9778,70.0
1774822647.160489,0.0056993961334228516,2026-03-29T22:17:27.160,2026-03-29T18:17:27.160,-33759.36,-46461.015,-84507.39,-49818.555,-12849.84,-17842.59,6418.259999999999,-47609.415,-1.0892012243208975,-4.095064301066821,-6.15643737060689,-6.146781488931599,-6.799902572006302,-6.340941694246019,0.5952624745657878,1.0715831634772794,0.204284145,-0.214293885,0.92199471,-101.46374,36.73082,-30.9778,70.0
1774822647.160514,2.5033950805664062e-05,2026-03-29T22:17:27.160,2026-03-29T18:17:27.160,-33779.79,-46463.4,-84500.09999999999,-49806.63,-12831.795,-17813.25,6408.855,-47699.685,-2.6160155545268986,-4.84546027746912,-7.4717493266098165,-8.500273338926075,-8.829915202016007,-8.019494470317891,1.7478980042925383,-0.6122789929897177,0.204284145,-0.214293885,0.92199471,-101.46374,36.73082,-30.9778,70.0
1774822647.162666,0.002151966094970703,2026-03-29T22:17:27.162,2026-03-29T18:17:27.162,-33784.74,-46456.92,-84488.175,-49793.985,-12820.68,-17803.665,6409.215,-47777.939999999995,-2.893067604436596,-3.417446117674525,-5.472121517995721,-6.9511787687342546,-6.786450542530726,-6.0296435863845295,2.2076381441215336,-1.9952980230153925,0.204284145,-0.214293885,0.92199471,-101.46374,36.73082,-30.9778,70.0
1774822647.1626816,1.5497207641601562e-05,2026-03-29T22:17:27.162,2026-03-29T18:17:27.162,-33783.435,-46447.424999999996,-84466.8,-49771.575,-12803.039999999999,-17797.905,6402.78,-47850.659999999996,-1.7046669545585036,-0.388496956780135,-0.9197586561271811,-2.1056084304773863,-1.5073599274899994,-1.1866496624007763,1.7087237426123605,-2.4781013709683073,0.204284145,-0.214293885,0.92199471,-101.46374,36.73082,-30.9778,70.0
1774822647.168463,0.005781412124633789,2026-03-29T22:17:27.168,2026-03-29T18:17:27.168,-33759.045,-46438.92,-84470.22,-49776.165,-12809.025,-17810.91,6398.099999999999,-47901.825,0.41274238493994786,2.9036128714160094,4.22868127369845,3.8697765854531423,4.630195787236398,4.346895682186139,0.41292176090791516,-1.879833406522252,0.183532245,-0.240050655,0.9130836,-113.03081999999999,35.49476,-34.670719999999996,70.0
1774822647.1684933,3.0279159545898438e-05,2026-03-29T22:17:27.168,2026-03-29T18:17:27.168,-33761.43,-46438.604999999996,-84468.23999999999,-49770.54,-12798.045,-17793.315,6403.995,-47970.9,2.4241823110617573,4.960472032596142,7.664491730754028,8.212897479549872,8.779176854661014,8.03035050572185,-1.1289769871691,-0.4911175828530137,0.183532245,-0.240050655,0.9130836,-113.03081999999999,35.49476,-34.670719999999996,70.0
1774822647.1708865,0.0023932456970214844,2026-03-29T22:17:27.170,2026-03-29T18:17:27.170,-33765.479999999996,-46438.244999999995,-84467.11499999999,-49771.08,-12796.515,-17786.835,6415.155,-48054.735,3.314782287567105,4.815305984146544,7.766727321650682,8.841423874201638,8.942732909175861,8.113187584534925,-2.212886236020242,1.0788250309997918,0.183532245,-0.240050655,0.9130836,-113.03081999999999,35.49476,-34.670719999999996,70.0
1774822647.170901,1.4543533325195312e-05,2026-03-29T22:17:27.170,2026-03-29T18:17:27.170,-33786.405,-46449.314999999995,-84474.855,-49774.005,-12799.394999999999,-17792.145,6413.4,-48165.345,2.6081666123936897,2.4933078473279093,4.369359047297734,5.350264550564647,4.93336718927516,4.464575474348881,-2.312490451296658,2.1757435279751762,0.183532245,-0.240050655,0.9130836,-113.03081999999999,35.49476,-34.670719999999996,70.0
1774822647.1777933,0.006892204284667969,2026-03-29T22:17:27.177,2026-03-29T18:17:27.177,-33783.84,-46460.115,-84489.39,-49783.005,-12810.644999999999,-17807.04,6385.23,-48263.174999999996,0.617033456215816,-0.9817643551848358,-1.10831098207833,-0.7462246197584763,-1.4887982040292325,-1.3275287297338163,-1.345574743923265,2.368363697818632,0.183532245,-0.240050655,0.9130836,-113.03081999999999,35.49476,-34.670719999999996,70.0
1774822647.177816,2.2649765014648438e-05,2026-03-29T22:17:27.177,2026-03-29T18:17:27.177,-33771.24,-46456.604999999996,-84483.54,-49774.5,-12808.035,-17810.774999999998,6382.8,-48347.685,-1.7045865043996467,-4.045746323567679,-6.252892418402608,-6.666191240495604,-7.386816131056502,-6.649674306546237,0.26326231377634196,1.6035299126040237,0.183532245,-0.240050655,0.9130836,-113.03081999999999,35.49476,-34.670719999999996,70.0
1774822647.1861777,0.00836181640625,2026-03-29T22:17:27.186,2026-03-29T18:17:27.186,-33796.395,-46446.39,-84454.425,-49751.729999999996,-12781.89,-17779.905,6412.41,-48465.63,-3.2332328421520407,-5.308634802177029,-8.724821632052185,-9.62892374319838,-9.990738895946249,-9.04520501147397,1.7673457608650616,0.2017199929420953,0.183532245,-0.240050655,0.9130836,-113.03081999999999,35.49476,-34.670719999999996,70.0
1774822647.186202,2.4318695068359375e-05,2026-03-29T22:17:27.186,2026-03-29T18:17:27.186,-33797.385,-46430.189999999995,-84440.06999999999,-49749.525,-12773.744999999999,-17762.219999999998,6440.535,-48585.78,-3.2322764582906163,-4.194180296013826,-7.328669567143796,-8.16242538609483,-7.999681253544003,-7.349770761741775,2.450288897949597,-1.2854798488625268,0.183532245,-0.240050655,0.9130836,-113.03081999999999,35.49476,-34.670719999999996,70.0
1774822647.1862235,2.1457672119140625e-05,2026-03-29T22:17:27.186,2026-03-29T18:17:27.186,-33779.565,-46433.43,-84453.795,-49765.545,-12791.699999999999,-17779.815,6433.29,-48684.645,-1.7115780986603688,-1.2060616267404398,-2.5934903448278606,-2.8343623661496737,-2.229539050273678,-2.254846020657777,1.9768794593660532,-2.2880394751913724,0.183532245,-0.240050655,0.9130836,-113.03081999999999,35.49476,-34.670719999999996,70.0
1774822647.1862292,5.7220458984375e-06,2026-03-29T22:17:27.186,2026-03-29T18:17:27.186,-33780.104999999996,-46444.455,-84471.03,-49777.604999999996,-12803.22,-17794.395,6406.514999999999,-48811.77,0.587288049718791,2.3037125605283775,3.419603816706903,3.9568978669392347,4.715616567032765,3.972518293110155,0.5666192700361924,-2.4206465881753543,0.183532245,-0.240050655,0.9130836,-113.03081999999999,35.49476,-34.670719999999996,70.0
1774822647.1862364,7.152557373046875e-06,2026-03-29T22:17:27.186,2026-03-29T18:17:27.186,-33778.575,-46448.595,-84475.75499999999,-49772.97,-12799.619999999999,-17794.44,6392.88,-48950.505,2.5659602562262167,4.755731964040445,8.017590751719869,9.061267956565414,9.61984671376469,8.501368893505548,-1.1029685667672138,-1.6135145621620959,0.182555685,-0.254821125,0.888608565,-121.21018,35.34216,-30.19954,70.0
1774822647.1862414,5.0067901611328125e-06,2026-03-29T22:17:27.186,2026-03-29T18:17:27.186,-33766.784999999996,-46434.825,-84459.59999999999,-49759.38,-12789.585,-17788.41,6389.235,-49086.045,3.3093048480361964,5.063914000969872,9.089343313975535,10.041488189075395,10.14807606305667,9.227693861760578,-2.222615728861674,-0.13778262921179527,0.182555685,-0.254821125,0.888608565,-121.21018,35.34216,-30.19954,70.0
1774822647.191386,0.005144596099853516,2026-03-29T22:17:27.191,2026-03-29T18:17:27.191,-33770.43,-46428.795,-84445.02,-49751.235,-12782.385,-17780.219999999998,6393.0599999999995,-49225.095,2.51830576935807,3.1224588292326882,6.082719020447567,6.340916760778012,5.960899396301393,5.754492614278146,-2.2492819139696842,1.477950272799733,0.182555685,-0.254821125,0.888608565,-121.21018,35.34216,-30.19954,70.0
1774822647.191416,3.0040740966796875e-05,2026-03-29T22:17:27.191,2026-03-29T18:17:27.191,-33778.17,-46436.805,-84455.91,-49765.32,-12795.66,-17791.38,6406.785,-49364.64,0.6265290935984443,-0.16202803249130113,0.289176788717458,-0.4071834010944185,-1.082418864290482,-0.3965692619711212,-1.177646174476599,2.618531758926634,0.182555685,-0.254821125,0.888608565,-121.21018,35.34216,-30.19954,70.0
1774822647.1958947,0.0044786930084228516,2026-03-29T22:17:27.195,2026-03-29T18:17:27.195,-33785.145,-46451.88,-84480.795,-49785.84,-12815.279999999999,-17810.774999999998,6404.67,-49506.479999999996,-1.4429413250496825,-3.3001770611794288,-5.711037136390636,-7.098644720650727,-7.749615959178581,-6.4530995554678485,0.45360864970831727,2.7971861944611107,0.182555685,-0.254821125,0.888608565,-121.21018,35.34216,-30.19954,70.0
1774822647.195918,2.3365020751953125e-05,2026-03-29T22:17:27.195,2026-03-29T18:17:27.195,-33786.765,-46457.145,-84485.925,-49783.59,-12812.4,-17812.035,6398.6849999999995,-49655.115,-2.7424254177239855,-4.904693362935824,-9.205222355268377,-10.590889829146288,-10.923785488997023,-9.646304701598044,1.8280986497870182,1.8516584020498106,0.182555685,-0.254821125,0.888608565,-121.21018,35.34216,-30.19954,70.0
1774822647.199005,0.0030868053436279297,2026-03-29T22:17:27.199,2026-03-29T18:17:27.199,-33791.94,-46462.14,-84485.52,-49777.92,-12804.164999999999,-17810.91,6391.8,-49814.505,-2.7461526326619294,-4.311008979905601,-8.58484286806854,-9.186090259376867,-9.067091547813117,-8.482491758303862,2.2601801850130285,0.04915738691273492,0.182555685,-0.254821125,0.888608565,-121.21018,35.34216,-30.19954,70.0
1774822647.1990447,3.981590270996094e-05,2026-03-29T22:17:27.199,2026-03-29T18:17:27.199,-33773.67,-46442.61,-84466.845,-49773.104999999996,-12804.345,-17813.7,6399.764999999999,-49967.28,-1.5620963564431478,-1.852592249956782,-4.094072979079788,-3.4614606370776535,-2.969322494129145,-3.44536592035546,1.5409384028126467,-1.9593042647573866,0.182555685,-0.254821125,0.888608565,-121.21018,35.34216,-30.19954,70.0
1774822647.2033412,0.004296541213989258,2026-03-29T22:17:27.203,2026-03-29T18:17:27.203,-33760.35,-46426.86,-84456.495,-49774.95,-12804.705,-17806.184999999998,6415.605,-50126.265,0.17569531623191892,1.3230085653772738,2.2618905440862442,3.9621021152372577,4.585161130524963,3.202947592070628,0.04570405872734693,-3.350350868259652,0.182555685,-0.254821125,0.888608565,-121.21018,35.34216,-30.19954,70.0
1774822647.2033596,1.8358230590820312e-05,2026-03-29T22:17:27.203,2026-03-29T18:17:27.203,-33759.0,-46413.99,-84428.28,-49738.14,-12760.47,-17756.954999999998,6427.485,-50290.92,1.6540037209518852,3.797070362453359,7.6172205979392,9.624325588662536,10.093889648141541,8.441921418170507,-1.4543281013179314,-3.452194612184314,0.182555685,-0.254821125,0.888608565,-121.21018,35.34216,-30.19954,70.0
1774822647.2392704,0.035910844802856445,2026-03-29T22:17:27.239,2026-03-29T18:17:27.239,-33762.06,-46420.875,-84431.11499999999,-49737.555,-12757.68,-17749.71,6442.695,-50439.645,2.274461014453593,4.5212832193904795,9.548201546040504,10.84788325149583,10.969081230538947,9.872324689546446,-2.1840599555292153,-2.0616630117446726,0.17407182000000002,-0.277159935,0.87219015,-131.12918,33.8009,-28.79562,70.0
1774822647.239288,1.7642974853515625e-05,2026-03-29T22:17:27.239,2026-03-29T18:17:27.239,-33773.13,-46428.255,-84432.015,-49733.955,-12754.755,-17746.335,6453.224999999999,-50581.665,1.897715266454902,3.264165174167912,7.181337713235782,7.013764624312791,6.761473694975154,6.822191201962306,-1.7625890265161837,0.39222910389058546,0.17407182000000002,-0.277159935,0.87219015,-131.12918,33.8009,-28.79562,70.0
1774822647.2393012,1.3113021850585938e-05,2026-03-29T22:17:27.239,2026-03-29T18:17:27.239,-33774.39,-46425.869999999995,-84448.395,-49756.095,-12776.4,-17760.78,6441.255,-50727.375,0.8369697402756762,0.6712065068447839,1.5949523119187876,-0.1225814152964711,-0.6077326006492964,0.665768897744481,-0.4038411830874777,2.9454248930124236,0.17407182000000002,-0.277159935,0.87219015,-131.12918,33.8009,-28.79562,70.0
1774822647.239306,4.76837158203125e-06,2026-03-29T22:17:27.239,2026-03-29T18:17:27.239,-33760.53,-46425.33,-84477.78,-49792.994999999995,-12815.01,-17798.85,6424.514999999999,-50866.875,-0.361447269238066,-2.0673481571567813,-4.673559763950237,-7.237595405478884,-7.7276227393163905,-5.797799462292184,1.1862282573125011,4.460434185674351,0.17407182000000002,-0.277159935,0.87219015,-131.12918,33.8009,-28.79562,70.0
1774822647.2393122,6.198883056640625e-06,2026-03-29T22:17:27.239,2026-03-29T18:17:27.239,-33758.64,-46432.395,-84481.29,-49788.945,-12812.4,-17804.7,6419.88,-50991.21,-1.2090459314431359,-3.76961729302245,-8.789194356826872,-10.997390586375813,-11.286103156098271,-9.624599930389632,2.1683249647531055,4.127143706298355,0.17407182000000002,-0.277159935,0.87219015,-131.12918,33.8009,-28.79562,70.0
1774822647.2393165,4.291534423828125e-06,2026-03-29T22:17:27.239,2026-03-29T18:17:27.239,-33754.095,-46436.4,-84485.205,-49783.229999999996,-12808.619999999999,-17807.04,6416.91,-51104.835,-1.479251233213379,-3.7758359567898174,-8.91383910687589,-9.632386939982268,-9.622042831685537,-9.076223356627878,2.0047321586849414,1.8853785267632681,0.17407182000000002,-0.277159935,0.87219015,-131.12918,33.8009,-28.79562,70.0
1774822647.2393217,5.245208740234375e-06,2026-03-29T22:17:27.239,2026-03-29T18:17:27.239,-33756.615,-46441.305,-84488.44499999999,-49780.215,-12803.715,-17802.54,6415.83,-51208.784999999996,-1.2365474148499769,-2.1976629154845995,-5.036966850933646,-3.779083093397019,-3.5081508216046613,-4.416424113698312,0.7478557962026524,-1.4476108748912122,0.17407182000000002,-0.277159935,0.87219015,-131.12918,33.8009,-28.79562,70.0
1774822647.2393253,3.5762786865234375e-06,2026-03-29T22:17:27.239,2026-03-29T18:17:27.239,-33784.56,-46446.57,-84480.75,-49772.7,-12791.97,-17787.329999999998,6415.83,-51326.82,-0.712480530531318,0.18741641969799328,1.0376147504643702,3.816025794655549,4.2082643903562325,2.2144558506817296,-0.9701749941400073,-4.450877999766371,0.17407182000000002,-0.277159935,0.87219015,-131.12918,33.8009,-28.79562,70.0
1774822647.2393303,5.0067901611328125e-06,2026-03-29T22:17:27.239,2026-03-29T18:17:27.239,-33799.14,-46442.655,-84466.62,-49755.42,-12775.77,-17775.045,6423.03,-51440.805,-0.1332881174500869,2.321844368059262,6.536141793816349,9.593483265269851,9.939900906882555,7.788389874777035,-2.2496493058715776,-5.698362311673462,0.17407182000000002,-0.277159935,0.87219015,-131.12918,33.8009,-28.79562,70.0
1774822647.239334,3.814697265625e-06,2026-03-29T22:17:27.239,2026-03-29T18:17:27.239,-33778.799999999996,-46442.655,-84474.72,-49764.465,-12789.585,-17791.92,6418.755,-51512.985,0.3857011677863308,3.341179365312331,8.992846731887116,10.86273597767288,11.040130601836822,9.78252696488312,-2.38491884623315,-4.434223636371704,0.17407182000000002,-0.277159935,0.87219015,-131.12918,33.8009,-28.79562,70.0
1774822647.239339,5.0067901611328125e-06,2026-03-29T22:17:27.239,2026-03-29T18:17:27.239,-33782.985,-46443.104999999996,-84472.47,-49770.63,-12794.67,-17793.315,6411.915,-51595.65,0.8257358595970031,2.9209329663570625,7.367400493117299,7.067723178956734,7.0362443230000284,7.3306057685781525,-1.2419209270618528,-1.0056249171957903,0.16137654,-0.319762365,0.8624245500000001,-123.95697999999999,34.9454,-29.238159999999997,70.0
1774822647.2393427,3.5762786865234375e-06,2026-03-29T22:17:27.239,2026-03-29T18:17:27.239,-33779.115,-46432.979999999996,-84463.47,-49772.924999999996,-12795.705,-17789.489999999998,6417.945,-51668.415,1.1675843644495365,1.3597812031380005,2.4898669247147724,0.03470840018454781,-0.1648893603805242,1.6027470844800586,0.6463248512279205,3.1866655936449306,0.16137654,-0.319762365,0.8624245500000001,-123.95697999999999,34.9454,-29.238159999999997,70.0
1774822647.2393477,5.0067901611328125e-06,2026-03-29T22:17:27.239,2026-03-29T18:17:27.239,-33777.09,-46421.82,-84456.94499999999,-49781.115,-12797.955,-17783.325,6432.615,-51743.97,1.308016275811916,-0.6083773216598258,-3.3594704042813723,-6.910624678614691,-7.189938031450119,-4.754889959897696,2.3261743938953123,6.2499029925671605,0.16137654,-0.319762365,0.8624245500000001,-123.95697999999999,34.9454,-29.238159999999997,70.0
1774822647.2393513,3.5762786865234375e-06,2026-03-29T22:17:27.239,2026-03-29T18:17:27.239,-33788.25,-46429.92,-84461.4,-49778.009999999995,-12797.82,-17787.6,6427.3949999999995,-51828.345,1.0752653187886627,-2.162400976355867,-7.524079835820088,-10.528345970855757,-10.791705631161497,-8.85153332628225,2.89858097959798,6.6542328233655414,0.16137654,-0.319762365,0.8624245500000001,-123.95697999999999,34.9454,-29.238159999999997,70.0
1774822647.2393556,4.291534423828125e-06,2026-03-29T22:17:27.239,2026-03-29T18:17:27.239,-33785.505,-46437.93,-84475.8,-49787.685,-12807.314999999999,-17798.76,6420.285,-51907.86,0.35465970535149505,-2.735481903289741,-8.18944438605826,-9.19040260523198,-9.36363385471153,-8.877122340849887,1.9884905140753042,3.9945235840312683,0.16137654,-0.319762365,0.8624245500000001,-123.95697999999999,34.9454,-29.238159999999997,70.0
1774822647.2393596,4.0531158447265625e-06,2026-03-29T22:17:27.239,2026-03-29T18:17:27.239,-33798.06,-46442.115,-84473.64,-49782.6,-12802.814999999999,-17797.364999999998,6416.009999999999,-52003.979999999996,-0.7540005524689223,-2.2088495264113797,-5.181366479986077,-3.621819021135487,-3.6633334420204156,-4.908656488201178,-0.0325474922671728,-0.7197548955107452,0.16137654,-0.319762365,0.8624245500000001,-123.95697999999999,34.9454,-29.238159999999997,70.0
1774822647.2393641,4.5299530029296875e-06,2026-03-29T22:17:27.239,2026-03-29T18:17:27.239,-33792.39,-46438.92,-84470.67,-49774.77,-12795.975,-17794.079999999998,6415.335,-52084.845,-1.8699561227743695,-0.8993170490161296,0.010709210336656198,3.4848538455409455,3.5843352944618125,1.1650437832550151,-2.195669592865584,-5.429679853860485,0.16137654,-0.319762365,0.8624245500000001,-123.95697999999999,34.9454,-29.238159999999997,70.0
1774822647.2393675,3.337860107421875e-06,2026-03-29T22:17:27.239,2026-03-29T18:17:27.239,-33790.229999999996,-46441.215,-84472.92,-49771.845,-12793.635,-17793.945,6409.53,-52161.119999999995,-2.441798515104889,0.622016006698241,4.971387375438236,8.779740732823354,8.998792280227413,6.547693969741082,-3.3972108895717237,-7.925805030916299,0.16137654,-0.319762365,0.8624245500000001,-123.95697999999999,34.9454,-29.238159999999997,70.0
1774822647.243106,0.0037384033203125,2026-03-29T22:17:27.243,2026-03-29T18:17:27.243,-33790.14,-46440.045,-84467.43,-49768.695,-12792.195,-17792.505,6408.8099999999995,-52236.18,-2.016653441043909,1.7792635364449205,7.492328337323171,9.849217881976815,10.134567611784695,8.833599897156242,-2.9543232714074943,-6.888749102013336,0.16137654,-0.319762365,0.8624245500000001,-123.95697999999999,34.9454,-29.238159999999997,70.0
1774822647.2431276,2.1696090698242188e-05,2026-03-29T22:17:27.243,2026-03-29T18:17:27.243,-33787.845,-46438.2,-84464.955,-49766.715,-12791.789999999999,-17791.38,6413.04,-52306.784999999996,-0.5379953382246269,2.2002594536311673,6.564686561977466,6.327981613933442,6.5962339926019675,7.0917770397250175,-0.9766762923382631,-2.579232223920096,0.16137654,-0.319762365,0.8624245500000001,-123.95697999999999,34.9454,-29.238159999999997,70.0
1774822647.2472517,0.004124164581298828,2026-03-29T22:17:27.247,2026-03-29T18:17:27.247,-33783.93,-46442.295,-84478.31999999999,-49786.695,-12809.16,-17806.905,6416.415,-52379.189999999995,1.5078523863203588,1.814189631774671,2.7804622016781053,0.01144273457158797,0.16397030238518562,2.243137273730614,1.6425491146352105,3.18083064513614,0.17614701,-0.34838778,0.856015875,-116.00652,42.94164,-26.67448,70.0
1774822647.2472703,1.8596649169921875e-05,2026-03-29T22:17:27.247,2026-03-29T18:17:27.247,-33782.534999999996,-46449.45,-84496.00499999999,-49811.58,-12833.189999999999,-17827.155,6411.96,-52457.939999999995,3.2224396872451617,0.8277322090122502,-2.0156984450582716,-6.058740588277748,-6.102966245812271,-3.4212220264899744,3.630712520434777,7.775435089412807,0.17614701,-0.34838778,0.856015875,-116.00652,42.94164,-26.67448,70.0
1774822647.2510445,0.0037741661071777344,2026-03-29T22:17:27.251,2026-03-29T18:17:27.251,-33777.135,-46439.595,-84485.655,-49800.104999999996,-12820.59,-17809.649999999998,6410.925,-52542.045,3.6882526758193794,-0.3829902934660708,-5.6287030537402885,-9.070510798813604,-9.33292435907484,-7.330676748891934,3.9517720575995856,8.9887516005945,0.17614701,-0.34838778,0.856015875,-116.00652,42.94164,-26.67448,70.0
1774822647.2510736,2.9087066650390625e-05,2026-03-29T22:17:27.251,2026-03-29T18:17:27.251,-33764.4,-46413.09,-84451.23,-49761.99,-12782.205,-17773.469999999998,6419.16,-52632.27,2.452978593765592,-1.409052375797908,-6.52634613361634,-7.7573796006637785,-8.170146018311714,-7.811719104771519,2.336953238255921,6.078420449862494,0.17614701,-0.34838778,0.856015875,-116.00652,42.94164,-26.67448,70.0
1774822647.255244,0.004170417785644531,2026-03-29T22:17:27.255,2026-03-29T18:17:27.255,-33752.159999999996,-46422.494999999995,-84479.08499999999,-49793.265,-12815.234999999999,-17811.09,6426.405,-52702.38,-0.14835607747281093,-1.928367999938713,-4.491824661709911,-2.932365726792015,-3.344285691178816,-4.8071245571464605,-0.5384503763210959,0.2056240193710544,0.17614701,-0.34838778,0.856015875,-116.00652,42.94164,-26.67448,70.0
1774822647.2552717,2.765655517578125e-05,2026-03-29T22:17:27.255,2026-03-29T18:17:27.255,-33768.854999999996,-46431.765,-84479.48999999999,-49788.854999999996,-12810.285,-17807.489999999998,6418.755,-52793.595,-3.0371095251392557,-1.7854122307092724,-0.6362005669936678,2.9859990136171204,2.7584208836756234,0.17293707814543155,-3.337103502529303,-6.019130545033944,0.17614701,-0.34838778,0.856015875,-116.00652,42.94164,-26.67448,70.0
1774822647.2605505,0.005278825759887695,2026-03-29T22:17:27.260,2026-03-29T18:17:27.260,-33779.97,-46423.08,-84453.345,-49757.445,-12779.64,-17783.505,6405.389999999999,-52888.454999999994,-4.833582788863279,-1.0260356664065489,3.1955412946726365,7.189197633894659,7.280103554127925,4.810584664319494,-4.6830126861074195,-9.70214101655451,0.17614701,-0.34838778,0.856015875,-116.00652,42.94164,-26.67448,70.0
1774822647.2605712,2.0742416381835938e-05,2026-03-29T22:17:27.260,2026-03-29T18:17:27.260,-33816.465,-46441.89,-84462.84,-49766.265,-12791.34,-17798.399999999998,6384.69,-52994.88,-4.519547056549817,0.11226759703481082,5.31181755423568,7.823254496236859,8.241581008101733,7.068154079889463,-3.835086072710666,-9.02103219658329,0.17614701,-0.34838778,0.856015875,-116.00652,42.94164,-26.67448,70.0
1774822647.263465,0.002893686294555664,2026-03-29T22:17:27.263,2026-03-29T18:17:27.263,-33809.85,-46442.34,-84466.70999999999,-49769.055,-12786.795,-17783.505,6402.105,-53063.909999999996,-2.000764769307561,1.256490864792041,4.926154301774478,4.813080285529205,5.414409609731237,6.089403879224012,-1.0822469631106273,-4.1292253988562155,0.17614701,-0.34838778,0.856015875,-116.00652,42.94164,-26.67448,70.0
1774822647.2634945,2.956390380859375e-05,2026-03-29T22:17:27.263,2026-03-29T18:17:27.263,-33773.895,-46414.619999999995,-84449.52,-49758.705,-12776.939999999999,-17768.07,6431.535,-53107.604999999996,1.7361134504586544,2.000382122764703,2.436837819785697,-0.20315898914959357,0.32754401289256285,2.51242493736188,2.346026391018705,2.840013951206045,0.17614701,-0.34838778,0.856015875,-116.00652,42.94164,-26.67448,70.0
1774822647.2695246,0.006030082702636719,2026-03-29T22:17:27.269,2026-03-29T18:17:27.269,-33796.034999999996,-46433.564999999995,-84471.165,-49779.225,-12797.279999999999,-17789.355,6452.325,-53185.68,4.999337908604865,2.0381375398371104,-0.8576284395448418,-4.752551237060661,-4.54867594524431,-1.9134722443790493,4.831464061246486,8.707236237966072,0.195739245,-0.34973055000000003,0.84948513,-129.08434,44.49816,-22.52376,70.0
1774822647.2695448,2.0265579223632812e-05,2026-03-29T22:17:27.269,2026-03-29T18:17:27.269,-33829.155,-46453.32,-84489.435,-49792.32,-12808.439999999999,-17803.71,6440.3099999999995,-53287.02,6.16366744844876,1.2918406613561522,-3.429145867392344,-6.752532922203058,-7.009834506328863,-5.187531307691176,5.13234380806556,10.708151278443585,0.195739245,-0.34973055000000003,0.84948513,-129.08434,44.49816,-22.52376,70.0
1774822647.271278,0.0017330646514892578,2026-03-29T22:17:27.271,2026-03-29T18:17:27.271,-33829.29,-46446.299999999996,-84482.28,-49781.43,-12799.17,-17802.405,6414.884999999999,-53354.204999999994,4.483101379111003,-0.021468461404499036,-4.232641550847027,-5.472779438277648,-6.122471416250105,-5.969393591795845,2.9998117324369065,7.805960927908987,0.195739245,-0.34973055000000003,0.84948513,-129.08434,44.49816,-22.52376,70.0
1774822647.271301,2.3126602172851562e-05,2026-03-29T22:17:27.271,2026-03-29T18:17:27.271,-33823.08,-46442.34,-84477.19499999999,-49776.659999999996,-12793.949999999999,-17795.204999999998,6416.28,-53419.994999999995,0.536596647297359,-1.4301018619900463,-3.1264506033901815,-1.7855049007207446,-2.5645384718390773,-4.123826543692546,-0.6592064822822078,1.2269990165466833,0.195739245,-0.34973055000000003,0.84948513,-129.08434,44.49816,-22.52376,70.0
1774822647.2751386,0.00383758544921875,2026-03-29T22:17:27.275,2026-03-29T18:17:27.275,-33823.395,-46433.205,-84461.67,-49766.715,-12779.595,-17769.42,6425.009999999999,-53497.755,-3.9489826168673106,-2.3653047102659164,-0.8337794106722807,2.3718259328586715,1.8151234759114316,-0.6790239617489745,-4.168924943238306,-6.056610448992258,0.195739245,-0.34973055000000003,0.84948513,-129.08434,44.49816,-22.52376,70.0
1774822647.2751553,1.6689300537109375e-05,2026-03-29T22:17:27.275,2026-03-29T18:17:27.275,-33815.475,-46436.85,-84473.37,-49781.7,-12794.49,-17782.469999999998,6423.21,-53562.195,-6.85900536092484,-2.3905846764086607,1.4891428496053676,5.008130224360727,4.953618482401887,2.7337403292688465,-5.855915470699172,-10.679762648367568,0.195739245,-0.34973055000000003,0.84948513,-129.08434,44.49816,-22.52376,70.0
1774822647.279713,0.004557609558105469,2026-03-29T22:17:27.279,2026-03-29T18:17:27.279,-33803.955,-46439.64,-84483.09,-49793.58,-12807.449999999999,-17799.075,6417.45,-53623.17,-6.697582586560137,-1.4103894546044116,2.832949267827693,5.0387517983953245,5.553354954566063,4.658376450173118,-4.8481274226147075,-10.452276796819845,0.195739245,-0.34973055000000003,0.84948513,-129.08434,44.49816,-22.52376,70.0
1774822647.2797296,1.6689300537109375e-05,2026-03-29T22:17:27.279,2026-03-29T18:17:27.279,-33801.39,-46438.155,-84478.72499999999,-49788.18,-12803.085,-17796.6,6417.63,-53684.909999999996,-3.3568326708776737,0.24390609427926968,2.7732043668728568,2.7279317164696226,3.6153673582865,4.436126077462123,-1.5197015326957228,-5.405261793004833,0.195739245,-0.34973055000000003,0.84948513,-129.08434,44.49816,-22.52376,70.0
1774822647.2836928,0.0039632320404052734,2026-03-29T22:17:27.283,2026-03-29T18:17:27.283,-33795.405,-46436.939999999995,-84479.04,-49787.189999999995,-12801.869999999999,-17797.14,6414.4349999999995,-53742.24,1.7471078767200876,1.9114797463840294,1.5768565650130273,-0.5646922467861164,0.30912785078530824,2.4053075638594166,2.643091059742551,2.1880655451581172,0.195739245,-0.34973055000000003,0.84948513,-129.08434,44.49816,-22.52376,70.0
1774822647.2837124,1.9550323486328125e-05,2026-03-29T22:17:27.283,2026-03-29T18:17:27.283,-33796.979999999996,-46440.63,-84481.605,-49786.47,-12800.115,-17796.78,6410.205,-53802.81,6.275588224354116,2.863779369442559,-0.030638286488044286,-3.1536127591889875,-2.6998026836343803,-0.3656677796432214,5.7094781060335515,8.843828931201365,0.195739245,-0.34973055000000003,0.84948513,-129.08434,44.49816,-22.52376,70.0
1774822647.292586,0.008873701095581055,2026-03-29T22:17:27.292,2026-03-29T18:17:27.292,-33801.345,-46446.525,-84484.17,-49782.6,-12800.07,-17803.62,6406.38,-53863.65,8.050569633918027,2.627989862630794,-1.2790391120878455,-3.8882549901373595,-4.089386585090674,-2.636114528017427,6.203822919574722,11.479832003462672,0.17016558,-0.37145901,0.8441140500000001,-137.20265999999998,45.68844,-21.058799999999998,70.0
1774822647.2926056,1.9550323486328125e-05,2026-03-29T22:17:27.292,2026-03-29T18:17:27.292,-33810.435,-46436.174999999996,-84456.94499999999,-49754.25,-12773.295,-17777.385,6416.009999999999,-53947.53,6.112298883148579,1.226027059719751,-1.7204293366786043,-2.6659825243888764,-3.4643219634873614,-3.5520921412792865,3.816354087280845,8.85622705597409,0.17016558,-0.37145901,0.8441140500000001,-137.20265999999998,45.68844,-21.058799999999998,70.0
1774822647.2926228,1.71661376953125e-05,2026-03-29T22:17:27.292,2026-03-29T18:17:27.292,-33796.845,-46427.445,-84445.02,-49759.515,-12782.295,-17779.95,6414.48,-54003.915,1.233196460921409,-0.7935149283797887,-1.3754270424809378,-0.36777020619008294,-1.424459501337988,-2.9530439491560077,-0.4176278419803678,2.1649223061243754,0.17016558,-0.37145901,0.8441140500000001,-137.20265999999998,45.68844,-21.058799999999998,70.0
