unix_time_s,dt_s,UTC,LOCAL,EMG1_Raw,EMG2_Raw,EMG3_Raw,EMG4_Raw,EMG5_Raw,EMG6_Raw,EMG7_Raw,EMG8_Raw,EMG1_Filtered,EMG2_Filtered,EMG3_Filtered,EMG4_Filtered,EMG5_Filtered,EMG6_Filtered,EMG7_Filtered,EMG8_Filtered,Accel1_Raw,Accel2_Raw,Accel3_Raw,Gyro1_Raw,Gyro2_Raw,Gyro3_Raw,Battery
1774822604.250883,,2026-03-29T22:16:44.250,2026-03-29T18:16:44.250,-33688.26,-46512.63,-84635.595,-50019.525,-12668.355,-18005.309999999998,6449.355,-52999.02,-1.2660974675437415,-1.523187675608861,-1.3385467979320134,-1.1719301192669296,-1.181811951029113,-1.159386846946239,1.6784789669548072,0.28181693487632475,0.1806636,-0.9606909,-0.26794365,-5.2646999999999995,14.43596,0.3815,70.0
1774822604.2509053,2.2172927856445312e-05,2026-03-29T22:16:44.250,2026-03-29T18:16:44.250,-33680.7,-46506.869999999995,-84633.39,-50032.755,-12680.865,-17998.605,6478.335,-52986.465,0.44613404840984533,0.116136609680076,-1.5360495947835646,-1.994342860056202,-1.3433485060936128,6.433694593761606,9.985547450500238,4.214950998479814,0.1806636,-0.9606909,-0.26794365,-5.2646999999999995,14.43596,0.3815,70.0
1774822604.2549465,0.004041194915771484,2026-03-29T22:16:44.254,2026-03-29T18:16:44.254,-33667.604999999996,-46491.84,-84615.84,-50011.604999999996,-12658.59,-17977.545,6524.639999999999,-52969.275,2.0235121802151785,1.770705133610893,-0.9853553283930724,-1.8528438856366989,-0.6136876169216064,11.262104061028444,13.607487118979584,6.265827524162188,0.1806636,-0.9606909,-0.26794365,-5.2646999999999995,14.43596,0.3815,70.0
1774822604.2549644,1.7881393432617188e-05,2026-03-29T22:16:44.254,2026-03-29T18:16:44.254,-33665.895,-46486.619999999995,-84610.53,-50004.945,-12652.109999999999,-17977.094999999998,6512.8949999999995,-52971.615,2.7394872059810838,2.618461729383575,-0.05706949981475894,-0.8735627177676984,0.5196330334644552,10.962085332684104,10.721302492389274,5.469456022083085,0.1806636,-0.9606909,-0.26794365,-5.2646999999999995,14.43596,0.3815,70.0
1774822604.2583027,0.003338336944580078,2026-03-29T22:16:44.258,2026-03-29T18:16:44.258,-33663.24,-46487.52,-84617.415,-50013.314999999995,-12661.605,-17990.64,6493.32,-52973.145,2.2380700127069075,2.210145577428827,0.7387184495062875,0.4396271071454603,1.3253563656418519,5.525495019517213,2.642767425428687,2.167341464063472,0.1806636,-0.9606909,-0.26794365,-5.2646999999999995,14.43596,0.3815,70.0
1774822604.2583222,1.9550323486328125e-05,2026-03-29T22:16:44.258,2026-03-29T18:16:44.258,-33671.115,-46496.384999999995,-84625.245,-50017.5,-12662.955,-17991.719999999998,6496.469999999999,-52973.954999999994,0.7074157525204204,0.702351682336419,1.0256201930402618,1.46077594333059,1.2644096258596889,-2.6258893135267956,-6.76912838344514,-2.138127681854695,0.1806636,-0.9606909,-0.26794365,-5.2646999999999995,14.43596,0.3815,70.0
1774822604.2625496,0.004227399826049805,2026-03-29T22:16:44.262,2026-03-29T18:16:44.262,-33680.43,-46508.4,-84637.215,-50025.555,-12667.635,-17995.86,6498.179999999999,-52976.7,-1.19131107449849,-1.2032658033396975,0.7386125587232397,1.738612671121678,0.3175415102512312,-9.725971722895945,-12.966097431125727,-5.473124904072998,0.1806636,-0.9606909,-0.26794365,-5.2646999999999995,14.43596,0.3815,70.0
1774822604.2626393,8.96453857421875e-05,2026-03-29T22:16:44.262,2026-03-29T18:16:44.262,-33680.295,-46508.04,-84637.935,-50028.299999999996,-12672.359999999999,-18003.69,6482.16,-52980.84,-2.612249558660096,-2.5903928026464587,0.12261009448766004,1.1943401088711898,-0.9846843725780109,-12.420521181909155,-12.927956101427682,-6.306772641029532,0.1806636,-0.9606909,-0.26794365,-5.2646999999999995,14.43596,0.3815,70.0
1774822604.2665343,0.0038950443267822266,2026-03-29T22:16:44.266,2026-03-29T18:16:44.266,-33663.15,-46485.81,-84617.955,-50017.77,-12672.27,-18007.829999999998,6455.565,-52982.235,-2.903224467010622,-2.7706459603076663,-0.4323746284273926,0.13472810560289147,-1.8531642367253789,-9.367856155767333,-6.654033484845977,-4.262584859682987,0.1806636,-0.9606909,-0.26794365,-5.2646999999999995,14.43596,0.3815,70.0
1774822604.266551,1.6689300537109375e-05,2026-03-29T22:16:44.266,2026-03-29T18:16:44.266,-33652.44,-46476.765,-84610.17,-50006.924999999996,-12660.164999999999,-17988.39,6475.455,-52975.17,-1.904277651771261,-1.6236551687556624,-0.619143918257579,-0.9143319435293459,-1.6950387131698372,-1.912923018610905,2.816554450336822,-0.29223942884366044,0.1806636,-0.9606909,-0.26794365,-5.2646999999999995,14.43596,0.3815,70.0
1774822604.270321,0.0037698745727539062,2026-03-29T22:16:44.270,2026-03-29T18:16:44.270,-33662.159999999996,-46487.34,-84615.795,-50003.549999999996,-12652.109999999999,-17979.93,6497.73,-52970.265,-0.030194779147132533,0.3327746639438586,-0.37714598036736463,-1.465620735004369,-0.4774763377545411,6.506659862421181,10.88048482290102,3.770491429689823,0.17907669,-0.9630712650000001,-0.269835735,-5.85984,15.73306,1.03768,70.0
1774822604.2703376,1.6689300537109375e-05,2026-03-29T22:16:44.270,2026-03-29T18:16:44.270,-33687.045,-46513.575,-84642.3,-50033.79,-12706.605,-18012.51,6468.974999999999,-52979.49,1.9035841977629446,2.1803963167446545,0.09290448005489668,-1.2945059314885168,1.2109908485269532,11.960169328596772,13.62417501547522,6.065419498728718,0.17907669,-0.9630712650000001,-0.269835735,-5.85984,15.73306,1.03768,70.0
1774822604.276219,0.005881309509277344,2026-03-29T22:16:44.276,2026-03-29T18:16:44.276,-33671.295,-46495.305,-84624.03,-50021.369999999995,-12712.725,-18012.6,6455.79,-52977.555,3.037584689574494,3.035136784539583,0.46336671815414154,-0.5271055394709047,2.4508274878734277,11.878433220149981,9.745523190859112,5.568092415651999,0.17907669,-0.9630712650000001,-0.269835735,-5.85984,15.73306,1.03768,70.0
1774822604.276256,3.719329833984375e-05,2026-03-29T22:16:44.276,2026-03-29T18:16:44.276,-33665.49,-46483.604999999996,-84607.065,-50005.08,-12670.02,-18008.055,6449.13,-52988.174999999996,2.8507589403189546,2.4713186751330216,0.4811823215896332,0.4399601003329296,2.4879943792933004,6.279778691297785,1.1899203870205848,2.5540014552183323,0.17907669,-0.9630712650000001,-0.269835735,-5.85984,15.73306,1.03768,70.0
1774822604.280409,0.004153013229370117,2026-03-29T22:16:44.280,2026-03-29T18:16:44.280,-33689.655,-46505.88,-84624.39,-50020.2,-12686.67,-18039.105,6462.405,-52999.155,1.3986225664574925,0.731465008871941,0.12046100895429022,1.1407389533353032,1.1700322738676114,-2.2247972672654774,-7.818524890235227,-1.5489338012777167,0.17907669,-0.9630712650000001,-0.269835735,-5.85984,15.73306,1.03768,70.0
1774822604.2804296,2.0503997802734375e-05,2026-03-29T22:16:44.280,2026-03-29T18:16:44.280,-33663.24,-46486.979999999996,-84605.535,-50009.22,-12685.455,-18031.094999999998,6487.2,-52974.405,-0.7010206384063207,-1.380809228979808,-0.39998868050228636,1.2613143333165167,-0.92330588005813,-9.658469501718965,-12.871346865689869,-4.842608228204534,0.17907669,-0.9630712650000001,-0.269835735,-5.85984,15.73306,1.03768,70.0
1774822604.2826228,0.0021932125091552734,2026-03-29T22:16:44.282,2026-03-29T18:16:44.282,-33670.395,-46501.965,-84622.095,-50021.235,-12651.48,-18015.524999999998,6475.275,-52968.96,-2.5321744025976183,-2.8761370540658477,-0.743701564898199,0.7773555532506643,-2.743112555858488,-12.557191226668257,-11.553701338656891,-5.8472971089728984,0.17907669,-0.9630712650000001,-0.269835735,-5.85984,15.73306,1.03768,70.0
1774822604.2826433,2.0503997802734375e-05,2026-03-29T22:16:44.282,2026-03-29T18:16:44.282,-33669.0,-46487.88,-84591.495,-49989.06,-12641.175,-17995.95,6480.495,-52981.244999999995,-3.2812191855046384,-3.0459098475937005,-0.6565633433924039,-0.05102887439328001,-3.3053178482796812,-9.604322023708578,-4.62104635852725,-4.175828467875753,0.17907669,-0.9630712650000001,-0.269835735,-5.85984,15.73306,1.03768,70.0
1774822604.286333,0.0036897659301757812,2026-03-29T22:16:44.286,2026-03-29T18:16:44.286,-33666.93,-46479.555,-84590.86499999999,-49986.134999999995,-12643.02,-17995.86,6483.0599999999995,-52989.795,-2.5986411512363836,-1.798767601357933,-0.12655327291991172,-0.8163430952433242,-2.220486662735756,-2.240755852088448,4.409099684577681,-0.6816674412479397,0.17907669,-0.9630712650000001,-0.269835735,-5.85984,15.73306,1.03768,70.0
1774822604.286354,2.09808349609375e-05,2026-03-29T22:16:44.286,2026-03-29T18:16:44.286,-33668.055,-46489.994999999995,-84615.885,-50016.78,-12663.72,-18006.344999999998,6469.38,-52981.56,-0.7612671418970656,0.29292910550745055,0.58955045569506,-1.1614273221687048,0.06511956556276578,6.037974690273728,11.03861892620659,2.975482851839836,0.17907669,-0.9630712650000001,-0.269835735,-5.85984,15.73306,1.03768,70.0
1774822604.2953842,0.00903010368347168,2026-03-29T22:16:44.295,2026-03-29T18:16:44.295,-33677.909999999996,-46513.619999999995,-84653.145,-50056.11,-12692.789999999999,-18016.649999999998,6429.42,-52984.935,1.4398722429661348,2.2593491227771265,1.093418175182903,-0.9428169491948697,2.458559623308844,11.354990066247746,12.042735317031015,5.126111959347271,0.176574255,-0.9625829850000001,-0.271422645,-8.48456,15.504159999999999,4.059159999999999,70.0
1774822604.2954123,2.8133392333984375e-05,2026-03-29T22:16:44.295,2026-03-29T18:16:44.295,-33677.909999999996,-46517.715,-84657.78,-50047.244999999995,-12671.91,-17978.219999999998,6481.9349999999995,-52971.975,3.0408270464171574,3.186849977828172,1.0622936082819043,-0.2862714291708573,3.756973876978982,11.288794783389843,7.061402534820424,4.863628426930395,0.176574255,-0.9625829850000001,-0.271422645,-8.48456,15.504159999999999,4.059159999999999,70.0
1774822604.2954335,2.1219253540039062e-05,2026-03-29T22:16:44.295,2026-03-29T18:16:44.295,-33664.545,-46496.88,-84629.295,-50016.555,-12663.045,-17995.545,6526.259999999999,-52954.74,3.3278978775320547,2.6452706854799417,0.4395178436826277,0.48486725712194484,3.2627946355436737,5.993861390586071,-1.2672510057041033,2.4307354478060526,0.176574255,-0.9625829850000001,-0.271422645,-8.48456,15.504159999999999,4.059159999999999,70.0
1774822604.29544,6.4373016357421875e-06,2026-03-29T22:16:44.295,2026-03-29T18:16:44.295,-33676.695,-46507.814999999995,-84637.935,-50021.46,-12673.98,-18007.695,6485.535,-52973.595,2.156762535937877,0.8879324565688884,-0.508772973125032,1.0082009992049104,1.158423605824512,-1.921777138750143,-8.68523162982386,-0.947575351835324,0.176574255,-0.9625829850000001,-0.271422645,-8.48456,15.504159999999999,4.059159999999999,70.0
1774822604.2982635,0.0028235912322998047,2026-03-29T22:16:44.298,2026-03-29T18:16:44.298,-33672.15,-46510.155,-84646.125,-50033.295,-12680.775,-18009.54,6441.48,-52979.31,0.02455430260697585,-1.2688565427851237,-1.3102735732484816,1.0501032675650743,-1.561210434612255,-8.684514575755426,-11.492054633957503,-3.6823056268562837,0.176574255,-0.9625829850000001,-0.271422645,-8.48456,15.504159999999999,4.059159999999999,70.0
1774822604.2982836,2.002716064453125e-05,2026-03-29T22:16:44.298,2026-03-29T18:16:44.298,-33665.174999999996,-46488.42,-84616.605,-50012.64,-12674.34,-18007.29,6444.134999999999,-52992.225,-2.1410363591065416,-2.8287555597379463,-1.5241021683834794,0.6059356704445356,-3.573671428495929,-11.171227011183396,-8.40751242664501,-4.577326582477165,0.176574255,-0.9625829850000001,-0.271422645,-8.48456,15.504159999999999,4.059159999999999,70.0
1774822604.3033533,0.005069732666015625,2026-03-29T22:16:44.303,2026-03-29T18:16:44.303,-33670.89,-46497.465,-84628.17,-50020.784999999996,-12716.189999999999,-18036.899999999998,6480.764999999999,-52985.384999999995,-3.3865452421956275,-3.0797084886565576,-0.9791467713216827,-0.10857874221609641,-3.889368378496811,-8.371934638670881,-1.1749283634749819,-3.3599791828591132,0.176574255,-0.9625829850000001,-0.271422645,-8.48456,15.504159999999999,4.059159999999999,70.0
1774822604.303368,1.4781951904296875e-05,2026-03-29T22:16:44.303,2026-03-29T18:16:44.303,-33671.205,-46504.799999999996,-84638.7,-50023.35,-12710.835,-18029.61,6515.955,-52969.59,-3.154567053661442,-1.9216144334337477,0.11394955230645365,-0.7642164913869249,-2.3504545390377345,-1.8047702095797151,6.388823304439941,-0.7462170373803293,0.176574255,-0.9625829850000001,-0.271422645,-8.48456,15.504159999999999,4.059159999999999,70.0
1774822604.3064573,0.0030891895294189453,2026-03-29T22:16:44.306,2026-03-29T18:16:44.306,-33683.76,-46509.525,-84632.895,-50018.715,-12638.43,-17970.795,6514.11,-52978.994999999995,-1.5352338402807781,0.09458805155511991,1.2441459558006818,-1.0695391276656112,0.28853334247583634,5.2900880976869304,10.391605240732808,1.9634439663664796,0.176574255,-0.9625829850000001,-0.271422645,-8.48456,15.504159999999999,4.059159999999999,70.0
1774822604.3065035,4.6253204345703125e-05,2026-03-29T22:16:44.306,2026-03-29T18:16:44.306,-33680.924999999996,-46505.564999999995,-84630.105,-50014.485,-12628.619999999999,-17961.57,6499.53,-52981.064999999995,0.7671009224617125,2.0313364717279856,1.8434402577839781,-0.8970409872546486,2.7407215269240353,9.555820206274706,8.872594976048914,3.535171055497925,0.176574255,-0.9625829850000001,-0.271422645,-8.48456,15.504159999999999,4.059159999999999,70.0
1774822604.3133264,0.006822824478149414,2026-03-29T22:16:44.313,2026-03-29T18:16:44.313,-33660.45,-46481.759999999995,-84608.37,-49994.369999999995,-12634.74,-17961.84,6502.41,-52975.034999999996,2.7408810084073214,3.0046710368552505,1.5747118078089322,-0.33096278240634847,3.832638080003794,9.125218353919845,2.7809452018214076,3.372263207905519,0.17498734500000002,-0.96667233,-0.27197196,-7.0196,14.4207,4.51696,70.0
1774822604.3133452,1.8835067749023438e-05,2026-03-29T22:16:44.313,2026-03-29T18:16:44.313,-33656.31,-46476.18,-84603.375,-49989.915,-12633.615,-17963.235,6469.74,-52980.615,3.5142377469687753,2.591859748196744,0.5173519825914255,0.37822288249439784,3.0844388529132996,4.451066789855036,-4.569945689419061,1.7368556907698198,0.17498734500000002,-0.96667233,-0.27197196,-7.0196,14.4207,4.51696,70.0
1774822604.313361,1.5735626220703125e-05,2026-03-29T22:16:44.313,2026-03-29T18:16:44.313,-33662.205,-46478.744999999995,-84605.265,-49990.634999999995,-12636.539999999999,-17970.57,6440.715,-52997.895,2.743358529639669,1.01660938125713,-0.8500106841748366,0.9266027967473985,0.9297944175456347,-2.015047305161408,-9.273927556663011,-0.45712634942013713,0.17498734500000002,-0.96667233,-0.27197196,-7.0196,14.4207,4.51696,70.0
1774822604.3133683,7.3909759521484375e-06,2026-03-29T22:16:44.313,2026-03-29T18:16:44.313,-33684.795,-46504.215,-84629.11499999999,-50018.49,-12671.055,-18006.075,6428.429999999999,-53007.795,0.76781759982277,-0.9701498288139724,-1.870425630161093,1.0850443373471779,-1.529959365577196,-7.097025960160405,-8.893701253657204,-2.1441045531682335,0.17498734500000002,-0.96667233,-0.27197196,-7.0196,14.4207,4.51696,70.0
1774822604.3184814,0.005113124847412109,2026-03-29T22:16:44.318,2026-03-29T18:16:44.318,-33684.03,-46504.799999999996,-84629.52,-50020.064999999995,-12672.494999999999,-18005.625,6447.599999999999,-52998.75,-1.5386211233503704,-2.451319791790826,-2.029525817137081,0.78959982316814,-3.100601387559743,-8.463372775259895,-3.7296936287439952,-2.6302528223274177,0.17498734500000002,-0.96667233,-0.27197196,-7.0196,14.4207,4.51696,70.0
1774822604.3185005,1.9073486328125e-05,2026-03-29T22:16:44.318,2026-03-29T18:16:44.318,-33690.825,-46516.14,-84641.22,-50022.63,-12667.635,-18001.395,6478.695,-52992.81,-3.156591486959067,-2.771738100987746,-1.2176250126202308,0.16121109883984996,-3.0946891497492772,-5.71167037733395,3.366978476110829,-1.8803208182806677,0.17498734500000002,-0.96667233,-0.27197196,-7.0196,14.4207,4.51696,70.0
1774822604.3223894,0.003888845443725586,2026-03-29T22:16:44.322,2026-03-29T18:16:44.322,-33683.67,-46506.24,-84631.77,-50016.555,-12669.39,-18008.505,6469.875,-52992.314999999995,-3.375446836985063,-1.83138821207016,0.201610843041462,-0.5474383316229441,-1.6469644728037431,-0.4570112740997618,8.533216588279826,-0.44829449046840586,0.17498734500000002,-0.96667233,-0.27197196,-7.0196,14.4207,4.51696,70.0
1774822604.3224003,1.0967254638671875e-05,2026-03-29T22:16:44.322,2026-03-29T18:16:44.322,-33683.85,-46504.17,-84633.66,-50024.97,-12683.564999999999,-18022.454999999998,6457.1849999999995,-52993.845,-2.1090666062635792,-0.11081140204861693,1.5568147091248554,-1.052635527220255,0.40626702010563176,4.574520759188372,8.966853427929236,0.8768948352772679,0.17498734500000002,-0.96667233,-0.27197196,-7.0196,14.4207,4.51696,70.0
1774822604.3333752,0.010974884033203125,2026-03-29T22:16:44.333,2026-03-29T18:16:44.333,-33671.295,-46494.045,-84628.305,-50028.39,-12677.31,-17995.995,6508.755,-52977.689999999995,0.06903812000043627,1.5740599858121247,2.192389878903933,-1.1481361435795534,2.0019195935557517,6.952422722175054,4.432530210262503,1.4996332044377616,0.17498734500000002,-0.96667233,-0.27197196,-7.0196,14.4207,4.51696,70.0
1774822604.3333917,1.6450881958007812e-05,2026-03-29T22:16:44.333,2026-03-29T18:16:44.333,-33644.52,-46462.634999999995,-84588.48,-49993.515,-12649.14,-17971.965,6547.7699999999995,-52952.805,2.1864878808029062,2.462825386242798,1.7915761086277782,-0.7827703054529853,2.4132402525023218,5.725002538838609,-2.603536275009579,1.2896378452884987,0.17498734500000002,-0.96667233,-0.27197196,-7.0196,14.4207,4.51696,70.0
1774822604.3334043,1.2636184692382812e-05,2026-03-29T22:16:44.333,2026-03-29T18:16:44.333,-33670.619999999995,-46487.744999999995,-84610.935,-50013.99,-12675.195,-18009.855,6479.1449999999995,-52980.39,3.3097193385051065,2.198263632263484,0.5374743230430379,-0.0817178645292778,1.5986621061162065,1.7987990994683591,-8.28934660435982,0.5712301252373553,0.17394975000000001,-0.96899166,-0.27581716500000003,-6.9433,12.72684,6.027699999999999,70.0
1774822604.3334086,4.291534423828125e-06,2026-03-29T22:16:44.333,2026-03-29T18:16:44.333,-33656.985,-46484.235,-84619.75499999999,-50014.71,-12673.08,-18011.34,6435.675,-52991.189999999995,2.959915063158442,0.9696277057713522,-0.9711628853095997,0.6948241691419025,0.16100383152133,-2.6364107205718006,-9.460899715639492,-0.13289935469104458,0.17394975000000001,-0.96899166,-0.27581716500000003,-6.9433,12.72684,6.027699999999999,70.0
1774822604.3334143,5.7220458984375e-06,2026-03-29T22:16:44.333,2026-03-29T18:16:44.333,-33658.515,-46487.744999999995,-84621.645,-50011.47,-12660.39,-17989.245,6472.17,-52985.34,1.319742481363258,-0.6058737949575442,-2.0105760276336526,1.2425559267824318,-1.0397166410353895,-5.2982148697181275,-5.370355407488625,-0.4345107019511925,0.17394975000000001,-0.96899166,-0.27581716500000003,-6.9433,12.72684,6.027699999999999,70.0
1774822604.3334188,4.5299530029296875e-06,2026-03-29T22:16:44.333,2026-03-29T18:16:44.333,-33682.32,-46517.625,-84647.87999999999,-50030.64,-12681.675,-17987.94,6524.054999999999,-52974.45,-0.859770822901583,-1.7941316612672265,-2.0860872491184153,1.3251414844981728,-1.3879037189952799,-4.980925190237975,1.863495333653156,-0.29099554130352756,0.17394975000000001,-0.96899166,-0.27581716500000003,-6.9433,12.72684,6.027699999999999,70.0
1774822604.338614,0.005195140838623047,2026-03-29T22:16:44.338,2026-03-29T18:16:44.338,-33679.215,-46503.0,-84623.12999999999,-50012.28,-12693.689999999999,-17975.295,6530.759999999999,-52978.32,-2.6056073142949616,-2.0905391961822284,-1.1735295804792187,0.8703982274025169,-0.8412866849590326,-2.105818419021127,8.344627724816409,0.019049436631525855,0.17394975000000001,-0.96899166,-0.27581716500000003,-6.9433,12.72684,6.027699999999999,70.0
1774822604.338643,2.9087066650390625e-05,2026-03-29T22:16:44.338,2026-03-29T18:16:44.338,-33672.869999999995,-46491.119999999995,-84612.465,-50008.455,-12670.83,-17980.065,6519.375,-52977.465,-3.1614549379012544,-1.4362624552374434,0.27243871573268985,0.014514488072106705,0.09317293448403263,1.6010478899962906,10.472049967949285,0.12432249311138249,0.17394975000000001,-0.96899166,-0.27581716500000003,-6.9433,12.72684,6.027699999999999,70.0
1774822604.34257,0.003926992416381836,2026-03-29T22:16:44.342,2026-03-29T18:16:44.342,-33674.895,-46491.479999999996,-84615.795,-50008.725,-12625.605,-17983.89,6492.42,-52979.67,-2.318824282869586,-0.21060155476965323,1.5467196486741701,-0.9291193450752325,0.7095932564030151,4.094383689323297,6.902340347192827,-0.1597243011897459,0.17394975000000001,-0.96899166,-0.27581716500000003,-6.9433,12.72684,6.027699999999999,70.0
1774822604.3425996,2.956390380859375e-05,2026-03-29T22:16:44.342,2026-03-29T18:16:44.342,-33678.405,-46500.615,-84623.805,-50011.02,-12641.175,-17991.989999999998,6484.724999999999,-52982.235,-0.49383228535986595,0.9813696236730914,2.043482480619403,-1.5758829588768595,0.5636040694582144,4.112568646464014,-0.6532242596102271,-0.6814707950968325,0.17394975000000001,-0.96899166,-0.27581716500000003,-6.9433,12.72684,6.027699999999999,70.0
1774822604.3464212,0.0038216114044189453,2026-03-29T22:16:44.346,2026-03-29T18:16:44.346,-33681.645,-46510.064999999995,-84632.355,-50015.97,-12652.515,-17987.265,6489.855,-52984.665,1.4779835626599402,1.609695274135104,1.5513555000251291,-1.6202958597371848,-0.23675706489546353,1.8116668947926042,-8.252952418472603,-1.0336924820257662,0.17394975000000001,-0.96899166,-0.27581716500000003,-6.9433,12.72684,6.027699999999999,70.0
1774822604.3464403,1.9073486328125e-05,2026-03-29T22:16:44.346,2026-03-29T18:16:44.346,-33682.229999999996,-46508.265,-84630.87,-50013.72,-12653.82,-17991.09,6483.554999999999,-52991.729999999996,2.7276607977134995,1.4583342278466729,0.34717601879916077,-0.9756449398978269,-1.0898442657804617,-1.3870973306477088,-11.771891454263866,-0.8216249270202487,0.17394975000000001,-0.96899166,-0.27581716500000003,-6.9433,12.72684,6.027699999999999,70.0
1774822604.3506105,0.00417017936706543,2026-03-29T22:16:44.350,2026-03-29T18:16:44.350,-33678.494999999995,-46505.88,-84633.39,-50020.74,-12666.779999999999,-18013.77,6463.9349999999995,-52991.64,2.7395666982322813,0.6926566310895866,-0.9552877161942155,0.15898131307133861,-1.2818890232651088,-3.626338038166181,-9.11203560296552,0.044165208029949145,0.175475625,-0.97192134,-0.27685476,-6.104,11.39922,5.5699,70.0
1774822604.3506389,2.8371810913085938e-05,2026-03-29T22:16:44.350,2026-03-29T18:16:44.350,-33662.52,-46491.84,-84623.67,-50020.064999999995,-12672.225,-18035.82,6441.795,-52982.415,1.5648100741588769,-0.26140308955067065,-1.7206374126051334,1.346325168131436,-0.4674986893384815,-3.6506474906536224,-1.4019674696327604,1.218772478557358,0.175475625,-0.97192134,-0.27685476,-6.104,11.39922,5.5699,70.0
1774822604.3646936,0.01405477523803711,2026-03-29T22:16:44.364,2026-03-29T18:16:44.364,-33666.885,-46494.36,-84624.56999999999,-50023.665,-12680.279999999999,-18045.45,6450.12,-52976.115,-0.2274595869135841,-0.9497660985599377,-1.6083121811214198,2.071488291114871,1.0455537559153474,-1.487018692311111,7.482253481902211,2.059166327837828,0.175475625,-0.97192134,-0.27685476,-6.104,11.39922,5.5699,70.0
1774822604.3647084,1.4781951904296875e-05,2026-03-29T22:16:44.364,2026-03-29T18:16:44.364,-33666.119999999995,-46485.63,-84607.37999999999,-50004.045,-12657.914999999999,-18000.855,6493.094999999999,-52978.005,-1.8270829061326554,-1.109057034621344,-0.7299409934119958,1.9611803329642588,2.4010434008912664,1.593871765683387,12.871966264484769,1.9726267962019353,0.175475625,-0.97192134,-0.27685476,-6.104,11.39922,5.5699,70.0
1774822604.3647232,1.4781951904296875e-05,2026-03-29T22:16:44.364,2026-03-29T18:16:44.364,-33674.85,-46489.994999999995,-84606.345,-50002.92,-12655.8,-17985.105,6497.505,-52987.68,-2.55265627060899,-0.7651025640479169,0.42789220675961376,0.970420110890493,2.6604473483446687,3.8018222918626896,11.747950793922286,0.7901601868790642,0.175475625,-0.97192134,-0.27685476,-6.104,11.39922,5.5699,70.0
1774822604.364728,4.76837158203125e-06,2026-03-29T22:16:44.364,2026-03-29T18:16:44.364,-33674.895,-46487.79,-84596.805,-49995.63,-12648.645,-17974.755,6474.509999999999,-52994.159999999996,-2.143389343931853,-0.17536803736501028,1.2686911538248602,-0.5547921578625772,1.3826469972706203,3.832362627175544,4.396557474986256,-1.0566333292732177,0.175475625,-0.97192134,-0.27685476,-6.104,11.39922,5.5699,70.0
1774822604.3647332,5.245208740234375e-06,2026-03-29T22:16:44.364,2026-03-29T18:16:44.364,-33674.174999999996,-46498.14,-84616.605,-50016.869999999995,-12675.869999999999,-17995.635,6402.0599999999995,-53003.07,-0.8470833003887244,0.33693750766303004,1.3963154047844508,-1.986376088136828,-1.0206341925720357,1.6006255130873135,-5.6155352139623345,-2.6843435222697427,0.175475625,-0.97192134,-0.27685476,-6.104,11.39922,5.5699,70.0
1774822604.3647373,4.0531158447265625e-06,2026-03-29T22:16:44.364,2026-03-29T18:16:44.364,-33678.99,-46502.189999999995,-84626.145,-50037.615,-12724.83,-18036.09,6378.48,-53010.18,0.7221258366403457,0.5578455482498436,0.8080794633265904,-2.667899365574193,-3.3910787909823017,-1.6973905924910566,-13.186490498865238,-3.1861690257849276,0.175475625,-0.97192134,-0.27685476,-6.104,11.39922,5.5699,70.0
1774822604.36812,0.0033826828002929688,2026-03-29T22:16:44.368,2026-03-29T18:16:44.368,-33674.13,-46496.744999999995,-84617.50499999999,-50030.64,-12707.234999999999,-18009.54,6494.4,-52978.95,1.8771276022363472,0.47277281504809376,-0.12621038480847224,-2.213415580670999,-4.383012729529468,-4.230574875890562,-14.284270223765539,-2.129716402039674,0.175475625,-0.97192134,-0.27685476,-6.104,11.39922,5.5699,70.0
1774822604.368138,1.811981201171875e-05,2026-03-29T22:16:44.368,2026-03-29T18:16:44.368,-33670.619999999995,-46493.28,-84611.34,-50003.1,-12610.439999999999,-17933.355,6565.41,-52968.645,2.1608138522245897,0.23330782983564965,-0.8809441131003573,-0.7163341527300217,-3.2050339362916653,-4.535911450597895,-8.07916876483576,0.1460632298087522,0.175475625,-0.97192134,-0.27685476,-6.104,11.39922,5.5699,70.0
1774822604.3720024,0.003864288330078125,2026-03-29T22:16:44.372,2026-03-29T18:16:44.372,-33682.77,-46512.27,-84637.98,-50008.14,-12615.164999999999,-17953.515,6525.405,-52979.805,1.5237802293777756,0.03431687221870834,-1.0653455463619166,1.2414904979442798,-0.14283622712315533,-2.334772139856132,2.518112585323035,2.6195605617335693,0.176574255,-0.967709925,-0.27246024,-8.255659999999999,9.20178,6.11926,70.0
1774822604.372023,2.0742416381835938e-05,2026-03-29T22:16:44.372,2026-03-29T18:16:44.372,-33684.255,-46512.314999999995,-84638.97,-50021.009999999995,-12656.205,-17998.469999999998,6485.4,-52982.189999999995,0.3092700550151933,-0.016775235892150638,-0.6294593135244775,2.8083830790177307,3.4541194708718534,1.283573882848579,12.236680251966838,4.0512123623150975,0.176574255,-0.967709925,-0.27246024,-8.255659999999999,9.20178,6.11926,70.0
1774822604.376138,0.004114866256713867,2026-03-29T22:16:44.376,2026-03-29T18:16:44.376,-33669.045,-46487.7,-84612.015,-50007.015,-12645.494999999999,-17978.219999999998,6483.0599999999995,-52983.405,-0.9298789111449314,0.0417059619822055,0.12428279731401351,3.2314275112862734,5.771740029568775,4.418357177391906,16.08299963759387,3.6099973018500946,0.176574255,-0.967709925,-0.27246024,-8.255659999999999,9.20178,6.11926,70.0
1774822604.3761587,2.0742416381835938e-05,2026-03-29T22:16:44.376,2026-03-29T18:16:44.376,-33672.24,-46494.63,-84622.545,-50016.915,-12651.21,-17975.925,6493.724999999999,-52980.57,-1.685175417031955,0.0715903748326735,0.7260371393333479,2.216609112007691,5.4484538556642015,5.363111973209908,11.909430906907435,1.3429597522071297,0.176574255,-0.967709925,-0.27246024,-8.255659999999999,9.20178,6.11926,70.0
1774822604.3838785,0.007719755172729492,2026-03-29T22:16:44.383,2026-03-29T18:16:44.383,-33679.89,-46501.38,-84627.98999999999,-50021.595,-12652.74,-17975.52,6491.969999999999,-52986.42,-1.699229961042997,-0.04903581431794216,0.8141241606857883,0.10894193128751921,2.3455846456352383,3.526535274675376,1.5917053376313746,-1.7724936257168629,0.176574255,-0.967709925,-0.27246024,-8.255659999999999,9.20178,6.11926,70.0
1774822604.3839037,2.5272369384765625e-05,2026-03-29T22:16:44.383,2026-03-29T18:16:44.383,-33680.115,-46500.615,-84625.83,-50022.45,-12652.92,-17972.1,6474.6449999999995,-52990.335,-1.0420048592708613,-0.3178428785778559,0.34552660604558305,-2.210728225257777,-2.2547479099738337,-0.22541000079545934,-9.821672989774838,-4.253012574712099,0.176574255,-0.967709925,-0.27246024,-8.255659999999999,9.20178,6.11926,70.0
1774822604.3842156,0.00031185150146484375,2026-03-29T22:16:44.384,2026-03-29T18:16:44.384,-33683.534999999996,-46509.615,-84638.205,-50029.604999999996,-12656.789999999999,-17979.48,6443.91,-52995.78,-0.041309322292291374,-0.5831143209071638,-0.3783408691365568,-3.690384121988986,-6.179220508183556,-3.9958262376612934,-16.598925624690978,-4.8246413467753015,0.176574255,-0.967709925,-0.27246024,-8.255659999999999,9.20178,6.11926,70.0
1774822604.3842473,3.170967102050781e-05,2026-03-29T22:16:44.384,2026-03-29T18:16:44.384,-33673.59,-46493.729999999996,-84617.055,-50008.545,-12649.994999999999,-17993.565,6424.155,-53003.835,0.8819826891322677,-0.626075049800934,-0.8874281438232999,-3.584068528979091,-7.4023313635263195,-5.83462528557477,-15.217707762895786,-3.0800816621972733,0.176574255,-0.967709925,-0.27246024,-8.255659999999999,9.20178,6.11926,70.0
1774822604.3865092,0.0022618770599365234,2026-03-29T22:16:44.386,2026-03-29T18:16:44.386,-33667.244999999995,-46481.31,-84600.36,-49993.65,-12646.845,-18001.62,6452.28,-52999.02,1.3902842134032698,-0.30734219168720084,-0.8233692592775875,-1.825370878238863,-5.092914415508367,-4.757045385955017,-6.195598010322278,0.2622675017987347,0.176574255,-0.967709925,-0.27246024,-8.255659999999999,9.20178,6.11926,70.0
1774822604.3865287,1.9550323486328125e-05,2026-03-29T22:16:44.386,2026-03-29T18:16:44.386,-33666.659999999996,-46483.56,-84608.37,-49998.915,-12636.855,-17972.415,6495.884999999999,-52986.465,1.3432968893244437,0.3115416674683432,-0.16514379683767655,0.8886962660569442,-0.1270239324108668,-1.2676111590759702,6.092243677456317,3.652388112686062,0.176574255,-0.967709925,-0.27246024,-8.255659999999999,9.20178,6.11926,70.0
1774822604.3910444,0.004515647888183594,2026-03-29T22:16:44.391,2026-03-29T18:16:44.391,-33662.295,-46481.85,-84609.27,-50001.299999999996,-12642.705,-17977.905,6528.15,-52970.49,0.8167092723435315,0.9550177722904952,0.7336418321837104,3.3668684384264895,5.233146634197528,2.8880377466259137,15.55087844986312,5.436334467235656,0.176818395,-0.962216775,-0.26525811,-6.6381,8.7745,5.1121,70.0
1774822604.3910615,1.71661376953125e-05,2026-03-29T22:16:44.391,2026-03-29T18:16:44.391,-33674.715,-46490.445,-84615.345,-50005.845,-12646.35,-17981.64,6512.219999999999,-52983.045,0.039602588620659136,1.255144400092928,1.3278388753507808,4.44604518041295,8.383565065098411,5.616646603934458,17.407253956452642,4.671756125776134,0.176818395,-0.962216775,-0.26525811,-6.6381,8.7745,5.1121,70.0
1774822604.3961797,0.005118131637573242,2026-03-29T22:16:44.396,2026-03-29T18:16:44.396,-33672.42,-46486.979999999996,-84612.375,-50018.174999999996,-12655.89,-17975.43,6501.42,-52987.005,-0.7061181731933847,0.9549519037142622,1.1918863608692998,3.538476365575407,7.657928866007249,5.5514966852415455,10.630288179504527,1.6254296151028607,0.176818395,-0.962216775,-0.26525811,-6.6381,8.7745,5.1121,70.0
1774822604.3961983,1.8596649169921875e-05,2026-03-29T22:16:44.396,2026-03-29T18:16:44.396,-33676.424999999996,-46492.2,-84621.23999999999,-50031.18,-12675.285,-18001.665,6464.295,-52996.59,-1.1792509672741656,0.08391558192623579,0.2879863991193704,0.9460158959327565,3.2078595557419534,2.7488397844151913,-1.501808767259236,-2.3095248976209217,0.176818395,-0.962216775,-0.26525811,-6.6381,8.7745,5.1121,70.0
1774822604.401307,0.005108833312988281,2026-03-29T22:16:44.401,2026-03-29T18:16:44.401,-33679.71,-46498.229999999996,-84625.605,-50027.22,-12670.47,-18001.35,6466.32,-52997.265,-1.2398347921626067,-1.0027214554972457,-0.9667275726303362,-2.2241447054637713,-2.9804481469506614,-1.3527067877350418,-12.996092490787976,-5.257492708275971,0.176818395,-0.962216775,-0.26525811,-6.6381,8.7745,5.1121,70.0
1774822604.401328,2.09808349609375e-05,2026-03-29T22:16:44.401,2026-03-29T18:16:44.401,-33675.84,-46502.549999999996,-84628.305,-50017.95,-12660.615,-17990.505,6497.1449999999995,-52987.049999999996,-0.8737848076455064,-1.764664240277153,-1.8897193060247737,-4.529540266994526,-7.982486215006826,-4.683087521615526,-18.121515810127796,-5.764395733052805,0.176818395,-0.962216775,-0.26525811,-6.6381,8.7745,5.1121,70.0
1774822604.4013512,2.3126602172851562e-05,2026-03-29T22:16:44.401,2026-03-29T18:16:44.401,-33679.215,-46503.494999999995,-84629.97,-50029.695,-12687.48,-18012.059999999998,6476.58,-52988.805,-0.19075215313691304,-1.7440342312108432,-1.8946118580883848,-4.850603486180691,-9.336030060438683,-5.6059186667288,-14.28227405336937,-3.5216079696410456,0.176818395,-0.962216775,-0.26525811,-6.6381,8.7745,5.1121,70.0
1774822604.4013555,4.291534423828125e-06,2026-03-29T22:16:44.401,2026-03-29T18:16:44.401,-33676.515,-46497.689999999995,-84618.94499999999,-50021.505,-12710.52,-18006.48,6460.11,-52996.14,0.5984078538819046,-0.8278292869444254,-0.8368535129814695,-2.936259741363982,-6.267591945151986,-3.7424916383528397,-3.3411071833296098,0.4534522822751594,0.176818395,-0.962216775,-0.26525811,-6.6381,8.7745,5.1121,70.0
1774822604.406814,0.0054585933685302734,2026-03-29T22:16:44.406,2026-03-29T18:16:44.406,-33676.244999999995,-46496.43,-84615.795,-50010.03,-12675.33,-17987.895,6470.594999999999,-52997.625,1.227196737692228,0.6402980991369095,0.8514100668235446,0.4294196973748784,-0.12822557791185005,-0.13218367607996778,9.284744550873329,4.28276816276221,0.176818395,-0.962216775,-0.26525811,-6.6381,8.7745,5.1121,70.0
1774822604.4068398,2.574920654296875e-05,2026-03-29T22:16:44.406,2026-03-29T18:16:44.406,-33671.655,-46489.86,-84615.84,-50002.47,-12613.32,-17972.55,6495.884999999999,-52986.645,1.4465675163950835,1.979558534267823,2.3324094678861935,3.7414673974263124,6.203794592423208,3.341056879809166,17.315363404443342,6.124226106569449,0.176818395,-0.962216775,-0.26525811,-6.6381,8.7745,5.1121,70.0
1774822604.4113092,0.004469394683837891,2026-03-29T22:16:44.411,2026-03-29T18:16:44.411,-33669.54,-46485.405,-84608.325,-49992.705,-12617.505,-17974.35,6497.325,-52988.625,1.1172837534357565,2.4870529183390655,2.775277758626958,5.447336231065789,9.688416074488305,4.942409224791294,16.745694309605998,5.066841060320732,0.17407182000000002,-0.95751708,-0.262145325,-7.15694,8.43878,5.21892,70.0
1774822604.4113483,3.910064697265625e-05,2026-03-29T22:16:44.411,2026-03-29T18:16:44.411,-33681.375,-46499.354999999996,-84622.77,-50008.229999999996,-12644.91,-17985.78,6494.715,-52999.695,0.29130126459356365,1.8029898478563142,1.8082480280625606,4.678415008803026,8.602810319937351,3.972709639364262,7.85545462246095,1.5855534023325313,0.17407182000000002,-0.95751708,-0.262145325,-7.15694,8.43878,5.21892,70.0
1774822604.4158974,0.0045490264892578125,2026-03-29T22:16:44.415,2026-03-29T18:16:44.415,-33667.29,-46495.17,-84625.065,-50013.405,-12654.81,-18005.895,6503.8949999999995,-52983.36,-0.7628834872890932,0.1379750590582866,-0.23044514457950238,1.6938413069571445,3.406495152640548,1.0875761123001657,-4.921848632296621,-2.6731174383095238,0.17407182000000002,-0.95751708,-0.262145325,-7.15694,8.43878,5.21892,70.0
1774822604.4159243,2.6941299438476562e-05,2026-03-29T22:16:44.415,2026-03-29T18:16:44.415,-33671.115,-46504.485,-84636.98999999999,-50024.97,-12670.02,-18019.53,6489.719999999999,-52983.63,-1.6268366371060705,-1.7723977998181641,-2.3966854864896487,-2.1904266517511557,-3.4467520546691364,-2.1026147073766377,-15.211480427262414,-5.677152052501206,0.17407182000000002,-0.95751708,-0.262145325,-7.15694,8.43878,5.21892,70.0
1774822604.4186296,0.0027053356170654297,2026-03-29T22:16:44.418,2026-03-29T18:16:44.418,-33664.275,-46487.34,-84614.67,-50006.655,-12655.98,-18000.315,6479.91,-52988.265,-1.8890833480273646,-2.990305288394511,-3.576884409451418,-5.1793540542506165,-8.676557662839341,-3.9204973949427564,-17.88592428975311,-5.987970437185613,0.17407182000000002,-0.95751708,-0.262145325,-7.15694,8.43878,5.21892,70.0
1774822604.418656,2.6464462280273438e-05,2026-03-29T22:16:44.418,2026-03-29T18:16:44.418,-33661.89,-46484.235,-84614.48999999999,-50010.93,-12663.945,-18005.13,6455.7,-52990.695,-1.3390608318138653,-2.8354686915496443,-3.05550772720057,-5.831476324831795,-9.763562899178606,-3.5124490904925185,-11.630667030171155,-3.456218088182272,0.17407182000000002,-0.95751708,-0.262145325,-7.15694,8.43878,5.21892,70.0
1774822604.422622,0.003965854644775391,2026-03-29T22:16:44.422,2026-03-29T18:16:44.422,-33656.805,-46479.015,-84607.875,-50006.7,-12659.13,-17988.84,6482.07,-52980.975,-0.10772878627652481,-1.256878812586354,-0.926473167512463,-3.759260926851977,-6.181363435569155,-1.2669085482129208,0.4008703065843126,0.705252805837348,0.17407182000000002,-0.95751708,-0.262145325,-7.15694,8.43878,5.21892,70.0
1774822604.42265,2.8133392333984375e-05,2026-03-29T22:16:44.422,2026-03-29T18:16:44.422,-33666.255,-46486.034999999996,-84606.885,-50002.965,-12650.939999999999,-17973.27,6496.92,-52976.025,1.3311496942606444,1.083370050932355,1.8803571366316714,0.14503067207847442,0.33687361183608816,1.4514988528562818,12.172600335277497,4.507284183807588,0.17407182000000002,-0.95751708,-0.262145325,-7.15694,8.43878,5.21892,70.0
1774822604.4285612,0.005911111831665039,2026-03-29T22:16:44.428,2026-03-29T18:16:44.428,-33663.915,-46486.89,-84611.97,-50009.13,-12656.654999999999,-17984.385,6460.965,-52976.295,2.33069245053621,3.0826644804775802,4.003527411681738,4.087318984774681,6.636256540078946,3.090569479679237,17.795122356904827,6.143725642853842,0.17407182000000002,-0.95751708,-0.262145325,-7.15694,8.43878,5.21892,70.0
1774822604.4286032,4.1961669921875e-05,2026-03-29T22:16:44.428,2026-03-29T18:16:44.428,-33677.235,-46506.869999999995,-84635.685,-50020.38,-12662.234999999999,-17989.425,6461.19,-52985.97,2.358562994014176,3.7176148523292643,4.3105998748380445,6.197025811569256,9.677222454454972,2.7796113555079907,14.477448698577444,4.8574115841022945,0.17407182000000002,-0.95751708,-0.262145325,-7.15694,8.43878,5.21892,70.0
1774822604.4358597,0.007256507873535156,2026-03-29T22:16:44.435,2026-03-29T18:16:44.435,-33676.65,-46508.805,-84633.885,-50014.08,-12656.385,-17986.005,6479.37,-52985.34,1.2763244155283486,2.5659250172891137,2.494462355697148,5.420035959603827,8.018474570136597,0.7992925043922438,3.9191126123577793,1.2938038457032206,0.16821246,-0.952146,-0.26074152,-7.3705799999999995,7.53844,4.92898,70.0
1774822604.4358947,3.504753112792969e-05,2026-03-29T22:16:44.435,2026-03-29T18:16:44.435,-33653.655,-46485.72,-84615.795,-50009.49,-12657.465,-17990.684999999998,6447.195,-52975.485,-0.534584013343962,0.0650386715462547,-0.705732961170438,2.05087574455849,2.515629201019734,-1.6029438364211959,-8.554273772676503,-2.8244345730403992,0.16821246,-0.952146,-0.26074152,-7.3705799999999995,7.53844,4.92898,70.0
1774822604.4359207,2.5987625122070312e-05,2026-03-29T22:16:44.435,2026-03-29T18:16:44.435,-33668.505,-46488.104999999996,-84611.97,-50011.244999999995,-12660.029999999999,-17993.07,6407.235,-53001.494999999995,-2.2893439802358935,-2.6435170254953175,-3.7994559529536036,-2.3666576816052847,-4.109179784067517,-2.943815193953361,-16.673980721383426,-5.537059524410933,0.16821246,-0.952146,-0.26074152,-7.3705799999999995,7.53844,4.92898,70.0
1774822604.435932,1.1205673217773438e-05,2026-03-29T22:16:44.435,2026-03-29T18:16:44.435,-33664.365,-46471.14,-84585.33,-49984.064999999995,-12634.965,-17971.785,6415.74,-53021.655,-3.1351694348218917,-4.235279380548136,-5.241582739900264,-5.744959893383555,-8.613609412638437,-2.3699313909237754,-16.378249530183318,-5.587499586132268,0.16821246,-0.952146,-0.26074152,-7.3705799999999995,7.53844,4.92898,70.0
1774822604.442897,0.006965160369873047,2026-03-29T22:16:44.442,2026-03-29T18:16:44.442,-33671.835,-46489.365,-84609.765,-50016.689999999995,-12669.074999999999,-17997.614999999998,6463.17,-53004.104999999996,-2.5648419842177295,-3.8516696785771196,-4.204423872484037,-6.442971743925496,-8.830826562970483,-0.16954698103514057,-7.845779153151172,-3.0097936712234477,0.16821246,-0.952146,-0.26074152,-7.3705799999999995,7.53844,4.92898,70.0
1774822604.4429305,3.337860107421875e-05,2026-03-29T22:16:44.442,2026-03-29T18:16:44.442,-33678.81,-46504.35,-84628.845,-50040.134999999995,-12688.875,-18009.989999999998,6507.09,-52978.77,-0.7079738228505958,-1.5580004100646287,-1.039009028961074,-4.0699689293664,-4.725303020100889,2.3654759410117037,4.606516472327786,0.9153592534176522,0.16821246,-0.952146,-0.26074152,-7.3705799999999995,7.53844,4.92898,70.0
1774822604.4429612,3.075599670410156e-05,2026-03-29T22:16:44.442,2026-03-29T18:16:44.442,-33697.305,-46515.735,-84636.54,-50036.985,-12679.695,-18007.065,6491.205,-53002.665,1.6628759214835762,1.6318459323925014,2.826605173072504,0.29380777736964137,1.6112008704578349,3.663487357046649,14.704624582058416,4.301123527549374,0.16821246,-0.952146,-0.26074152,-7.3705799999999995,7.53844,4.92898,70.0
1774822604.442978,1.6689300537109375e-05,2026-03-29T22:16:44.442,2026-03-29T18:16:44.442,-33679.755,-46491.39,-84603.78,-49998.195,-12644.775,-17983.305,6490.3949999999995,-53002.665,3.44704967409274,4.202842388927139,5.534315854542746,4.58444931202892,7.015677208510596,2.7878144307930506,17.375701314999052,5.569280026724319,0.16821246,-0.952146,-0.26074152,-7.3705799999999995,7.53844,4.92898,70.0
1774822604.4477432,0.00476527214050293,2026-03-29T22:16:44.447,2026-03-29T18:16:44.447,-33668.28,-46480.725,-84587.58,-49973.085,-12616.695,-17954.19,6526.8,-52982.595,3.727089099277076,4.861560764561312,5.694246947184793,6.73210593871446,8.831485011933196,0.028747730040912883,11.293648488453805,4.191978667096382,0.16821246,-0.952146,-0.26074152,-7.3705799999999995,7.53844,4.92898,70.0
1774822604.447772,2.8848648071289062e-05,2026-03-29T22:16:44.447,2026-03-29T18:16:44.447,-33666.39,-46473.525,-84585.645,-49972.814999999995,-12619.439999999999,-17960.265,6516.045,-52985.025,2.2385868721863615,3.1879011889598274,3.097771938090262,5.665142929832556,6.220232025617541,-3.177611773470807,-0.46517824665308755,0.9088100472313897,0.16821246,-0.952146,-0.26074152,-7.3705799999999995,7.53844,4.92898,70.0
1774822604.4505224,0.002750396728515625,2026-03-29T22:16:44.450,2026-03-29T18:16:44.450,-33660.63,-46473.525,-84593.97,-49970.205,-12609.81,-17947.125,6527.61,-52986.869999999995,-0.44176074007521876,-0.11340939476278296,-1.1206778619511,1.8507992970779503,0.5572643310379405,-4.990984533123616,-11.979547640741767,-2.668686752623004,0.162902415,-0.945126975,-0.2612298,-10.666739999999999,5.55464,4.07442,70.0
1774822604.4505365,1.4066696166992188e-05,2026-03-29T22:16:44.450,2026-03-29T18:16:44.450,-33663.869999999995,-46489.409999999996,-84613.31999999999,-49974.93,-12606.48,-17941.77,6522.344999999999,-52986.375,-3.1096559743218095,-3.506843030653799,-4.980356243594414,-2.9031017023535814,-5.279156721633809,-4.187387880314868,-17.464560778633064,-4.854332147303603,0.162902415,-0.945126975,-0.2612298,-10.666739999999999,5.55464,4.07442,70.0
1774822604.4558308,0.005294322967529297,2026-03-29T22:16:44.455,2026-03-29T18:16:44.455,-33660.9,-46481.85,-84602.47499999999,-49981.814999999995,-12621.105,-17957.565,6504.795,-52982.729999999996,-4.475357719553352,-5.344828321104431,-6.592010003320743,-6.304785640834842,-8.361605113260747,-0.9040398103837408,-14.174672081743228,-4.6890253250001654,0.162902415,-0.945126975,-0.2612298,-10.666739999999999,5.55464,4.07442,70.0
1774822604.4558473,1.6450881958007812e-05,2026-03-29T22:16:44.455,2026-03-29T18:16:44.455,-33673.905,-46498.905,-84625.155,-50007.42,-12644.865,-17975.475,6499.8,-52986.15,-3.7898381958456206,-4.672705081053493,-5.089321031072443,-6.687445452122758,-7.178129010626111,3.3210709210273586,-3.7718569923696887,-2.3622478864261605,0.162902415,-0.945126975,-0.2612298,-10.666739999999999,5.55464,4.07442,70.0
1774822604.4586613,0.002814054489135742,2026-03-29T22:16:44.458,2026-03-29T18:16:44.458,-33669.854999999996,-46500.93,-84636.045,-50025.825,-12666.24,-17991.945,6501.285,-52979.085,-1.249203918089123,-1.723967845065692,-1.0915300493068574,-3.8315207046757345,-2.375408560304137,6.279689759425041,8.521234056332059,0.9323066542053006,0.162902415,-0.945126975,-0.2612298,-10.666739999999999,5.55464,4.07442,70.0
1774822604.4586859,2.4557113647460938e-05,2026-03-29T22:16:44.458,2026-03-29T18:16:44.458,-33668.145,-46500.479999999996,-84634.69499999999,-50026.68,-12671.865,-18001.62,6491.655,-52978.32,2.0391445638782866,2.15143734881387,3.5490944093029135,0.9082631535355989,3.5857231465579655,6.2421675189102155,16.54896430407069,3.6116469465123164,0.162902415,-0.945126975,-0.2612298,-10.666739999999999,5.55464,4.07442,70.0
1774822604.462862,0.004176139831542969,2026-03-29T22:16:44.462,2026-03-29T18:16:44.462,-33662.52,-46494.945,-84629.97,-50022.854999999996,-12674.52,-18017.954999999998,6480.855,-52974.27,4.540457427698583,5.1103274864186865,6.614052065522862,5.244780611302871,7.681400385290927,2.9280345116360698,16.30626683155378,4.471142649360378,0.162902415,-0.945126975,-0.2612298,-10.666739999999999,5.55464,4.07442,70.0
1774822604.4628785,1.6450881958007812e-05,2026-03-29T22:16:44.462,2026-03-29T18:16:44.462,-33649.965,-46479.104999999996,-84615.93,-50009.58,-12662.82,-18014.535,6487.74,-52971.165,5.014703538546703,5.701030234597283,6.59033729984389,7.065347338072051,7.848748185379782,-2.233497469338839,7.931789545814845,3.229335596161145,0.162902415,-0.945126975,-0.2612298,-10.666739999999999,5.55464,4.07442,70.0
1774822604.4670768,0.004198312759399414,2026-03-29T22:16:44.467,2026-03-29T18:16:44.467,-33651.18,-46468.215,-84598.515,-49988.43,-12640.365,-18001.575,6489.855,-52984.89,3.133964743786195,3.5810111098005075,3.4241622501923983,5.46577911493418,4.017026334654447,-6.732827447686929,-4.380424239477855,0.6018336448549113,0.162902415,-0.945126975,-0.2612298,-10.666739999999999,5.55464,4.07442,70.0
1774822604.4670959,1.9073486328125e-05,2026-03-29T22:16:44.467,2026-03-29T18:16:44.467,-33675.615,-46490.895,-84617.55,-50006.295,-12659.13,-18017.91,6437.969999999999,-53002.485,-0.31412486050974203,-0.29036864767454257,-1.4223059827204871,1.2026154001156983,-1.8673651611462727,-8.215923394132188,-14.493611631607322,-2.1024545632426412,0.162902415,-0.945126975,-0.2612298,-10.666739999999999,5.55464,4.07442,70.0
1774822604.472469,0.005373239517211914,2026-03-29T22:16:44.472,2026-03-29T18:16:44.472,-33686.955,-46508.939999999995,-84639.19499999999,-50029.74,-12680.369999999999,-18018.54,6428.115,-52995.42,-3.756587192588569,-4.090880616123038,-5.653906447653585,-3.6645891096704983,-6.82768264660938,-5.71109309487611,-17.39616710076963,-3.6385014759497754,0.161681715,-0.94189212,-0.261168765,-14.02394,4.3338399999999995,4.577999999999999,70.0
1774822604.4724977,2.86102294921875e-05,2026-03-29T22:16:44.472,2026-03-29T18:16:44.472,-33678.585,-46498.77,-84629.43,-50025.465,-12679.109999999999,-18002.925,6481.485,-52978.005,-5.560639016091048,-6.0033637322113975,-7.242965337666291,-6.771890828892063,-8.354761126891127,-0.2080328082420069,-11.686540721262153,-3.40358651335487,0.161681715,-0.94189212,-0.261168765,-14.02394,4.3338399999999995,4.577999999999999,70.0
1774822604.4752936,0.0027959346771240234,2026-03-29T22:16:44.475,2026-03-29T18:16:44.475,-33661.575,-46473.255,-84594.78,-49983.03,-12632.355,-17955.63,6531.48,-52967.79,-4.815950082456792,-5.094382596820236,-5.413460438292089,-6.604103879710264,-5.6637130024549,5.739567617315467,-0.24132031917826735,-1.6657179466409031,0.161681715,-0.94189212,-0.261168765,-14.02394,4.3338399999999995,4.577999999999999,70.0
1774822604.4753246,3.0994415283203125e-05,2026-03-29T22:16:44.475,2026-03-29T18:16:44.475,-33661.71,-46480.5,-84603.19499999999,-49987.665,-12632.22,-17954.415,6519.96,-52967.7,-1.7946854352934734,-1.7738198872536728,-1.025121057044383,-3.23680215658022,-0.08346701064104108,9.225189547731864,11.24912911683679,0.6398717022104444,0.161681715,-0.94189212,-0.261168765,-14.02394,4.3338399999999995,4.577999999999999,70.0
1774822604.4803517,0.005027055740356445,2026-03-29T22:16:44.480,2026-03-29T18:16:44.480,-33666.119999999995,-46488.689999999995,-84613.815,-49996.125,-12644.505,-17971.11,6517.9349999999995,-52971.299999999996,2.1442173860857054,2.3933300134715347,3.835518578943048,1.6984579318404378,5.609317652000013,8.428397616424165,17.12665539187994,2.4121575416025265,0.161681715,-0.94189212,-0.261168765,-14.02394,4.3338399999999995,4.577999999999999,70.0
1774822604.4803753,2.3603439331054688e-05,2026-03-29T22:16:44.480,2026-03-29T18:16:44.480,-33666.705,-46483.74,-84609.495,-49996.215,-12647.97,-17991.09,6502.634999999999,-52978.5,5.175349955260352,5.435425134687776,6.8608386703763,5.809722034216844,8.573548480564343,3.560693142117452,14.562461744010525,2.9158329070288045,0.161681715,-0.94189212,-0.261168765,-14.02394,4.3338399999999995,4.577999999999999,70.0
1774822604.484484,0.0041086673736572266,2026-03-29T22:16:44.484,2026-03-29T18:16:44.484,-33664.005,-46475.549999999996,-84600.09,-49996.935,-12656.789999999999,-18006.84,6492.96,-52982.505,5.864270069930728,5.920091433270398,6.633847410095485,7.1105743914887585,7.312913178171369,-3.172408926475998,4.91722375126648,2.0837929766622456,0.161681715,-0.94189212,-0.261168765,-14.02394,4.3338399999999995,4.577999999999999,70.0
1774822604.4845128,2.8848648071289062e-05,2026-03-29T22:16:44.484,2026-03-29T18:16:44.484,-33662.655,-46474.29,-84597.3,-49996.665,-12664.664999999999,-18015.075,6489.2699999999995,-52978.68,3.8535949510211256,3.6375222464670047,3.3027274112656446,4.984339920868837,2.4138643003900278,-8.598906498433347,-6.9901640871415935,0.46764935724101847,0.161681715,-0.94189212,-0.261168765,-14.02394,4.3338399999999995,4.577999999999999,70.0
1774822604.4893775,0.004864692687988281,2026-03-29T22:16:44.489,2026-03-29T18:16:44.489,-33676.02,-46501.695,-84628.935,-50009.085,-12672.359999999999,-18019.44,6478.605,-52981.2,0.045645214712344936,-0.309436206420086,-1.508423554109717,0.4755702628553433,-3.7457226962404926,-10.10624404133323,-15.310346860747396,-1.101402146840864,0.161681715,-0.94189212,-0.261168765,-14.02394,4.3338399999999995,4.577999999999999,70.0
1774822604.489398,2.0503997802734375e-05,2026-03-29T22:16:44.489,2026-03-29T18:16:44.489,-33681.015,-46511.865,-84645.62999999999,-50035.905,-12714.255,-18017.954999999998,6444.8099999999995,-52981.02,-3.811260976703179,-4.04721623532405,-5.501840797540299,-4.229242942983624,-8.164507112950975,-6.917585392692664,-16.05690693395088,-1.9420904492510869,0.161681715,-0.94189212,-0.261168765,-14.02394,4.3338399999999995,4.577999999999999,70.0
1774822604.508823,0.019424915313720703,2026-03-29T22:16:44.508,2026-03-29T18:16:44.508,-33668.46,-46497.6,-84635.64,-50031.99,-12739.14,-18008.684999999998,6445.259999999999,-52972.604999999996,-5.939204900088567,-5.835460256248784,-6.820747492707956,-6.871044295126933,-8.681834750396726,-0.48629586618634524,-9.025519297229426,-1.8203971901215699,0.163390695,-0.94909425,-0.26391534,-15.229479999999999,5.1273599999999995,3.0672599999999997,70.0
1774822604.508849,2.5987625122070312e-05,2026-03-29T22:16:44.508,2026-03-29T18:16:44.508,-33659.28,-46484.595,-84616.065,-49996.665,-12669.255,-17988.12,6507.179999999999,-52962.165,-5.361962504116271,-4.8901468610113,-4.927846301615869,-6.210157431116748,-5.021666675353462,6.190475700780062,2.189742821703467,-0.9843545546525014,0.163390695,-0.94909425,-0.26391534,-15.229479999999999,5.1273599999999995,3.0672599999999997,70.0
1774822604.508886,3.719329833984375e-05,2026-03-29T22:16:44.508,2026-03-29T18:16:44.508,-33671.744999999995,-46491.075,-84614.4,-49997.07,-12624.255,-17986.995,6497.594999999999,-52970.805,-2.356589653339215,-1.7302791041893608,-0.8246063531387032,-2.6088822474958975,1.0839824671062832,10.004718031680971,12.048623957446022,0.044475642670863985,0.163390695,-0.94909425,-0.26391534,-15.229479999999999,5.1273599999999995,3.0672599999999997,70.0
1774822604.508897,1.0967254638671875e-05,2026-03-29T22:16:44.508,2026-03-29T18:16:44.508,-33673.365,-46490.58,-84612.06,-50002.02,-12614.895,-17981.594999999998,6452.955,-52986.329999999994,1.6858569589972552,2.1070746691123765,3.4788799740218757,2.1702169020758526,6.73774540632692,9.21610768222912,15.825963695625095,0.7801545522418094,0.163390695,-0.94909425,-0.26391534,-15.229479999999999,5.1273599999999995,3.0672599999999997,70.0
1774822604.5089092,1.2159347534179688e-05,2026-03-29T22:16:44.508,2026-03-29T18:16:44.508,-33667.11,-46487.07,-84610.575,-50000.31,-12642.75,-17994.51,6432.66,-52986.329999999994,4.918138053826077,4.827525371308627,5.9630920313203815,5.8376982237368455,9.265324693710033,4.25836996987607,11.895912125340464,1.0049582890784214,0.163390695,-0.94909425,-0.26391534,-15.229479999999999,5.1273599999999995,3.0672599999999997,70.0
1774822604.5089192,1.0013580322265625e-05,2026-03-29T22:16:44.508,2026-03-29T18:16:44.508,-33661.395,-46483.965,-84607.785,-49993.02,-12636.449999999999,-17972.73,6476.985,-52976.07,5.8956975396538285,5.233748183479378,5.564381788218509,6.684749453121443,7.477473659071188,-2.5063772666299142,2.4260968902784104,0.8129149307314771,0.163390695,-0.94909425,-0.26391534,-15.229479999999999,5.1273599999999995,3.0672599999999997,70.0
1774822604.5089319,1.2636184692382812e-05,2026-03-29T22:16:44.508,2026-03-29T18:16:44.508,-33662.115,-46485.134999999995,-84613.77,-49996.53,-12635.055,-17965.079999999998,6519.78,-52970.445,4.230060624384824,3.2594513425677047,2.6367197963940296,4.383676582787871,2.2104874965277572,-7.945124623546996,-7.811877208601568,0.4713262260898655,0.163390695,-0.94909425,-0.26391534,-15.229479999999999,5.1273599999999995,3.0672599999999997,70.0
1774822604.5089412,9.298324584960938e-06,2026-03-29T22:16:44.508,2026-03-29T18:16:44.508,-33671.34,-46496.744999999995,-84629.385,-50014.53,-12656.654999999999,-17992.35,6497.28,-52971.03,0.7371079589751346,-0.058976374079237094,-1.2941367967153103,0.10373455831640617,-4.091973332361212,-9.642800221276056,-13.867023218173994,0.21043880619576372,0.163390695,-0.94909425,-0.26391534,-15.229479999999999,5.1273599999999995,3.0672599999999997,70.0
1774822604.508953,1.1920928955078125e-05,2026-03-29T22:16:44.508,2026-03-29T18:16:44.508,-33686.505,-46503.225,-84629.925,-50016.6,-12666.33,-18010.35,6443.955,-52992.09,-2.9729952673769073,-3.1312892112434936,-4.330308069256576,-4.0921551321800775,-8.535114980953853,-6.9980356371943095,-13.029170297261295,0.08096256632201002,0.163390695,-0.94909425,-0.26391534,-15.229479999999999,5.1273599999999995,3.0672599999999997,70.0
1774822604.5089626,9.5367431640625e-06,2026-03-29T22:16:44.508,2026-03-29T18:16:44.508,-33686.729999999996,-46501.29,-84629.83499999999,-50019.525,-12671.46,-18011.88,6411.0599999999995,-52999.829999999994,-5.253857104147818,-4.590478773341844,-5.134545192757108,-6.255122496463975,-9.109670408315253,-1.4174216662483294,-6.050699697480443,-0.03684468222802198,0.163390695,-0.94909425,-0.26391534,-15.229479999999999,5.1273599999999995,3.0672599999999997,70.0
1774822604.5137377,0.004775047302246094,2026-03-29T22:16:44.513,2026-03-29T18:16:44.513,-33683.4,-46497.15,-84624.25499999999,-50013.494999999995,-12663.765,-17998.605,6436.349999999999,-52999.56,-5.164563255490825,-3.9116568762088417,-3.5303127932152703,-5.464088524011741,-5.58820652823945,4.442950261309504,3.3850424616520263,-0.2923026852808455,0.16650348,-0.95641845,-0.266539845,-10.468359999999999,7.3705799999999995,3.37246,70.0
1774822604.5137544,1.6689300537109375e-05,2026-03-29T22:16:44.513,2026-03-29T18:16:44.513,-33670.08,-46484.82,-84609.98999999999,-49994.145,-12642.57,-17975.295,6503.445,-52986.329999999994,-2.8552898041622816,-1.5871836776198496,-0.49425309347467444,-2.2127191743298655,0.412702748105169,7.976883253891935,10.610342667454228,-0.6981275452648006,0.16650348,-0.95641845,-0.266539845,-10.468359999999999,7.3705799999999995,3.37246,70.0
1774822604.5176928,0.003938436508178711,2026-03-29T22:16:44.517,2026-03-29T18:16:44.517,-33661.395,-46483.515,-84613.36499999999,-49999.5,-12648.645,-17980.2,6527.34,-52973.865,0.5598770734334046,1.1921331958976908,2.4142642185104695,1.8903578976503947,6.201350735109525,7.817740390747793,12.306299228528143,-1.0626317202874125,0.16650348,-0.95641845,-0.266539845,-10.468359999999999,7.3705799999999995,3.37246,70.0
1774822604.517728,3.528594970703125e-05,2026-03-29T22:16:44.517,2026-03-29T18:16:44.517,-33644.34,-46469.7,-84600.18,-49992.795,-12652.289999999999,-18004.86,6484.5,-52971.975,3.5535891868223786,3.155557122254056,3.862110907770134,4.930393404988172,9.232859481045688,4.360833257756039,8.046725277671804,-1.0811678270523328,0.16650348,-0.95641845,-0.266539845,-10.468359999999999,7.3705799999999995,3.37246,70.0
1774822604.5235288,0.005800724029541016,2026-03-29T22:16:44.523,2026-03-29T18:16:44.523,-33643.755,-46469.61,-84607.29,-49996.979999999996,-12687.029999999999,-18052.065,6431.3099999999995,-52982.909999999996,4.881427372934162,3.546037270854556,3.366949931406529,5.592316194947662,8.222623770740041,-0.5778731994111007,0.32591350701608346,-0.5425400121526083,0.16650348,-0.95641845,-0.266539845,-10.468359999999999,7.3705799999999995,3.37246,70.0
1774822604.5235515,2.2649765014648438e-05,2026-03-29T22:16:44.523,2026-03-29T18:16:44.523,-33620.13,-46438.875,-84568.95,-49953.104999999996,-12668.76,-18036.045,6480.134999999999,-52958.25,4.099872430592035,2.4055976278016447,1.4383466152790199,3.7291903753554045,3.667366414635668,-4.729871200252612,-6.861496230754071,0.4772088368062181,0.16650348,-0.95641845,-0.266539845,-10.468359999999999,7.3705799999999995,3.37246,70.0
1774822604.5235913,3.981590270996094e-05,2026-03-29T22:16:44.523,2026-03-29T18:16:44.523,-33657.479999999996,-46481.13,-84606.525,-49989.509999999995,-12663.314999999999,-18029.79,6481.889999999999,-52960.545,1.6901562405965738,0.44855486507171816,-0.7934659809481904,0.34780560498880364,-2.4240269188834005,-6.448263922010078,-10.09600384746959,1.5695399998088138,0.16650348,-0.95641845,-0.266539845,-10.468359999999999,7.3705799999999995,3.37246,70.0
1774822604.5236003,9.059906005859375e-06,2026-03-29T22:16:44.523,2026-03-29T18:16:44.523,-33698.475,-46528.47,-84660.84,-50048.505,-12670.92,-18034.829999999998,6415.965,-52980.525,-1.2298895597952118,-1.3661920954927091,-2.2229264220677942,-2.939388992876089,-7.43495670832893,-5.364838596750029,-8.183059859733012,2.1554712013173547,0.16650348,-0.95641845,-0.266539845,-10.468359999999999,7.3705799999999995,3.37246,70.0
1774822604.5285716,0.00497126579284668,2026-03-29T22:16:44.528,2026-03-29T18:16:44.528,-33691.815,-46524.6,-84659.58,-50048.28,-12691.439999999999,-18023.489999999998,6461.19,-52971.525,-3.4369983412410923,-2.3149853658343815,-2.32652589530117,-4.696822775151947,-9.26486348799405,-2.365718783720649,-2.571525499047805,1.7913748069194537,0.16650348,-0.95641845,-0.266539845,-10.468359999999999,7.3705799999999995,3.37246,70.0
1774822604.5285845,1.2874603271484375e-05,2026-03-29T22:16:44.528,2026-03-29T18:16:44.528,-33671.475,-46481.715,-84603.915,-49987.259999999995,-12626.189999999999,-17943.21,6556.05,-52975.17,-4.118361818364761,-2.1969146498136984,-1.3470311153537273,-4.297023033692847,-7.190714505065099,1.012328014071406,3.591975317733811,0.45722773522553156,0.16650348,-0.95641845,-0.266539845,-10.468359999999999,7.3705799999999995,3.37246,70.0
1774822604.5308216,0.002237081527709961,2026-03-29T22:16:44.530,2026-03-29T18:16:44.530,-33671.115,-46481.58,-84602.97,-49995.63,-12638.16,-17951.715,6554.79,-52974.45,-3.1529897038807944,-1.3153571499837542,-0.04395668161144936,-2.1209726114839422,-2.1244665545771397,3.386903819954172,7.19932478324486,-1.3466565834763682,0.16735797,-0.9562963800000001,-0.27026298,-9.14074,6.134519999999999,4.6543,70.0
1774822604.530843,2.1457672119140625e-05,2026-03-29T22:16:44.530,2026-03-29T18:16:44.530,-33684.21,-46511.82,-84641.84999999999,-50015.924999999996,-12647.205,-17961.39,6512.58,-52978.905,-1.0723553061461604,-0.2153326667667459,0.8082255760807662,0.7209384945396541,3.8069843020860694,4.108079989208012,6.761218678723848,-2.7804218649176007,0.16735797,-0.9562963800000001,-0.27026298,-9.14074,6.134519999999999,4.6543,70.0
1774822604.5416017,0.010758638381958008,2026-03-29T22:16:44.541,2026-03-29T18:16:44.541,-33676.244999999995,-46512.09,-84647.61,-50005.575,-12631.23,-17952.704999999998,6524.955,-52975.89,1.2337858904986103,0.6406367047185233,0.8669025603434286,2.9644004967127704,8.156847056974247,3.3612869920106414,3.0232158876859825,-3.0614858452083062,0.16735797,-0.9562963800000001,-0.27026298,-9.14074,6.134519999999999,4.6543,70.0
1774822604.5416214,1.9788742065429688e-05,2026-03-29T22:16:44.541,2026-03-29T18:16:44.541,-33679.215,-46505.61,-84638.925,-50009.534999999996,-12641.535,-17964.045,6503.804999999999,-52979.715,2.9031978390152746,1.0701779507530467,0.3603684457847965,3.761555265258921,9.151631666814595,1.8366917014542739,-1.6372383992254802,-1.8870541128446903,0.16735797,-0.9562963800000001,-0.27026298,-9.14074,6.134519999999999,4.6543,70.0
1774822604.5416443,2.288818359375e-05,2026-03-29T22:16:44.541,2026-03-29T18:16:44.541,-33685.29,-46506.33,-84636.135,-50010.39,-12641.535,-17958.87,6487.74,-52986.06,3.4086677633762865,1.1561393303244887,-0.13809040730965447,2.985336807212989,6.3896764571431985,0.2361891306007664,-4.6289943021469036,0.34418457599773633,0.16735797,-0.9562963800000001,-0.27026298,-9.14074,6.134519999999999,4.6543,70.0
1774822604.541649,4.76837158203125e-06,2026-03-29T22:16:44.541,2026-03-29T18:16:44.541,-33694.335,-46516.59,-84646.17,-50023.305,-12653.64,-17970.614999999998,6461.235,-52989.884999999995,2.686745317920308,1.0732377019349186,-0.1386812835484166,1.1685106046656981,0.9850364387067078,-1.0650958296921185,-4.566365128935829,2.653010005817266,0.16735797,-0.9562963800000001,-0.27026298,-9.14074,6.134519999999999,4.6543,70.0
1774822604.5427353,0.0010862350463867188,2026-03-29T22:16:44.542,2026-03-29T18:16:44.542,-33675.57,-46496.205,-84627.045,-50005.755,-12648.96,-17982.0,6462.405,-52979.4,1.0836049720333374,0.9026573435342968,0.41230559589790255,-0.834308328889421,-4.883290826810148,-2.032706209675182,-1.9207167353154537,3.915593366031893,0.16735797,-0.9562963800000001,-0.27026298,-9.14074,6.134519999999999,4.6543,70.0
1774822604.5427513,1.5974044799804688e-05,2026-03-29T22:16:44.542,2026-03-29T18:16:44.542,-33664.409999999996,-46480.095,-84607.785,-49984.74,-12641.535,-17996.579999999998,6478.469999999999,-52976.564999999995,-0.8151417032524056,0.5724021246416527,1.0813740095302091,-2.2571682108590405,-8.8341941994143,-2.7272202407803343,1.40571713324918,3.4172185872176524,0.16735797,-0.9562963800000001,-0.27026298,-9.14074,6.134519999999999,4.6543,70.0
1774822604.5496368,0.006885528564453125,2026-03-29T22:16:44.549,2026-03-29T18:16:44.549,-33675.345,-46494.63,-84618.045,-49988.88,-12642.525,-17989.38,6465.105,-52980.39,-2.3851484728837242,-0.037490191821691,1.2349795501466088,-2.705051939915745,-9.227924842877142,-3.0363989624239944,3.286476742251575,1.247851549914099,0.16735797,-0.9562963800000001,-0.27026298,-9.14074,6.134519999999999,4.6543,70.0
1774822604.5496545,1.7642974853515625e-05,2026-03-29T22:16:44.549,2026-03-29T18:16:44.549,-33675.03,-46497.869999999995,-84626.685,-50001.39,-12683.699999999999,-18000.989999999998,6457.59,-52980.255,-3.1341285154372485,-0.9086262971143554,0.4892716046549755,-2.2105386735066364,-5.830706488697227,-2.6249980380682043,2.639864411096961,-1.6762193478699858,0.16735797,-0.9562963800000001,-0.27026298,-9.14074,6.134519999999999,4.6543,70.0
1774822604.551416,0.0017614364624023438,2026-03-29T22:16:44.551,2026-03-29T18:16:44.551,-33663.69,-46491.84,-84625.515,-50009.04,-12677.265,-17989.29,6478.335,-52968.24,-2.820020386206214,-1.7672390173288048,-0.9629549590755524,-1.1002217048398875,0.05923894961337608,-1.1763940502611425,0.03301481932755005,-4.003697177760873,0.16943316,-0.95751708,-0.276427515,-10.8346,6.5618,2.86888,70.0
1774822604.551433,1.71661376953125e-05,2026-03-29T22:16:44.551,2026-03-29T18:16:44.551,-33691.68,-46511.64,-84643.515,-50027.265,-12649.994999999999,-18012.015,6440.759999999999,-52989.479999999996,-1.5145021657033957,-2.151793641614612,-2.372286993529591,0.2079853966408517,6.0886343844889,1.2257447432130069,-2.709206820011694,-4.583197452817759,0.16943316,-0.95751708,-0.276427515,-10.8346,6.5618,2.86888,70.0
1774822604.5554297,0.003996610641479492,2026-03-29T22:16:44.555,2026-03-29T18:16:44.555,-33681.284999999996,-46499.265,-84630.87,-50011.965,-12641.22,-18014.94,6432.75,-52989.615,0.39445196698961144,-1.6616250257283016,-2.822662536025131,1.3558445075712602,9.766277289137387,3.8642875173554394,-3.64597932519484,-3.0384854944259443,0.16943316,-0.95751708,-0.276427515,-10.8346,6.5618,2.86888,70.0
1774822604.5554612,3.147125244140625e-05,2026-03-29T22:16:44.555,2026-03-29T18:16:44.555,-33656.76,-46479.735,-84615.525,-50000.22,-12641.31,-17996.13,6463.304999999999,-52964.505,2.2799113940273177,-0.25243665174377405,-1.786994217496382,2.0936115671214304,9.477710204353672,5.541210876560411,-1.938943103072937,0.006005187897722868,0.16943316,-0.95751708,-0.276427515,-10.8346,6.5618,2.86888,70.0
1774822604.5616498,0.006188631057739258,2026-03-29T22:16:44.561,2026-03-29T18:16:44.561,-33651.9,-46477.53,-84610.935,-49995.134999999995,-12636.63,-17981.594999999998,6521.625,-52944.345,3.4470240550055493,1.6136094653490836,0.4755257339338056,2.2607123440589794,5.193456360670016,5.129023577645145,1.5718084079417396,3.1786945906789623,0.16943316,-0.95751708,-0.276427515,-10.8346,6.5618,2.86888,70.0
1774822604.561659,9.298324584960938e-06,2026-03-29T22:16:44.561,2026-03-29T18:16:44.561,-33658.515,-46478.655,-84612.69,-49995.63,-12635.055,-17972.594999999998,6524.28,-52960.365,3.375384525729483,3.0961442787653906,2.939789140276833,1.773100675388409,-1.4394614237291812,2.263835666552046,4.789130293868067,4.98983719832614,0.16943316,-0.95751708,-0.276427515,-10.8346,6.5618,2.86888,70.0
1774822604.5616748,1.5735626220703125e-05,2026-03-29T22:16:44.561,2026-03-29T18:16:44.561,-33658.065,-46470.6,-84602.79,-49985.729999999996,-12627.18,-17968.32,6497.46,-52978.59,1.9567919653298618,3.363497180030483,4.289644156511019,0.6655820331089433,-7.703633892905464,-2.225944286177894,5.562131899015647,4.542174694520612,0.16943316,-0.95751708,-0.276427515,-10.8346,6.5618,2.86888,70.0
1774822604.5616791,4.291534423828125e-06,2026-03-29T22:16:44.561,2026-03-29T18:16:44.561,-33658.92,-46476.765,-84605.58,-49995.405,-12645.0,-17990.55,6497.37,-52967.52,-0.38299220350575747,2.0561781993114536,3.622499290797703,-0.8324801283458805,-10.909411012242115,-6.4789801439318255,2.997643131912927,1.9790359704416902,0.16943316,-0.95751708,-0.276427515,-10.8346,6.5618,2.86888,70.0
1774822604.5764685,0.014789342880249023,2026-03-29T22:16:44.576,2026-03-29T18:16:44.576,-33662.835,-46481.985,-84609.495,-50005.35,-12660.029999999999,-18011.25,6483.509999999999,-52961.13,-2.7718299353758558,-0.4300480669480304,1.0058104398411043,-2.268302196580075,-9.55111846520365,-8.378295226178869,-1.8807600682404262,-1.55561979102461,0.16943316,-0.95751708,-0.276427515,-10.8346,6.5618,2.86888,70.0
1774822604.5765028,3.4332275390625e-05,2026-03-29T22:16:44.576,2026-03-29T18:16:44.576,-33669.18,-46484.865,-84612.735,-50002.695,-12651.795,-18002.655,6482.07,-52966.935,-4.200872461290659,-3.0314867540050594,-2.442628329394477,-3.0627374413714024,-4.024308921004763,-6.61946635972257,-6.545696095568838,-4.4376956437622015,0.16943316,-0.95751708,-0.276427515,-10.8346,6.5618,2.86888,70.0
1774822604.5765352,3.24249267578125e-05,2026-03-29T22:16:44.576,2026-03-29T18:16:44.576,-33665.04,-46471.455,-84591.62999999999,-49973.534999999996,-12618.404999999999,-17970.434999999998,6471.495,-52984.125,-3.9560089341245392,-4.4789916817958755,-5.040714685284654,-2.742022791142749,3.44267458686869,-1.5244745141617035,-8.280966669159444,-5.3223176003695984,0.17309526,-0.964047825,-0.28106617500000003,-13.13886,5.08158,5.52412,70.0
1774822604.576552,1.6689300537109375e-05,2026-03-29T22:16:44.576,2026-03-29T18:16:44.576,-33677.64,-46493.055,-84617.595,-49983.479999999996,-12622.545,-17975.204999999998,6451.965,-52998.525,-1.9839586139641296,-3.931046327971954,-5.379047205783467,-1.2125384163952468,9.669099596312105,4.881248472148736,-5.711407127910011,-3.780784218769892,0.17309526,-0.964047825,-0.28106617500000003,-13.13886,5.08158,5.52412,70.0
1774822604.576572,2.002716064453125e-05,2026-03-29T22:16:44.576,2026-03-29T18:16:44.576,-33694.155,-46514.115,-84639.915,-50002.604999999996,-12641.535,-17996.445,6461.054999999999,-52994.025,0.9985264115907877,-1.4556657516813882,-3.085361357976396,1.0778652137484934,11.877903341081426,9.670834171143992,0.2962145306539756,-0.5090268144621106,0.17309526,-0.964047825,-0.28106617500000003,-13.13886,5.08158,5.52412,70.0
1774822604.5765872,1.52587890625e-05,2026-03-29T22:16:44.576,2026-03-29T18:16:44.576,-33665.31,-46496.655,-84627.58499999999,-49998.284999999996,-12639.645,-17989.425,6496.155,-52954.244999999995,3.7465169333668333,1.9118370183154365,0.8981052768779363,3.22525233141198,8.949674743108972,10.38176075738575,6.902605279818262,2.994150664311754,0.17309526,-0.964047825,-0.28106617500000003,-13.13886,5.08158,5.52412,70.0
1774822604.5795543,0.0029671192169189453,2026-03-29T22:16:44.579,2026-03-29T18:16:44.579,-33673.275,-46505.205,-84639.87,-50018.4,-12659.4,-18000.945,6492.735,-52954.56,5.010225490690115,4.606032777047518,4.705122503238651,4.220579077607064,2.000909120909009,6.295037060064477,10.664534405237669,5.126595625740398,0.17309526,-0.964047825,-0.28106617500000003,-13.13886,5.08158,5.52412,70.0
1774822604.5796368,8.249282836914062e-05,2026-03-29T22:16:44.579,2026-03-29T18:16:44.579,-33660.945,-46483.515,-84615.345,-50003.865,-12643.425,-17975.52,6530.13,-52958.07,4.118176851418505,5.277140993421623,6.440606899415804,3.4334994449440317,-6.016990601082854,-1.0420322585752073,9.330362694667423,4.927442295060742,0.17309526,-0.964047825,-0.28106617500000003,-13.13886,5.08158,5.52412,70.0
1774822604.58346,0.0038232803344726562,2026-03-29T22:16:44.583,2026-03-29T18:16:44.583,-33657.299999999996,-46486.17,-84626.50499999999,-50018.13,-12664.08,-18014.04,6500.7,-52952.579999999994,1.3411812359537865,3.4820017827986267,5.1418748316822755,0.9927035009555787,-11.569964008747387,-8.385843966118372,3.1251733911340804,2.5151135047325313,0.17309526,-0.964047825,-0.28106617500000003,-13.13886,5.08158,5.52412,70.0
1774822604.5834763,1.621246337890625e-05,2026-03-29T22:16:44.583,2026-03-29T18:16:44.583,-33676.515,-46502.955,-84644.81999999999,-50033.564999999995,-12683.52,-18059.04,6434.009999999999,-52977.15,-2.1626652600430494,-0.03953583339986409,1.3109675722942182,-2.159735652538429,-12.115211504152796,-12.258764423950588,-5.186892788347143,-0.983315648710121,0.17309526,-0.964047825,-0.28106617500000003,-13.13886,5.08158,5.52412,70.0
1774822604.5867906,0.0033142566680908203,2026-03-29T22:16:44.586,2026-03-29T18:16:44.586,-33695.01,-46522.395,-84665.34,-50051.295,-12701.654999999999,-18077.805,6401.61,-52989.345,-4.832024256150167,-3.669258900627063,-3.2755606623232207,-4.621306175306682,-7.288227647411379,-10.63111055777622,-11.563100901795558,-3.969393997414754,0.17309526,-0.964047825,-0.28106617500000003,-13.13886,5.08158,5.52412,70.0
1774822604.5868113,2.0742416381835938e-05,2026-03-29T22:16:44.586,2026-03-29T18:16:44.586,-33697.53,-46526.445,-84666.015,-50046.165,-12692.475,-18046.934999999998,6449.804999999999,-52979.939999999995,-5.412872122475452,-5.671465875013157,-6.409999854639426,-5.163644580672382,0.8619696481977487,-3.9938146206607366,-12.676146015338253,-5.1160249627563354,0.17309526,-0.964047825,-0.28106617500000003,-13.13886,5.08158,5.52412,70.0
1774822604.591101,0.0042896270751953125,2026-03-29T22:16:44.591,2026-03-29T18:16:44.591,-33665.445,-46488.509999999995,-84620.205,-49996.755,-12639.779999999999,-17978.445,6522.075,-52961.354999999996,-3.565154184018951,-5.04458367731317,-6.541123020646127,-3.3568100611076277,8.736742615865731,4.74831695784558,-7.645747586566964,-3.9646186838208597,0.175963905,-0.9680151,-0.282653085,-10.31576,6.28712,5.73776,70.0
1774822604.5911293,2.8371810913085938e-05,2026-03-29T22:16:44.591,2026-03-29T18:16:44.591,-33651.674999999996,-46469.25,-84599.50499999999,-49978.439999999995,-12619.529999999999,-17950.454999999998,6521.4,-52958.25,-0.06419484696270036,-2.036309244704979,-3.559618923348117,0.13851722836923916,12.790556393367623,11.569786322398963,1.391891549674505,-1.1045040609647916,0.175963905,-0.9680151,-0.282653085,-10.31576,6.28712,5.73776,70.0
1774822604.5954304,0.0043010711669921875,2026-03-29T22:16:44.595,2026-03-29T18:16:44.595,-33659.64,-46479.015,-84611.11499999999,-49993.74,-12635.82,-17969.355,6452.1449999999995,-52977.735,3.5223026013464738,1.9484145404320408,1.123793699448672,3.794923830970733,11.152391019370036,13.217825158103715,10.213122147777339,2.1330131232996896,0.175963905,-0.9680151,-0.282653085,-10.31576,6.28712,5.73776,70.0
1774822604.5954607,3.0279159545898438e-05,2026-03-29T22:16:44.595,2026-03-29T18:16:44.595,-33669.18,-46487.97,-84619.215,-50001.795,-12641.715,-17978.489999999998,6459.66,-52980.03,5.548646347893629,5.016311987996585,5.2593746775180135,5.893757232529253,4.512440739884374,8.79738632838721,14.518682629607593,4.305187033275367,0.175963905,-0.9680151,-0.282653085,-10.31576,6.28712,5.73776,70.0
1774822604.598888,0.003427267074584961,2026-03-29T22:16:44.598,2026-03-29T18:16:44.598,-33664.095,-46483.064999999995,-84610.62,-50001.93,-12651.795,-17998.065,6499.485,-52953.165,5.065560234053987,5.7075769576899855,6.864145835994136,5.350009511321169,-4.156822979004898,0.2608001735968775,12.052644376206858,4.509164240247124,0.175963905,-0.9680151,-0.282653085,-10.31576,6.28712,5.73776,70.0
1774822604.5989125,2.4557113647460938e-05,2026-03-29T22:16:44.598,2026-03-29T18:16:44.598,-33676.74,-46495.935,-84621.69,-50013.54,-12689.82,-18038.43,6478.065,-52952.939999999995,2.2813245730831566,3.7121435218709857,5.198382343966452,2.283357872091253,-10.939409727656038,-8.466198027330174,3.773837680818313,2.756085759893982,0.175963905,-0.9680151,-0.282653085,-10.31576,6.28712,5.73776,70.0
1774822604.603225,0.0043125152587890625,2026-03-29T22:16:44.603,2026-03-29T18:16:44.603,-33670.845,-46469.61,-84581.86499999999,-49976.775,-12670.47,-18017.055,6462.45,-52980.57,-1.5216012518732476,0.019607788858946602,1.1209685111692929,-1.968702076670188,-12.767737681272767,-13.325003738802861,-6.524479265647298,-0.08603986450760161,0.175963905,-0.9680151,-0.282653085,-10.31576,6.28712,5.73776,70.0
1774822604.6032412,1.621246337890625e-05,2026-03-29T22:16:44.603,2026-03-29T18:16:44.603,-33650.729999999996,-46461.6,-84584.61,-49967.235,-12622.095,-17962.065,6507.945,-52962.884999999995,-4.584704234864016,-3.57476835166598,-3.3537429864705013,-5.43751708826196,-8.836905186634242,-12.052159589358133,-13.990491956529567,-2.7280009284016398,0.175963905,-0.9680151,-0.282653085,-10.31576,6.28712,5.73776,70.0
1774822604.6458137,0.0425724983215332,2026-03-29T22:16:44.645,2026-03-29T18:16:44.645,-33667.515,-46491.884999999995,-84624.39,-49999.365,-12607.965,-17958.555,6498.315,-52957.215,-5.503859938086134,-5.360089435481821,-6.069048736383179,-6.45127798298503,-0.9766798534274491,-5.261017438410854,-15.036211180467504,-4.052141807254826,0.175963905,-0.9680151,-0.282653085,-10.31576,6.28712,5.73776,70.0
1774822604.6458333,1.9550323486328125e-05,2026-03-29T22:16:44.645,2026-03-29T18:16:44.645,-33681.375,-46506.06,-84643.515,-50015.34,-12636.045,-17975.16,6502.995,-52960.68,-3.8920080110558075,-4.5474817478259295,-5.7923119919388615,-4.459774461134676,7.1990416916201525,3.8513958320900357,-9.078501978407742,-3.585884069528922,0.175963905,-0.9680151,-0.282653085,-10.31576,6.28712,5.73776,70.0
1774822604.64585,1.6689300537109375e-05,2026-03-29T22:16:44.645,2026-03-29T18:16:44.645,-33678.36,-46504.35,-84642.435,-50010.165,-12634.289999999999,-17974.485,6502.094999999999,-52961.49,-0.5526536760264954,-1.6352845090000794,-2.7961152949295283,-0.3412107546135235,11.97019332518726,11.032459136113985,1.1530920627481962,-1.6554143375934485,0.17883255,-0.96484128,-0.283507575,-12.971,5.76828,7.996239999999999,70.0
1774822604.645857,7.152557373046875e-06,2026-03-29T22:16:44.645,2026-03-29T18:16:44.645,-33678.54,-46507.59,-84646.53,-50010.705,-12636.27,-17984.295,6485.264999999999,-52963.064999999995,2.9188304350595216,1.8751845138593937,1.3297663708149299,3.9821017676337127,11.229058440022667,12.995859771543609,10.897876903650573,0.8205348438051703,0.17883255,-0.96484128,-0.283507575,-12.971,5.76828,7.996239999999999,70.0
1774822604.6458652,8.106231689453125e-06,2026-03-29T22:16:44.645,2026-03-29T18:16:44.645,-33667.38,-46494.405,-84633.25499999999,-50001.39,-12633.3,-17981.64,6476.13,-52963.064999999995,4.90865362661306,4.257866163503941,4.52181060384331,6.452828257176778,5.433469253739045,8.959389385918424,15.61872390837735,2.7730730496841796,0.17883255,-0.96484128,-0.283507575,-12.971,5.76828,7.996239999999999,70.0
1774822604.645872,6.9141387939453125e-06,2026-03-29T22:16:44.645,2026-03-29T18:16:44.645,-33672.15,-46500.119999999995,-84640.31999999999,-50005.259999999995,-12671.955,-18004.905,6476.13,-52967.384999999995,4.552694526046683,4.4291491898624935,5.294502361717033,5.877503494116022,-2.6467484297520487,0.9642341740655527,13.14437044084312,3.446195625798299,0.17883255,-0.96484128,-0.283507575,-12.971,5.76828,7.996239999999999,70.0
1774822604.6458802,8.106231689453125e-06,2026-03-29T22:16:44.645,2026-03-29T18:16:44.645,-33686.415,-46505.34,-84636.54,-50000.85,-12727.755,-18038.835,6464.745,-52979.579999999994,2.125605892413832,2.460806564592696,3.4566996770215863,2.5219130134539096,-9.257910674602623,-7.158060775440969,4.674787269585758,2.6793928683601873,0.17883255,-0.96484128,-0.283507575,-12.971,5.76828,7.996239999999999,70.0
1774822604.645887,6.67572021484375e-06,2026-03-29T22:16:44.645,2026-03-29T18:16:44.645,-33677.955,-46498.86,-84634.29,-50010.075,-12687.345,-18025.245,6453.63,-52969.095,-1.1308931175784573,-0.5131745426273313,0.1362679280493445,-2.001647107564755,-11.425750841610135,-11.646657984021072,-5.818303995120255,0.910600869870316,0.17883255,-0.96484128,-0.283507575,-12.971,5.76828,7.996239999999999,70.0
1774822604.6458948,7.867813110351562e-06,2026-03-29T22:16:44.645,2026-03-29T18:16:44.645,-33684.345,-46507.545,-84649.31999999999,-50030.325,-12607.56,-17989.92,6433.38,-52969.814999999995,-3.642585451660722,-2.928849619489892,-2.874228569323559,-5.512389174226102,-8.31649078308211,-10.585352453997189,-13.488565157425114,-1.0671942148355893,0.17883255,-0.96484128,-0.283507575,-12.971,5.76828,7.996239999999999,70.0
1774822604.6459014,6.67572021484375e-06,2026-03-29T22:16:44.645,2026-03-29T18:16:44.645,-33690.555,-46508.354999999996,-84643.29,-50017.77,-12622.635,-17995.41,6423.4349999999995,-52983.81,-4.275663987347303,-3.6183668875225403,-4.0837807174185015,-6.327397666642012,-1.5623197782699203,-4.738376857425694,-14.888193829722233,-2.462577640543479,0.17883255,-0.96484128,-0.283507575,-12.971,5.76828,7.996239999999999,70.0
1774822604.64591,8.58306884765625e-06,2026-03-29T22:16:44.645,2026-03-29T18:16:44.645,-33682.635,-46504.89,-84642.165,-50021.009999999995,-12644.189999999999,-17992.26,6469.38,-52971.84,-2.863200558340878,-2.3923052981260238,-3.0613913449542087,-4.088619846749863,5.578630462417533,2.9243353130923753,-9.535529213149623,-2.7947576430769807,0.17883255,-0.96484128,-0.283507575,-12.971,5.76828,7.996239999999999,70.0
1774822604.6459146,4.5299530029296875e-06,2026-03-29T22:16:44.645,2026-03-29T18:16:44.645,-33671.295,-46494.314999999995,-84635.415,-50022.494999999995,-12649.77,-17994.329999999998,6481.755,-52958.115,-0.23405279801680565,-0.08071844314041399,-0.5932153015639803,0.06423176214505369,9.80083020245247,8.737004808173594,-0.05688790849352064,-2.0392263312114234,0.17883255,-0.96484128,-0.283507575,-12.971,5.76828,7.996239999999999,70.0
1774822604.6459193,4.76837158203125e-06,2026-03-29T22:16:44.645,2026-03-29T18:16:44.645,-33661.17,-46465.155,-84594.51,-49986.765,-12624.164999999999,-17977.68,6474.33,-52972.604999999996,2.2505244156574262,1.9698935751883444,1.8218895635187093,4.065272407558361,9.299969399086981,10.113795274681497,9.122289971700928,-0.5794756303080619,0.180846705,-0.9636205800000001,-0.28149342,-12.37586,7.84364,9.79692,70.0
1774822604.645923,3.5762786865234375e-06,2026-03-29T22:16:44.645,2026-03-29T18:16:44.645,-33656.895,-46460.655,-84585.69,-49973.58,-12614.715,-17974.215,6498.45,-52969.005,3.400608277475393,2.655705510840846,2.8402821267641953,5.954785049677189,4.557731676379365,6.720574322664666,13.876013880426445,0.9845518461187401,0.180846705,-0.9636205800000001,-0.28149342,-12.37586,7.84364,9.79692,70.0
1774822604.6459277,4.76837158203125e-06,2026-03-29T22:16:44.645,2026-03-29T18:16:44.645,-33650.19,-46471.59,-84602.7,-49974.57,-12602.699999999999,-17951.175,6529.05,-52949.115,2.777806396884522,1.7115790766908041,2.0168266114195412,4.854285577395396,-1.985063429886244,0.5023423251756679,12.256628782020274,2.0766687339277747,0.180846705,-0.9636205800000001,-0.28149342,-12.37586,7.84364,9.79692,70.0
1774822604.6459312,3.5762786865234375e-06,2026-03-29T22:16:44.645,2026-03-29T18:16:44.645,-33672.104999999996,-46498.95,-84634.065,-49994.909999999996,-12617.82,-17960.985,6504.255,-52956.99,0.8645544396260946,-0.1780640102137457,0.014830644418945197,1.392989223021386,-7.171524085338269,-5.39122783090319,5.287864255682737,2.3411351707394434,0.180846705,-0.9636205800000001,-0.28149342,-12.37586,7.84364,9.79692,70.0
1774822604.6459358,4.5299530029296875e-06,2026-03-29T22:16:44.645,2026-03-29T18:16:44.645,-33690.33,-46511.775,-84643.02,-50010.255,-12643.425,-17994.51,6462.63,-52969.545,-1.244089646737414,-1.8044568003413257,-1.823187655618603,-2.628866282804027,-8.659000635080607,-8.201375468183072,-3.6470547229050543,1.7389252433764368,0.180846705,-0.9636205800000001,-0.28149342,-12.37586,7.84364,9.79692,70.0
1774822604.6459396,3.814697265625e-06,2026-03-29T22:16:44.645,2026-03-29T18:16:44.645,-33685.29,-46505.295,-84634.56,-50005.799999999996,-12657.375,-18034.559999999998,6466.905,-52965.81,-2.4451407595041528,-2.150069726369146,-2.290827586748316,-5.166729918334846,-5.991224482981611,-6.867682024093205,-10.468526903974634,0.531177249119203,0.180846705,-0.9636205800000001,-0.28149342,-12.37586,7.84364,9.79692,70.0
1774822604.6459448,5.245208740234375e-06,2026-03-29T22:16:44.645,2026-03-29T18:16:44.645,-33673.994999999995,-46495.259999999995,-84625.65,-49997.52,-12643.56,-18011.52,6477.344999999999,-52959.06,-2.2019559719886277,-0.9886349732917218,-1.049322582069421,-4.974435229569264,-0.7152473007662543,-2.4207769209664893,-12.28850045714957,-0.8278800042448188,0.180846705,-0.9636205800000001,-0.28149342,-12.37586,7.84364,9.79692,70.0
1774822604.645949,4.0531158447265625e-06,2026-03-29T22:16:44.645,2026-03-29T18:16:44.645,-33668.28,-46491.435,-84620.87999999999,-49994.325,-12633.48,-17992.71,6494.4,-52951.905,-0.7897954824783121,0.9720456366620165,1.1488755549853606,-2.2295588379505658,4.472197440917243,2.6803062951311807,-8.63848466103134,-1.8481920599107706,0.180846705,-0.9636205800000001,-0.28149342,-12.37586,7.84364,9.79692,70.0
1774822604.645954,5.0067901611328125e-06,2026-03-29T22:16:44.645,2026-03-29T18:16:44.645,-33665.534999999996,-46489.68,-84615.75,-49996.17,-12642.93,-18003.239999999998,6493.365,-52950.6,0.9021459915970703,2.4916058301532362,2.8836118235451673,1.577606151233312,7.091721556886812,5.873547250360096,-1.5139901810614267,-2.1658986749558973,0.180846705,-0.9636205800000001,-0.28149342,-12.37586,7.84364,9.79692,70.0
1774822604.6459577,3.814697265625e-06,2026-03-29T22:16:44.645,2026-03-29T18:16:44.645,-33661.845,-46483.2,-84609.81,-49997.295,-12654.765,-18038.204999999998,6468.12,-52961.354999999996,1.888890920675719,2.523829004506337,2.9085949159677686,4.4314623026957065,6.072226323544401,5.778908993233502,5.703690591428481,-1.666229968212639,0.180846705,-0.9636205800000001,-0.28149342,-12.37586,7.84364,9.79692,70.0
1774822604.6509984,0.005040645599365234,2026-03-29T22:16:44.650,2026-03-29T18:16:44.650,-33662.295,-46483.29,-84612.105,-49997.97,-12651.345,-18032.085,6478.335,-52963.29,1.6383921803369592,0.8602206966274653,0.9348424458066172,4.8457418648388755,2.190748767575816,2.7984342869418133,9.870460702905362,-0.5299110490113884,0.181334985,-0.96581784,-0.2783196,-11.0635,9.36964,12.940479999999999,70.0
1774822604.651014,1.5735626220703125e-05,2026-03-29T22:16:44.651,2026-03-29T18:16:44.651,-33677.415,-46488.689999999995,-84614.175,-49992.075,-12640.904999999999,-18006.21,6470.37,-52978.814999999995,0.35296059389024487,-1.6832631302918741,-2.1050558293172945,2.6375124401843473,-2.4202855877338663,-1.2307378146879822,9.460227424859504,0.819058701690009,0.181334985,-0.96581784,-0.2783196,-11.0635,9.36964,12.940479999999999,70.0
1774822604.6548762,0.003862142562866211,2026-03-29T22:16:44.654,2026-03-29T18:16:44.654,-33660.945,-46474.83,-84603.42,-49982.085,-12629.07,-17979.434999999998,6460.335,-52967.25,-1.1635121617192001,-3.6655053227744943,-4.496484761958483,-0.9825579025960328,-5.411095151239473,-4.095515601186964,5.092530029192487,1.8588257787368767,0.181334985,-0.96581784,-0.2783196,-11.0635,9.36964,12.940479999999999,70.0
1774822604.6549053,2.9087066650390625e-05,2026-03-29T22:16:44.654,2026-03-29T18:16:44.654,-33667.83,-46496.295,-84636.045,-50019.615,-12665.07,-18007.605,6406.875,-52967.79,-1.9725173486041223,-3.809798199164616,-4.678691773767488,-4.0520256804554755,-5.401635328466911,-4.390103110549861,-0.9559201834331885,2.1669220103195634,0.181334985,-0.96581784,-0.2783196,-11.0635,9.36964,12.940479999999999,70.0
1774822604.6613016,0.006396293640136719,2026-03-29T22:16:44.661,2026-03-29T18:16:44.661,-33677.955,-46496.564999999995,-84630.465,-50013.18,-12653.595,-17996.85,6414.3,-52976.835,-1.5413423402688817,-1.7594575651669284,-2.175842235255477,-4.897053385330182,-2.6212061436916656,-2.2012630091814875,-5.93307076602657,1.59765979158486,0.181334985,-0.96581784,-0.2783196,-11.0635,9.36964,12.940479999999999,70.0
1774822604.6613245,2.288818359375e-05,2026-03-29T22:16:44.661,2026-03-29T18:16:44.661,-33659.865,-46492.38,-84631.23,-50016.195,-12656.609999999999,-18002.925,6462.945,-52940.744999999995,-0.0578222459518981,1.6278776690621635,2.006200814463037,-3.0272195458758886,1.2974200585669877,1.0369665595064232,-7.874854182691666,0.36196943311029717,0.181334985,-0.96581784,-0.2783196,-11.0635,9.36964,12.940479999999999,70.0
1774822604.6659951,0.004670619964599609,2026-03-29T22:16:44.665,2026-03-29T18:16:44.665,-33689.79,-46521.09,-84658.095,-50044.229999999996,-12689.865,-18044.864999999998,6410.61,-52970.085,1.656296275783648,4.642381002228091,5.782349430276786,0.5876531422453041,4.229146628820793,3.4012264921887123,-6.365214392617311,-1.0383214264015463,0.181334985,-0.96581784,-0.2783196,-11.0635,9.36964,12.940479999999999,70.0
1774822604.6660252,3.0040740966796875e-05,2026-03-29T22:16:44.666,2026-03-29T18:16:44.666,-33680.655,-46498.409999999996,-84631.815,-50018.354999999996,-12662.324999999999,-18020.79,6390.179999999999,-52990.875,2.5908274339249835,5.5856968578577435,7.029593592038339,4.011852219593416,4.6799966502788335,3.5605821012686967,-2.5079012482434053,-2.0100800833748043,0.181334985,-0.96581784,-0.2783196,-11.0635,9.36964,12.940479999999999,70.0
1774822604.6660523,2.7179718017578125e-05,2026-03-29T22:16:44.666,2026-03-29T18:16:44.666,-33662.655,-46477.125,-84601.575,-49977.9,-12616.064999999999,-17974.665,6466.365,-52966.17,2.112786503823216,3.698583009550908,4.745081680661253,5.359714346145759,2.538539043629528,1.4927458107152987,1.7738155823153314,-2.1255942718195633,0.181334985,-0.96581784,-0.2783196,-11.0635,9.36964,12.940479999999999,70.0
1774822604.6660595,7.152557373046875e-06,2026-03-29T22:16:44.666,2026-03-29T18:16:44.666,-33661.44,-46485.36,-84604.455,-49956.84,-12585.015,-17940.329999999998,6512.985,-52954.56,0.34453413961562457,-0.3449795303272035,-0.29956515082362245,3.8062163735302486,-0.9196731464666192,-1.5402449437568648,4.695083414548936,-1.322484961859319,0.181334985,-0.96581784,-0.2783196,-11.0635,9.36964,12.940479999999999,70.0
1774822604.6710155,0.00495600700378418,2026-03-29T22:16:44.671,2026-03-29T18:16:44.671,-33665.31,-46490.13,-84613.545,-49979.97,-12615.705,-17967.825,6500.88,-52956.585,-1.8577116450820712,-4.670715574417411,-5.79770323764964,0.05946471916034728,-3.7539914238039507,-3.724670877544642,5.347889173127217,0.052332570729269175,0.17712357,-0.965390595,-0.275939235,-7.889419999999999,9.81218,13.642439999999999,70.0
1774822604.6710403,2.47955322265625e-05,2026-03-29T22:16:44.671,2026-03-29T18:16:44.671,-33667.38,-46492.38,-84623.805,-49999.994999999995,-12640.545,-17994.465,6529.41,-52944.39,-3.326799465391303,-7.087437405331873,-8.978851032330923,-3.96540853650378,-4.4110584897586005,-3.723573803770662,3.917904463614758,1.3872534527924971,0.17712357,-0.965390595,-0.275939235,-7.889419999999999,9.81218,13.642439999999999,70.0
1774822604.6753917,0.004351377487182617,2026-03-29T22:16:44.675,2026-03-29T18:16:44.675,-33667.29,-46493.82,-84629.79,-50012.009999999995,-12656.789999999999,-18014.985,6515.82,-52944.615,-3.1961748251405164,-6.197365271767045,-8.005868835625728,-6.118862208448564,-2.5492262074943386,-1.4358593876660322,1.3742848408982131,2.081848173913377,0.17712357,-0.965390595,-0.275939235,-7.889419999999999,9.81218,13.642439999999999,70.0
1774822604.675413,2.1219253540039062e-05,2026-03-29T22:16:44.675,2026-03-29T18:16:44.675,-33650.505,-46464.345,-84591.9,-49971.015,-12617.145,-17982.225,6524.37,-52960.229999999996,-1.3814641785688477,-2.169432191747568,-2.9915535845094707,-5.143369305728809,0.7939473866685762,1.9272348473674086,-1.1189214503787774,1.8276966728751212,0.17712357,-0.965390595,-0.275939235,-7.889419999999999,9.81218,13.642439999999999,70.0
1774822604.6791658,0.0037529468536376953,2026-03-29T22:16:44.679,2026-03-29T18:16:44.679,-33632.729999999996,-46437.705,-84554.415,-49935.735,-12586.545,-17954.64,6526.844999999999,-52954.965,1.3265867654998627,3.2413183234021417,3.9139724565502485,-1.3699531582487903,3.770144174905704,4.4904154236507505,-2.7321071367579193,0.7576607936185764,0.17712357,-0.965390595,-0.275939235,-7.889419999999999,9.81218,13.642439999999999,70.0
1774822604.679191,2.5272369384765625e-05,2026-03-29T22:16:44.679,2026-03-29T18:16:44.679,-33639.21,-46445.13,-84566.11499999999,-49956.795,-12617.189999999999,-17981.235,6479.505,-52959.869999999995,3.620506494519889,7.476782192418314,9.464108817432985,3.3892612271838614,4.7174688928339235,4.738587196813687,-3.200753200936808,-0.6144130540849093,0.17712357,-0.965390595,-0.275939235,-7.889419999999999,9.81218,13.642439999999999,70.0
1774822604.6838455,0.004654407501220703,2026-03-29T22:16:44.683,2026-03-29T18:16:44.683,-33660.54,-46470.06,-84600.765,-49994.235,-12681.585,-18018.675,6444.36,-52975.53,4.316532750857874,8.402797083114162,10.863468316763708,6.719803222943317,3.057121260526841,2.3653782304676585,-2.723948829573036,-1.639952958264453,0.17712357,-0.965390595,-0.275939235,-7.889419999999999,9.81218,13.642439999999999,70.0
1774822604.6838644,1.8835067749023438e-05,2026-03-29T22:16:44.683,2026-03-29T18:16:44.683,-33671.97,-46498.725,-84640.00499999999,-50018.174999999996,-12694.994999999999,-18030.69,6462.585,-52968.915,2.9590135707671825,5.383119828999718,7.174213588981753,6.824431408907269,-0.38400610752624176,-1.5143740294464512,-1.6833959742758104,-1.8498411736640348,0.17712357,-0.965390595,-0.275939235,-7.889419999999999,9.81218,13.642439999999999,70.0
1774822604.6886325,0.0047681331634521484,2026-03-29T22:16:44.688,2026-03-29T18:16:44.688,-33679.44,-46517.534999999996,-84665.83499999999,-50019.659999999996,-12645.855,-18032.399999999998,6468.795,-52968.825,0.08193674103439956,-0.34063422644389857,-0.12727084378819914,3.468289172876056,-3.7959919449396327,-4.912321275981403,-0.40041196827865383,-1.1807528962382587,0.17712357,-0.965390595,-0.275939235,-7.889419999999999,9.81218,13.642439999999999,70.0
1774822604.688656,2.3603439331054688e-05,2026-03-29T22:16:44.688,2026-03-29T18:16:44.688,-33680.43,-46514.52,-84655.395,-50006.79,-12662.505,-18059.265,6483.96,-52961.715,-3.0126105306001865,-6.174899349190351,-7.7541008284374495,-1.8397034151622977,-5.334337894505798,-5.995761755681896,0.9285273077474734,0.0009530103282318922,0.17712357,-0.965390595,-0.275939235,-7.889419999999999,9.81218,13.642439999999999,70.0
1774822604.6911535,0.002497434616088867,2026-03-29T22:16:44.691,2026-03-29T18:16:44.691,-33669.405,-46497.15,-84632.22,-50002.29,-12669.84,-18045.855,6484.905,-52954.74,-4.860525253842439,-9.374984320119284,-12.118765904857675,-6.5416678592941775,-4.09895940865599,-4.062103174224523,2.1313854878707006,1.0909034578942811,0.17297319,-0.959165025,-0.275084745,-6.9890799999999995,10.17842,13.53562,70.0
1774822604.691172,1.8358230590820312e-05,2026-03-29T22:16:44.691,2026-03-29T18:16:44.691,-33664.005,-46489.59,-84619.305,-49997.88,-12616.83,-17992.215,6489.63,-52951.77,-4.536323433985958,-8.35271151760578,-11.041052898338492,-8.274062658536458,-0.6304455651323526,0.05449061886454641,2.934653011730523,1.5564376605675767,0.17297319,-0.959165025,-0.275084745,-6.9890799999999995,10.17842,13.53562,70.0
1774822604.6954167,0.004244804382324219,2026-03-29T22:16:44.695,2026-03-29T18:16:44.695,-33665.76,-46493.685,-84624.165,-49995.405,-12607.515,-17972.82,6491.429999999999,-52953.119999999995,-2.1092037198401927,-3.4599811254403092,-4.8309948617948635,-6.049735267493133,3.340841548747978,4.365953431435393,2.9670587627533425,1.2050044966244653,0.17297319,-0.959165025,-0.275084745,-6.9890799999999995,10.17842,13.53562,70.0
1774822604.6954446,2.7894973754882812e-05,2026-03-29T22:16:44.695,2026-03-29T18:16:44.695,-33661.034999999996,-46478.79,-84606.93,-49982.085,-12616.064999999999,-17977.59,6474.33,-52963.47,1.3677433388401021,3.1372915673007524,3.7897531574177945,-0.7887015956264427,5.770400012006568,6.716334931929538,1.945775368435353,0.2724488339989517,0.17297319,-0.959165025,-0.275084745,-6.9890799999999995,10.17842,13.53562,70.0
1774822604.7034948,0.008050203323364258,2026-03-29T22:16:44.703,2026-03-29T18:16:44.703,-33659.1,-46475.82,-84604.72499999999,-49985.369999999995,-12627.585,-17997.614999999998,6464.429999999999,-52962.255,4.333102825487134,8.445451306149005,10.912468859078775,5.078074974299725,5.352629420548695,5.871767305518154,-0.05354456720792247,-0.713724015456768,0.17297319,-0.959165025,-0.275084745,-6.9890799999999995,10.17842,13.53562,70.0
1774822604.703512,1.71661376953125e-05,2026-03-29T22:16:44.703,2026-03-29T18:16:44.703,-33673.59,-46488.6,-84617.50499999999,-50003.1,-12646.395,-18017.64,6454.9349999999995,-52968.015,5.43369992629622,10.027445742508396,13.245523812564024,8.753171836325473,2.2089140426577027,2.1588829513689096,-2.439281685411356,-1.2224021646054597,0.17297319,-0.959165025,-0.275084745,-6.9890799999999995,10.17842,13.53562,70.0
1774822604.7035272,1.52587890625e-05,2026-03-29T22:16:44.703,2026-03-29T18:16:44.703,-33677.955,-46499.085,-84628.17,-50004.09,-12644.82,-18027.18,6443.46,-52971.479999999996,4.146111685891408,7.132903586279351,9.650275275877135,8.416815842093952,-2.1473975592560692,-2.675335870690697,-4.225778671654201,-1.0039954441524257,0.17297319,-0.959165025,-0.275084745,-6.9890799999999995,10.17842,13.53562,70.0
1774822604.7035336,6.4373016357421875e-06,2026-03-29T22:16:44.703,2026-03-29T18:16:44.703,-33658.02,-46481.895,-84611.565,-49985.82,-12633.84,-18017.055,6457.995,-52964.145,1.0157084781273504,1.0444453146165238,1.6847741784009125,4.119540191353592,-5.558098096347428,-6.314480149702491,-4.448663351678419,-0.21959576077172568,0.17297319,-0.959165025,-0.275084745,-6.9890799999999995,10.17842,13.53562,70.0
1774822604.7076695,0.004135847091674805,2026-03-29T22:16:44.707,2026-03-29T18:16:44.707,-33663.24,-46486.395,-84620.655,-50000.13,-12645.045,-18000.989999999998,6473.565,-52968.915,-2.591708992187879,-5.51570248306683,-7.099938355188151,-2.2120945821926914,-6.303545644506177,-7.008076861501022,-2.695003857589238,0.65538724852419,0.17297319,-0.959165025,-0.275084745,-6.9890799999999995,10.17842,13.53562,70.0
1774822604.7076845,1.5020370483398438e-05,2026-03-29T22:16:44.707,2026-03-29T18:16:44.707,-33669.0,-46501.92,-84645.98999999999,-50029.47,-12669.39,-18003.375,6464.34,-52962.795,-5.104098952624621,-9.632667737235984,-12.779384568910398,-7.664706652472216,-3.97331174476903,-4.424740211390282,0.5445223215035312,1.1007235133458122,0.17297319,-0.959165025,-0.275084745,-6.9890799999999995,10.17842,13.53562,70.0
1774822604.7127323,0.005047798156738281,2026-03-29T22:16:44.712,2026-03-29T18:16:44.712,-33656.4,-46486.799999999996,-84628.17,-50003.1,-12636.765,-17972.954999999998,6488.1449999999995,-52950.42,-5.438284674328214,-9.514319720169556,-12.835164759063037,-9.700003390342733,0.3182341166474875,0.19710072883370464,3.947235596385428,0.8466144902649108,0.17028765,-0.95898192,-0.274718535,-7.2332399999999994,11.71968,14.84798,70.0
1774822604.712751,1.8596649169921875e-05,2026-03-29T22:16:44.712,2026-03-29T18:16:44.712,-33668.325,-46495.755,-84630.87,-50001.57,-12633.164999999999,-17971.469999999998,6531.48,-52940.79,-3.4639017894438173,-5.271861160483255,-7.274968431748589,-7.34273379749976,4.4815751075675365,4.66597984466599,5.896583967530463,0.03133519713872562,0.17028765,-0.95898192,-0.274718535,-7.2332399999999994,11.71968,14.84798,70.0
1774822604.7150767,0.002325773239135742,2026-03-29T22:16:44.715,2026-03-29T18:16:44.715,-33660.63,-46490.58,-84627.495,-49999.59,-12635.369999999999,-17976.87,6536.925,-52943.354999999996,-0.03925151761121044,1.174505498244755,1.4066651936505035,-1.6352768651443255,6.489552152123463,6.9053086221782545,5.269419794375146,-0.8689433547634823,0.17028765,-0.95898192,-0.274718535,-7.2332399999999994,11.71968,14.84798,70.0
1774822604.7150896,1.2874603271484375e-05,2026-03-29T22:16:44.715,2026-03-29T18:16:44.715,-33654.51,-46476.494999999995,-84608.55,-49981.68,-12620.43,-17961.795,6544.755,-52950.735,3.3801861762011285,6.993662301401317,9.38307247280603,4.84803818331022,5.379922150479196,5.940286370550055,2.0816476963652564,-1.3042186902707584,0.17028765,-0.95898192,-0.274718535,-7.2332399999999994,11.71968,14.84798,70.0
1774822604.7191427,0.0040531158447265625,2026-03-29T22:16:44.719,2026-03-29T18:16:44.719,-33642.63,-46462.95,-84595.995,-49972.14,-12613.59,-17955.315,6528.78,-52948.17,5.373331022194188,9.712218979814143,13.214714358262766,9.189207481980842,1.7209637340829416,2.3256425699719063,-2.3752998205675797,-0.9663051245455854,0.17028765,-0.95898192,-0.274718535,-7.2332399999999994,11.71968,14.84798,70.0
1774822604.719169,2.6226043701171875e-05,2026-03-29T22:16:44.719,2026-03-29T18:16:44.719,-33635.79,-46447.29,-84573.9,-49944.33,-12583.305,-17922.42,6511.275,-52953.57,5.144814365813446,8.27318438736365,11.34497657987703,9.456306922038209,-2.6872889790963956,-2.174606986768828,-6.044770754376645,0.019137907611454334,0.17028765,-0.95898192,-0.274718535,-7.2332399999999994,11.71968,14.84798,70.0
1774822604.725669,0.0065000057220458984,2026-03-29T22:16:44.725,2026-03-29T18:16:44.725,-33651.63,-46467.18,-84595.275,-49962.06,-12627.225,-17962.695,6491.384999999999,-52959.195,2.8299973409651957,3.428084311715583,4.715986060334653,5.5608878609418,-5.716896274696711,-5.471187940131197,-7.067731913762801,1.1368269419644534,0.17028765,-0.95898192,-0.274718535,-7.2332399999999994,11.71968,14.84798,70.0
1774822604.7256851,1.621246337890625e-05,2026-03-29T22:16:44.725,2026-03-29T18:16:44.725,-33655.229999999996,-46474.47,-84602.97,-49970.295,-12663.27,-18000.54,6475.1849999999995,-52955.775,-0.5958206117822906,-2.671569375952425,-3.7295903104380255,-0.7364155386055405,-5.960296177840977,-6.1453143765355,-4.741589748220032,1.7484218308899537,0.17028765,-0.95898192,-0.274718535,-7.2332399999999994,11.71968,14.84798,70.0
1774822604.7257001,1.5020370483398438e-05,2026-03-29T22:16:44.725,2026-03-29T18:16:44.725,-33680.79,-46502.775,-84637.17,-50013.854999999996,-12671.505,-18011.295,6446.429999999999,-52967.159999999996,-3.7423511964549734,-7.456382232515621,-10.38905059508138,-6.649673048721367,-3.3981475744028473,-4.070726006200388,0.02499283076244911,1.4442315853490753,0.17028765,-0.95898192,-0.274718535,-7.2332399999999994,11.71968,14.84798,70.0
1774822604.725705,4.76837158203125e-06,2026-03-29T22:16:44.725,2026-03-29T18:16:44.725,-33689.52,-46508.759999999995,-84643.155,-50026.455,-12630.645,-17980.02,6406.0199999999995,-52985.34,-5.3713295934299445,-9.033937012867618,-12.555672266210467,-9.622566870801556,0.6362619200152173,-0.3842781015887144,5.042431729029312,0.29008553925936087,0.17028765,-0.95898192,-0.274718535,-7.2332399999999994,11.71968,14.84798,70.0
1774822604.731991,0.006286144256591797,2026-03-29T22:16:44.731,2026-03-29T18:16:44.731,-33673.409999999996,-46489.455,-84619.44,-50005.215,-12650.895,-18010.26,6433.965,-52985.7,-4.873172201753469,-6.923763095187729,-9.508836585317475,-8.438453403551753,4.158254286096899,3.138775278013538,7.850243394923971,-1.171836498697827,0.170348685,-0.9582495,-0.274352325,-6.4397199999999994,15.07688,15.07688,70.0
1774822604.732008,1.6927719116210938e-05,2026-03-29T22:16:44.732,2026-03-29T18:16:44.732,-33660.72,-46481.354999999996,-84617.955,-49999.095,-12654.72,-18017.37,6490.17,-52965.134999999995,-2.476294305925136,-2.154959822404254,-2.7052055602882406,-3.701346141839471,5.527724698055376,4.961732569044292,6.938845985241191,-2.1821285058101973,0.170348685,-0.9582495,-0.274352325,-6.4397199999999994,15.07688,15.07688,70.0
1774822604.7435377,0.011529684066772461,2026-03-29T22:16:44.743,2026-03-29T18:16:44.743,-33647.22,-46467.36,-84603.06,-49983.435,-12633.48,-17987.67,6457.679999999999,-52957.845,0.870732173535254,3.255789010486857,4.945239532975182,2.4924233492996506,4.232391751900849,4.473508408992835,2.5704593260511786,-2.157335157854065,0.170348685,-0.9582495,-0.274352325,-6.4397199999999994,15.07688,15.07688,70.0
1774822604.7435513,1.3589859008789062e-05,2026-03-29T22:16:44.743,2026-03-29T18:16:44.743,-33662.25,-46473.615,-84604.77,-49991.939999999995,-12647.43,-18001.98,6427.889999999999,-52975.575,3.8781573796838402,7.173079397931344,10.347056895324938,7.506585559649899,1.075771645871496,2.170974588193259,-3.248828888893487,-1.013590040406117,0.170348685,-0.9582495,-0.274352325,-6.4397199999999994,15.07688,15.07688,70.0
1774822604.7435653,1.4066696166992188e-05,2026-03-29T22:16:44.743,2026-03-29T18:16:44.743,-33670.619999999995,-46480.5,-84608.50499999999,-50001.03,-12659.85,-18013.815,6489.2699999999995,-52954.784999999996,5.401881054527761,8.176228082083515,11.467239453914551,9.29689506924791,-2.297311707359139,-0.7033043620331617,-7.684860069560888,0.754888411708476,0.170348685,-0.9582495,-0.274352325,-6.4397199999999994,15.07688,15.07688,70.0
1774822604.7435703,5.0067901611328125e-06,2026-03-29T22:16:44.743,2026-03-29T18:16:44.743,-33680.655,-46500.705,-84631.185,-50009.354999999996,-12662.055,-18014.399999999998,6499.485,-52945.92,4.860559613240626,6.0375315507531555,8.063012778872492,7.231962461026818,-4.2662852644662275,-2.834605728583932,-8.463038249908587,2.2958971944773303,0.170348685,-0.9582495,-0.274352325,-6.4397199999999994,15.07688,15.07688,70.0
1774822604.743576,5.7220458984375e-06,2026-03-29T22:16:44.743,2026-03-29T18:16:44.743,-33685.38,-46520.82,-84661.47,-50024.384999999995,-12672.539999999999,-18026.684999999998,6440.985,-52955.189999999995,2.442137893541903,1.7075692255566302,1.651798133384551,2.2809788177524934,-4.033254333067394,-3.4552703569890606,-5.0448728383689625,2.8168105030379587,0.170348685,-0.9582495,-0.274352325,-6.4397199999999994,15.07688,15.07688,70.0
1774822604.74358,4.0531158447265625e-06,2026-03-29T22:16:44.743,2026-03-29T18:16:44.743,-33675.57,-46499.22,-84632.715,-50004.045,-12656.835,-18013.23,6449.3099999999995,-52962.39,-0.9639275412509547,-3.124190141624627,-5.188894457439474,-3.463168844269084,-1.952598558700771,-2.610053566206135,1.018645525195744,1.991788726228841,0.170348685,-0.9582495,-0.274352325,-6.4397199999999994,15.07688,15.07688,70.0
1774822604.754556,0.010975837707519531,2026-03-29T22:16:44.754,2026-03-29T18:16:44.754,-33682.725,-46507.814999999995,-84643.83,-50021.415,-12679.425,-18032.355,6475.86,-52957.755,-4.0822307921657695,-6.682451994786995,-9.857447580793076,-7.68120458061434,0.7479699976429559,-0.9823528896962249,6.778501470092998,0.1490579660267842,0.170348685,-0.9582495,-0.274352325,-6.4397199999999994,15.07688,15.07688,70.0
1774822604.754572,1.5974044799804688e-05,2026-03-29T22:16:44.754,2026-03-29T18:16:44.754,-33672.375,-46497.509999999995,-84633.12,-50016.509999999995,-12678.66,-18031.364999999998,6494.3099999999995,-52947.945,-5.709735532439658,-7.723911840846643,-10.683939048826028,-8.754205149387007,2.6713847678393594,0.5661189212374951,9.321011292669866,-1.8648086225190301,0.170348685,-0.9582495,-0.274352325,-6.4397199999999994,15.07688,15.07688,70.0
1774822604.7545867,1.4781951904296875e-05,2026-03-29T22:16:44.754,2026-03-29T18:16:44.754,-33680.924999999996,-46500.479999999996,-84630.735,-50007.6,-12665.205,-18017.1,6474.33,-52958.564999999995,-5.164003468251536,-5.9258910155041615,-7.474707564165081,-6.355494654888432,2.984512091911652,1.4570831998765845,7.24575603139964,-3.084761051508952,0.166442445,-0.960385725,-0.28039479,-5.234179999999999,14.542779999999999,15.977219999999999,70.0
1774822604.7545936,6.9141387939453125e-06,2026-03-29T22:16:44.754,2026-03-29T18:16:44.754,-33673.095,-46492.695,-84618.54,-49995.854999999996,-12652.74,-18000.27,6454.844999999999,-52967.295,-2.564120250079102,-1.9542012779667406,-1.5019699057892435,-1.5096763013041847,1.792029884527154,1.6095961322413315,1.4362919831709293,-2.897409988705444,0.166442445,-0.960385725,-0.28039479,-5.234179999999999,14.542779999999999,15.977219999999999,70.0
1774822604.7546017,8.106231689453125e-06,2026-03-29T22:16:44.754,2026-03-29T18:16:44.754,-33663.015,-46477.619999999995,-84595.36499999999,-49972.5,-12633.119999999999,-17975.88,6494.535,-52960.229999999996,1.16828071113305,2.7791540852937127,5.00370310850041,3.858634688810695,-0.023440275436196194,1.327762926739988,-5.299141511342402,-1.3487614691161762,0.166442445,-0.960385725,-0.28039479,-5.234179999999999,14.542779999999999,15.977219999999999,70.0
1774822604.7546082,6.4373016357421875e-06,2026-03-29T22:16:44.754,2026-03-29T18:16:44.754,-33659.775,-46473.75,-84595.14,-49974.615,-12661.605,-17985.149999999998,6505.0199999999995,-52942.14,4.61254653517689,6.582359156832244,9.653586822581694,7.680644746704016,-1.3704366320903185,0.9833079655076395,-9.579740163134822,0.8650479844569832,0.166442445,-0.960385725,-0.28039479,-5.234179999999999,14.542779999999999,15.977219999999999,70.0
1774822604.7616017,0.006993532180786133,2026-03-29T22:16:44.761,2026-03-29T18:16:44.761,-33649.244999999995,-46463.895,-84589.965,-49976.775,-12676.949999999999,-18004.364999999998,6506.6849999999995,-52931.159999999996,6.371685857491315,8.042235073460667,10.726146303278954,8.512136095966994,-1.5844721906624981,0.7249481418830929,-9.147153177149201,2.7225657497729956,0.166442445,-0.960385725,-0.28039479,-5.234179999999999,14.542779999999999,15.977219999999999,70.0
1774822604.7616165,1.4781951904296875e-05,2026-03-29T22:16:44.761,2026-03-29T18:16:44.761,-33644.025,-46456.83,-84584.295,-49964.939999999995,-12610.755,-17981.28,6521.759999999999,-52936.155,5.632983975813814,6.519575874669234,7.764350273512639,6.047052916887658,-0.7679815017537861,0.40845939503911927,-4.053109617450137,3.360361357106457,0.166442445,-0.960385725,-0.28039479,-5.234179999999999,14.542779999999999,15.977219999999999,70.0
1774822604.7635386,0.0019221305847167969,2026-03-29T22:16:44.763,2026-03-29T18:16:44.763,-33648.299999999996,-46458.99,-84590.055,-49974.659999999996,-12610.26,-17988.57,6503.58,-52946.505,2.5453995704574766,2.426331130646948,1.7629004501316765,1.2137876213599936,0.3445914040582906,-0.2166079880961607,3.2837567682613487,2.4806143931054314,0.166442445,-0.960385725,-0.28039479,-5.234179999999999,14.542779999999999,15.977219999999999,70.0
1774822604.763559,2.0503997802734375e-05,2026-03-29T22:16:44.763,2026-03-29T18:16:44.763,-33665.67,-46476.54,-84616.56,-50015.025,-12669.795,-18012.329999999998,6494.759999999999,-52960.005,-1.7624559014017642,-2.833932192661826,-5.12686606397849,-4.164607832900008,0.895727551428549,-1.2054122397234288,9.221477048180619,0.4875145576137991,0.166442445,-0.960385725,-0.28039479,-5.234179999999999,14.542779999999999,15.977219999999999,70.0
1774822604.76757,0.004010915756225586,2026-03-29T22:16:44.767,2026-03-29T18:16:44.767,-33662.34,-46481.354999999996,-84622.23,-49994.82,-12647.295,-18007.829999999998,6510.014999999999,-52954.064999999995,-5.572260236356889,-7.2946311986437395,-10.311726349674935,-8.027542375167554,0.4707794248433984,-2.229517529913451,10.699261570137802,-1.7089410207803872,0.166442445,-0.960385725,-0.28039479,-5.234179999999999,14.542779999999999,15.977219999999999,70.0
1774822604.767586,1.5974044799804688e-05,2026-03-29T22:16:44.767,2026-03-29T18:16:44.767,-33676.29,-46500.659999999996,-84638.11499999999,-50004.27,-12655.619999999999,-18017.73,6498.495,-52958.025,-7.253158772249392,-9.127079059631004,-11.688756308012781,-8.8333204100986,-0.6257190130050481,-2.6675968757808635,6.808698410998933,-3.1219332364511194,0.166442445,-0.960385725,-0.28039479,-5.234179999999999,14.542779999999999,15.977219999999999,70.0
1774822604.7749286,0.00734257698059082,2026-03-29T22:16:44.774,2026-03-29T18:16:44.774,-33677.46,-46495.53,-84627.18,-50000.715,-12661.199999999999,-18017.64,6465.87,-52965.134999999995,-5.964500885947964,-7.384956097660312,-8.486760362337598,-6.157883583228435,-1.5562609387151154,-1.9632780812119537,-0.673564612653616,-3.141160147196404,0.161315505,-0.96154539,-0.29028246,-5.00528,11.00246,14.78694,70.0
1774822604.7749398,1.1205673217773438e-05,2026-03-29T22:16:44.774,2026-03-29T18:16:44.774,-33662.25,-46476.765,-84604.275,-49978.89,-12645.585,-17999.954999999998,6455.655,-52965.945,-2.079397156982596,-2.49280325749057,-1.6875509237348298,-0.9138390561777526,-1.4940791731255847,-0.05090028396228991,-8.095156907753788,-1.7975260644321498,0.161315505,-0.96154539,-0.29028246,-5.00528,11.00246,14.78694,70.0
1774822604.7749524,1.2636184692382812e-05,2026-03-29T22:16:44.774,2026-03-29T18:16:44.774,-33655.049999999996,-46476.765,-84609.045,-49984.38,-12648.824999999999,-17994.195,6470.775,-52948.215,2.885737326682636,3.773513787583417,6.199082256159226,4.921645209707206,-0.19775597377465592,2.4290919590073896,-11.711428844702136,0.27608388476809087,0.161315505,-0.96154539,-0.29028246,-5.00528,11.00246,14.78694,70.0
1774822604.774959,6.67572021484375e-06,2026-03-29T22:16:44.774,2026-03-29T18:16:44.774,-33648.57,-46465.155,-84594.105,-49975.29,-12660.885,-18000.945,6439.679999999999,-52946.189999999995,6.850960432888577,8.88892636358537,12.009745411990421,9.014959326230128,1.7438367118017708,4.313939301283902,-9.570588520412668,2.1550617359988045,0.161315505,-0.96154539,-0.29028246,-5.00528,11.00246,14.78694,70.0
1774822604.7793467,0.004387617111206055,2026-03-29T22:16:44.779,2026-03-29T18:16:44.779,-33629.4,-46439.46,-84568.72499999999,-49955.985,-12670.47,-18008.28,6417.134999999999,-52946.865,8.047639200881436,10.586232302967977,13.178685892707872,9.590010345580811,3.1766072892290267,4.469847498079668,-2.5516007972393804,3.046984820893479,0.161315505,-0.96154539,-0.29028246,-5.00528,11.00246,14.78694,70.0
1774822604.7793767,3.0040740966796875e-05,2026-03-29T22:16:44.779,2026-03-29T18:16:44.779,-33649.875,-46466.955,-84600.45,-49980.509999999995,-12670.605,-18002.114999999998,6475.815,-52943.805,5.819175826543556,7.873093286160824,8.881947155782306,6.202269572521215,3.038752758281937,2.447265048246788,5.9922611552257345,2.6293151626049656,0.161315505,-0.96154539,-0.29028246,-5.00528,11.00246,14.78694,70.0
1774822604.7841063,0.004729509353637695,2026-03-29T22:16:44.784,2026-03-29T18:16:44.784,-33670.665,-46494.765,-84624.12,-49996.395,-12624.21,-17968.23,6515.955,-52936.829999999994,0.9797079901016711,1.5974313856249542,0.5594688108813366,0.03468665681946064,1.046209763640406,-1.128503930568337,11.84251391447108,1.1553394817298104,0.161315505,-0.96154539,-0.29028246,-5.00528,11.00246,14.78694,70.0
1774822604.7841372,3.0994415283203125e-05,2026-03-29T22:16:44.784,2026-03-29T18:16:44.784,-33681.24,-46503.81,-84633.03,-49995.36,-12628.529999999999,-17979.84,6504.84,-52944.525,-4.464374669637,-5.755027794849307,-8.497070069819292,-6.467375280481979,-2.007064625302158,-4.701698793413996,12.001250733000148,-0.6993808406484016,0.161315505,-0.96154539,-0.29028246,-5.00528,11.00246,14.78694,70.0
1774822604.79382,0.009682655334472656,2026-03-29T22:16:44.793,2026-03-29T18:16:44.793,-33685.155,-46501.784999999996,-84632.22,-49999.725,-12653.279999999999,-18004.77,6479.91,-52958.744999999995,-8.146715677157907,-11.027551546467723,-14.420001084006925,-10.54154365091275,-4.5565323930570605,-6.467939152780205,6.219589866737421,-2.1578131676115557,0.161315505,-0.96154539,-0.29028246,-5.00528,11.00246,14.78694,70.0
1774822604.7938547,3.4809112548828125e-05,2026-03-29T22:16:44.793,2026-03-29T18:16:44.793,-33680.655,-46503.405,-84643.47,-50024.159999999996,-12687.57,-18028.89,6455.7,-52963.74,-8.382238792683685,-11.758333991509364,-14.42646728897962,-10.283789540209261,-5.069132391703486,-5.2930980318601275,-2.808874278805528,-2.6720609454858812,0.161315505,-0.96154539,-0.29028246,-5.00528,11.00246,14.78694,70.0
1774822604.7938828,2.8133392333984375e-05,2026-03-29T22:16:44.793,2026-03-29T18:16:44.793,-33676.38,-46504.08,-84645.855,-50027.354999999996,-12689.82,-18026.37,6438.014999999999,-52955.729999999996,-4.953458596251743,-7.350067184551347,-8.147680106804222,-5.553938673133997,-2.9288555232711433,-1.3987183149638287,-10.715236838871153,-2.120644390814724,0.15808065,-0.960019515,-0.295348365,-3.3419399999999997,8.82028,13.8866,70.0
1774822604.7938945,1.1682510375976562e-05,2026-03-29T22:16:44.793,2026-03-29T18:16:44.793,-33664.95,-46488.869999999995,-84624.48,-50011.38,-12674.385,-18007.2,6473.969999999999,-52944.03,0.7318332962437231,0.5211802599284191,2.017599240494561,1.8260503495696343,1.0926769324746703,3.5848940591403715,-13.581349959040905,-0.806813638012931,0.15808065,-0.960019515,-0.295348365,-3.3419399999999997,8.82028,13.8866,70.0
1774822604.795602,0.0017075538635253906,2026-03-29T22:16:44.795,2026-03-29T18:16:44.795,-33655.455,-46467.314999999995,-84588.84,-49983.21,-12651.435,-17982.315,6469.245,-52947.405,6.214423798611166,8.51495355021458,11.781073251102555,8.741889418556884,5.0908148402305455,7.298859865210534,-9.884050570831759,0.7119180268205533,0.15808065,-0.960019515,-0.295348365,-3.3419399999999997,8.82028,13.8866,70.0
1774822604.795624,2.193450927734375e-05,2026-03-29T22:16:44.795,2026-03-29T18:16:44.795,-33651.765,-46466.865,-84588.61499999999,-49990.185,-12666.33,-18002.114999999998,6403.05,-52958.52,9.05789658596806,13.04930943903825,16.776515177799578,12.09871610679266,6.939255905612595,7.7874918077897615,-1.2903452590846132,1.8661805513965073,0.15808065,-0.960019515,-0.295348365,-3.3419399999999997,8.82028,13.8866,70.0
1774822604.7993643,0.0037403106689453125,2026-03-29T22:16:44.799,2026-03-29T18:16:44.799,-33668.055,-46488.15,-84620.43,-49996.305,-12658.095,-17998.065,6447.599999999999,-52969.95,7.949368006257344,11.929830676532651,14.539665922769961,10.224920459460328,5.418385661067164,4.532426713633512,8.107295611245798,2.2808100761039065,0.15808065,-0.960019515,-0.295348365,-3.3419399999999997,8.82028,13.8866,70.0
1774822604.7993815,1.71661376953125e-05,2026-03-29T22:16:44.799,2026-03-29T18:16:44.799,-33648.165,-46464.615,-84592.395,-49953.96,-12610.17,-17948.34,6542.775,-52945.2,3.3212813514260984,5.433183126888877,5.746400850947205,3.7228938647709384,0.963063992012368,-1.1585702394103659,13.758957838771778,1.8746192424257009,0.15808065,-0.960019515,-0.295348365,-3.3419399999999997,8.82028,13.8866,70.0
1774822604.8035285,0.004147052764892578,2026-03-29T22:16:44.803,2026-03-29T18:16:44.803,-33662.385,-46471.455,-84597.075,-49967.729999999996,-12632.805,-17976.555,6492.0599999999995,-52960.994999999995,-2.807046154232103,-3.698645806803936,-5.921881057399868,-4.673539160136075,-4.409537007050247,-6.664222246775806,12.873449015401176,0.8430463072405049,0.15808065,-0.960019515,-0.295348365,-3.3419399999999997,8.82028,13.8866,70.0
1774822604.803548,1.9550323486328125e-05,2026-03-29T22:16:44.803,2026-03-29T18:16:44.803,-33663.645,-46476.945,-84606.66,-49982.04,-12653.189999999999,-18003.51,6425.955,-52969.095,-7.716386166802225,-11.413092575181675,-15.312667863537847,-11.23974181839959,-8.022035867201199,-9.270641746996288,5.79650172775106,-0.4404064466896689,0.15808065,-0.960019515,-0.295348365,-3.3419399999999997,8.82028,13.8866,70.0
1774822604.8137507,0.010202646255493164,2026-03-29T22:16:44.813,2026-03-29T18:16:44.813,-33689.07,-46520.82,-84661.69499999999,-50036.895,-12703.41,-18046.44,6432.4349999999995,-52956.72,-9.211034616110659,-14.166654173236187,-18.101836410876725,-12.92897926994779,-7.883835170362783,-7.526101938096028,-4.130428720596374,-1.5523424441333247,0.15808065,-0.960019515,-0.295348365,-3.3419399999999997,8.82028,13.8866,70.0
1774822604.8137655,1.4781951904296875e-05,2026-03-29T22:16:44.813,2026-03-29T18:16:44.813,-33690.195,-46513.619999999995,-84642.61499999999,-50009.895,-12672.585,-18017.46,6484.545,-52960.545,-6.620673370756285,-10.582940828193493,-12.82121021506002,-8.814406894573008,-3.780224307274661,-2.0466850310726485,-12.16977257359161,-2.1377127380378145,0.15808065,-0.960019515,-0.295348365,-3.3419399999999997,8.82028,13.8866,70.0
1774822604.8137796,1.4066696166992188e-05,2026-03-29T22:16:44.813,2026-03-29T18:16:44.813,-33679.665,-46502.235,-84630.87,-50001.119999999995,-12667.77,-18018.18,6487.92,-52955.145,-1.1145404305016782,-2.1598482586441965,-1.647271916170985,-0.6092148197847815,2.488776259166796,4.6718237334730865,-14.470452599267395,-1.9999263946158314,0.153869235,-0.95751708,-0.29931564,-4.8831999999999995,6.5618,13.0473,70.0
1774822604.8137844,4.76837158203125e-06,2026-03-29T22:16:44.813,2026-03-29T18:16:44.813,-33671.25,-46502.325,-84640.68,-50020.83,-12691.08,-18037.844999999998,6465.285,-52951.5,4.825423766663952,7.344666662941943,10.477564231943479,8.029837137025938,7.901151325476626,9.398141816482967,-9.923840479606206,-1.1566971212896293,0.153869235,-0.95751708,-0.29931564,-4.8831999999999995,6.5618,13.0473,70.0
1774822604.815034,0.001249551773071289,2026-03-29T22:16:44.815,2026-03-29T18:16:44.815,-33654.15,-46474.74,-84608.955,-49991.04,-12664.17,-18007.38,6496.83,-52955.82,8.53561306748467,13.603305938376295,18.047256301384053,13.142529326316197,9.687233548059554,9.73800817839299,-0.693150422390965,0.14713322299685014,0.153869235,-0.95751708,-0.29931564,-4.8831999999999995,6.5618,13.0473,70.0
1774822604.8150454,1.1444091796875e-05,2026-03-29T22:16:44.815,2026-03-29T18:16:44.815,-33664.635,-46475.369999999995,-84599.595,-49974.03,-12657.105,-18005.13,6521.355,-52969.454999999994,8.38509860956921,13.71981808664747,17.52967110760048,12.30897215640292,6.758989763484239,5.361952215144283,8.834897147916125,1.485650979863861,0.153869235,-0.95751708,-0.29931564,-4.8831999999999995,6.5618,13.0473,70.0
1774822604.8191571,0.004111766815185547,2026-03-29T22:16:44.819,2026-03-29T18:16:44.819,-33666.885,-46493.369999999995,-84626.685,-49995.0,-12714.029999999999,-18061.92,6507.45,-52953.435,4.510657384661343,7.600766833919674,9.053083156208396,5.825751537785072,0.3521555093092048,-1.7466820424712652,14.15997831356677,2.367585385791433,0.153869235,-0.95751708,-0.29931564,-4.8831999999999995,6.5618,13.0473,70.0
1774822604.8191714,1.430511474609375e-05,2026-03-29T22:16:44.819,2026-03-29T18:16:44.819,-33654.15,-46477.17,-84610.98,-49984.92,-12714.39,-18061.739999999998,6506.37,-52943.67,-1.2671987271092389,-1.964941452155277,-3.580465666631753,-3.3706732257991,-6.489321131970916,-8.190053557857976,12.813739365468187,2.4066231032198813,0.153869235,-0.95751708,-0.29931564,-4.8831999999999995,6.5618,13.0473,70.0
