unix_time_s,dt_s,UTC,LOCAL,EMG1_Raw,EMG2_Raw,EMG3_Raw,EMG4_Raw,EMG5_Raw,EMG6_Raw,EMG7_Raw,EMG8_Raw,EMG1_Filtered,EMG2_Filtered,EMG3_Filtered,EMG4_Filtered,EMG5_Filtered,EMG6_Filtered,EMG7_Filtered,EMG8_Filtered,Accel1_Raw,Accel2_Raw,Accel3_Raw,Gyro1_Raw,Gyro2_Raw,Gyro3_Raw,Battery
1774823719.3843296,,2026-03-29T22:35:19.384,2026-03-29T18:35:19.384,-20575.26,-45296.549999999996,-76374.18,-47932.515,-8131.455,-15625.619999999999,8612.505,-61462.079999999994,0.7307469910236241,-0.22616440933665716,-0.1854204527604587,0.9153850647023541,0.9336387309544517,0.5490763803363659,3.1120071109594933,1.4118656966532475,0.403014105,-0.93273687,0.12359587500000001,-6.4702399999999995,2.4110799999999997,22.00492,67.0
1774823719.38435,2.0503997802734375e-05,2026-03-29T22:35:19.384,2026-03-29T18:35:19.384,-20591.82,-45305.009999999995,-76388.895,-47918.475,-8109.99,-15612.074999999999,8615.565,-61483.14,-0.3902250499282017,-1.6808739791271565,-5.261902504462241,-2.254136039333247,0.5658762606465735,-1.843092286044905,2.1367082829462487,-0.1577139342092904,0.403014105,-0.93273687,0.12359587500000001,-6.4702399999999995,2.4110799999999997,22.00492,67.0
1774823719.384366,1.5974044799804688e-05,2026-03-29T22:35:19.384,2026-03-29T18:35:19.384,-20579.94,-45285.479999999996,-76392.72,-47955.284999999996,-8131.32,-15625.125,8622.81,-61476.524999999994,-1.23200277359474,-2.5912314646526307,-8.071834711585904,-4.305872861432245,-0.04100088837357454,-3.4356765105402105,0.5477331719333408,-1.5101776247725573,0.403014105,-0.93273687,0.12359587500000001,-6.4702399999999995,2.4110799999999997,22.00492,67.0
1774823719.3843732,7.152557373046875e-06,2026-03-29T22:35:19.384,2026-03-29T18:35:19.384,-20571.39,-45282.645,-76404.285,-47988.99,-8153.549999999999,-15638.939999999999,8623.08,-61470.18,-1.3299715589108816,-2.6799666924038554,-7.622328168754076,-4.468349586891922,-0.7872396403041062,-3.6577738694014923,-1.1726413141694658,-1.9128435868658038,0.403014105,-0.93273687,0.12359587500000001,-6.4702399999999995,2.4110799999999997,22.00492,67.0
1774823719.3843808,7.62939453125e-06,2026-03-29T22:35:19.384,2026-03-29T18:35:19.384,-20570.67,-45283.814999999995,-76397.48999999999,-47977.83,-8160.389999999999,-15650.82,8609.94,-61470.72,-0.639368589992742,-1.8741889775089315,-4.233859043002455,-2.83016874268256,-1.4607599235214452,-2.498817980361795,-2.5599295848139367,-1.182048664912359,0.403014105,-0.93273687,0.12359587500000001,-6.4702399999999995,2.4110799999999997,22.00492,67.0
1774823719.3843875,6.67572021484375e-06,2026-03-29T22:35:19.384,2026-03-29T18:35:19.384,-20566.844999999998,-45276.345,-76381.69499999999,-47968.83,-8157.285,-15644.474999999999,8597.205,-61472.295,0.4443486508166577,-0.34320797154072313,0.6784154518255725,-0.21818003426781227,-1.76917074669454,-0.46654906802375384,-3.2390733021150475,0.22567329562427685,0.403014105,-0.93273687,0.12359587500000001,-6.4702399999999995,2.4110799999999997,22.00492,67.0
1774823719.384395,7.3909759521484375e-06,2026-03-29T22:35:19.384,2026-03-29T18:35:19.384,-20565.63,-45271.799999999996,-76366.035,-47950.695,-8137.035,-15623.775,8603.1,-61476.479999999996,1.3019438412331137,1.4896978915706534,5.208988688438046,2.2349838779743663,-1.4523615260548843,1.6491488088485071,-2.9711766955816463,1.4727689180866856,0.403014105,-0.93273687,0.12359587500000001,-6.4702399999999995,2.4110799999999997,22.00492,67.0
1774823719.384401,6.198883056640625e-06,2026-03-29T22:35:19.384,2026-03-29T18:35:19.384,-20564.055,-45270.854999999996,-76363.2,-47944.89,-8129.25,-15614.189999999999,8605.935,-61475.174999999996,1.4279245273586274,3.0065853925540758,7.685734767756598,3.602558363935019,-0.4400020114982497,3.0905848728286327,-1.7136609963492542,1.8107148963619775,0.403014105,-0.93273687,0.12359587500000001,-6.4702399999999995,2.4110799999999997,22.00492,67.0
1774823719.384408,6.9141387939453125e-06,2026-03-29T22:35:19.384,2026-03-29T18:35:19.384,-20565.899999999998,-45278.549999999996,-76374.98999999999,-47951.145,-8131.094999999999,-15613.244999999999,8618.535,-61468.695,0.7103303474367315,3.5635092065131975,7.245920796248331,3.5130556942470914,1.0285302767704283,3.394973363675267,0.3042182756371662,1.0065612999648927,0.403014105,-0.93273687,0.12359587500000001,-6.4702399999999995,2.4110799999999997,22.00492,67.0
1774823719.384414,5.9604644775390625e-06,2026-03-29T22:35:19.384,2026-03-29T18:35:19.384,-20568.87,-45284.715,-76385.11499999999,-47959.2,-8138.88,-15620.265,8630.369999999999,-61467.84,-0.4960133764161883,2.750607104345529,4.091215198591054,2.204798342545411,2.4118941546931048,2.518243040869699,2.5423270232710187,-0.508949409333394,0.403014105,-0.93273687,0.12359587500000001,-6.4702399999999995,2.4110799999999997,22.00492,67.0
1774823719.384421,7.152557373046875e-06,2026-03-29T22:35:19.384,2026-03-29T18:35:19.384,-20570.985,-45291.555,-76389.345,-47960.595,-8143.11,-15627.015,8627.175,-61467.119999999995,-1.5445821461579652,0.646814498691791,-0.6220028556950705,0.3132596032129757,3.0448977065051053,0.8025961403984462,4.224708683167365,-1.8608431286400529,0.395811975,-0.92834235,0.125793135,-12.31482,2.9757,22.462719999999997,67.0
1774823719.3844273,6.198883056640625e-06,2026-03-29T22:35:19.384,2026-03-29T18:35:19.384,-20572.965,-45308.205,-76404.285,-47961.134999999995,-8145.719999999999,-15634.394999999999,8605.574999999999,-61466.22,-1.8335581398596208,-2.0757840584557408,-5.189520755741844,-1.4575222172269697,2.4417888579973437,-1.1691728376533952,4.571927220885959,-2.208798452664711,0.395811975,-0.92834235,0.125793135,-12.31482,2.9757,22.462719999999997,67.0
1774823719.384434,6.67572021484375e-06,2026-03-29T22:35:19.384,2026-03-29T18:35:19.384,-20568.69,-45314.729999999996,-76416.84,-47955.06,-8138.295,-15637.32,8605.89,-61463.564999999995,-1.1316034987056205,-4.313135618348396,-7.928497959127992,-2.601766307531613,0.593659311224893,-2.7636537976539093,3.14466533617118,-1.2320794129773047,0.395811975,-0.92834235,0.125793135,-12.31482,2.9757,22.462719999999997,67.0
1774823719.38444,5.9604644775390625e-06,2026-03-29T22:35:19.384,2026-03-29T18:35:19.384,-20560.59,-45313.65,-76420.665,-47956.14,-8143.424999999999,-15649.199999999999,8598.914999999999,-61456.229999999996,0.27685808438962456,-4.95617466117709,-7.747417705695369,-2.911608608744422,-1.9038956202236321,-3.4721585276115534,0.15490682392919558,0.6470481380843631,0.395811975,-0.92834235,0.125793135,-12.31482,2.9757,22.462719999999997,67.0
1774823719.384447,7.152557373046875e-06,2026-03-29T22:35:19.384,2026-03-29T18:35:19.384,-20557.035,-45314.955,-76407.20999999999,-47957.805,-8152.38,-15649.695,8615.07,-61447.005,1.7083285703995124,-3.4312241823726977,-4.555654477838138,-2.421190645741913,-4.004905768932472,-3.0399296237732414,-3.440443126168936,2.4398921799487026,0.395811975,-0.92834235,0.125793135,-12.31482,2.9757,22.462719999999997,67.0
1774823719.3844533,6.198883056640625e-06,2026-03-29T22:35:19.384,2026-03-29T18:35:19.384,-20561.085,-45308.564999999995,-76396.36499999999,-47973.284999999996,-8165.429999999999,-15641.234999999999,8622.99,-61444.979999999996,2.409438676027446,-0.0950702704486395,0.6244771059747426,-1.2936068419993623,-4.634685967132508,-1.538928403289713,-6.18914578499416,3.096868675128418,0.395811975,-0.92834235,0.125793135,-12.31482,2.9757,22.462719999999997,67.0
1774823719.3844604,7.152557373046875e-06,2026-03-29T22:35:19.384,2026-03-29T18:35:19.384,-20583.54,-45285.165,-76385.97,-47975.805,-8161.695,-15629.039999999999,8607.06,-61477.829999999994,1.9405009328373664,3.758849085137676,5.921705674479108,0.2444546041724509,-3.2181755902670646,0.6232991537656646,-6.708949521875842,2.0886659801212297,0.395811975,-0.92834235,0.125793135,-12.31482,2.9757,22.462719999999997,67.0
1774823719.3844664,5.9604644775390625e-06,2026-03-29T22:35:19.384,2026-03-29T18:35:19.384,-20594.114999999998,-45261.36,-76359.915,-47943.854999999996,-8130.33,-15612.615,8628.435,-61496.505,0.4226888764678589,6.370342037190551,9.23016134944717,1.8857324791232355,-0.06350660308692564,2.7745675519193003,-4.36042423201346,-0.24748020400294057,0.395811975,-0.92834235,0.125793135,-12.31482,2.9757,22.462719999999997,67.0
1774823719.391766,0.007299661636352539,2026-03-29T22:35:19.391,2026-03-29T18:35:19.391,-20601.45,-45268.38,-76363.29,-47944.305,-8128.844999999999,-15615.135,8638.83,-61496.505,-1.4812574658669089,6.307275404722337,9.011468483613868,3.201022766036012,3.6250995643674777,4.1438638049952035,0.2919025638394789,-2.8022483762753487,0.395811975,-0.92834235,0.125793135,-12.31482,2.9757,22.462719999999997,67.0
1774823719.3917885,2.2411346435546875e-05,2026-03-29T22:35:19.391,2026-03-29T18:35:19.391,-20591.415,-45277.92,-76379.895,-47965.455,-8144.19,-15626.205,8619.57,-61485.975,-2.8569761816700225,3.2314784805075862,5.00080998710128,3.6767420069292567,6.18116831586111,4.1100514186735095,5.5122211906504575,-4.214842301245928,0.395811975,-0.92834235,0.125793135,-12.31482,2.9757,22.462719999999997,67.0
1774823719.3918083,1.9788742065429688e-05,2026-03-29T22:35:19.391,2026-03-29T18:35:19.391,-20587.5,-45282.375,-76383.855,-47969.595,-8145.9,-15618.914999999999,8610.705,-61486.604999999996,-2.9714085345912817,-1.766079002988279,-1.5014710647376723,2.8933220922523732,6.2157790047614645,2.4709497716281987,9.0057415045972,-3.577830730689488,0.388853985,-0.928403385,0.122497245,-19.39546,-0.9308599999999999,25.1027,67.0
1774823719.3918197,1.1444091796875e-05,2026-03-29T22:35:19.391,2026-03-29T18:35:19.391,-20587.815,-45282.645,-76382.91,-47959.74,-8140.5,-15616.71,8604.0,-61488.99,-1.6461083657972855,-6.503024234157506,-7.9655579842644535,0.7969142154435153,3.3415510485576845,-0.3771254933387833,8.915443717521558,-0.9684405716246492,0.388853985,-0.928403385,0.122497245,-19.39546,-0.9308599999999999,25.1027,67.0
1774823719.3964,0.004580259323120117,2026-03-29T22:35:19.396,2026-03-29T18:35:19.396,-20583.989999999998,-45281.97,-76381.875,-47952.54,-8134.92,-15616.619999999999,8617.994999999999,-61482.24,0.6127107675788505,-8.644158037405745,-11.568059558331832,-2.0905921951320687,-1.4855715071306252,-3.4655969087717247,4.776340711397178,2.488480307231691,0.388853985,-0.928403385,0.122497245,-19.39546,-0.9308599999999999,25.1027,67.0
1774823719.3964543,5.435943603515625e-05,2026-03-29T22:35:19.396,2026-03-29T18:35:19.396,-20575.44,-45277.155,-76373.325,-47943.314999999995,-8126.415,-15608.744999999999,8639.64,-61469.189999999995,2.8043846302805786,-6.845307290266707,-10.411407242609194,-4.703483957526729,-6.236511534006559,-5.54213384488688,-2.0517363886171807,5.099739878069498,0.388853985,-0.928403385,0.122497245,-19.39546,-0.9308599999999999,25.1027,67.0
1774823719.4011867,0.004732370376586914,2026-03-29T22:35:19.401,2026-03-29T18:35:19.401,-20569.32,-45272.97,-76371.075,-47950.74,-8133.075,-15612.119999999999,8643.42,-61461.674999999996,3.8737793149303594,-1.545467769353338,-4.508666233272351,-5.790552389650231,-8.6463332128086,-5.561931753822554,-8.767586750491558,5.42388191526291,0.388853985,-0.928403385,0.122497245,-19.39546,-0.9308599999999999,25.1027,67.0
1774823719.4012086,2.193450927734375e-05,2026-03-29T22:35:19.401,2026-03-29T18:35:19.401,-20581.785,-45284.895,-76381.37999999999,-47961.765,-8146.125,-15625.935,8613.72,-61472.744999999995,3.20909732563433,5.041478686267487,3.9707890334828937,-4.501902493072054,-7.28211625786463,-3.199069480534784,-12.260964386950352,3.038569558080513,0.388853985,-0.928403385,0.122497245,-19.39546,-0.9308599999999999,25.1027,67.0
1774823719.404802,0.00359344482421875,2026-03-29T22:35:19.404,2026-03-29T18:35:19.404,-20585.79,-45285.479999999996,-76373.28,-47960.055,-8151.705,-15628.635,8577.945,-61470.854999999996,0.9671481943202108,9.828459405092271,11.43017344444194,-0.9347545726886658,-2.343310941684264,0.8662450083511682,-10.545549858503094,-1.142996219003381,0.388853985,-0.928403385,0.122497245,-19.39546,-0.9308599999999999,25.1027,67.0
1774823719.4048254,2.3365020751953125e-05,2026-03-29T22:35:19.404,2026-03-29T18:35:19.404,-20566.53,-45267.03,-76358.925,-47941.604999999996,-8129.34,-15609.465,8576.82,-61464.915,-1.938224523556408,10.29622990158293,14.346986414046217,3.68185293073159,4.235376385058206,5.0764045388913095,-3.8354638046847502,-5.206858860211173,0.388853985,-0.928403385,0.122497245,-19.39546,-0.9308599999999999,25.1027,67.0
1774823719.4089262,0.004100799560546875,2026-03-29T22:35:19.408,2026-03-29T18:35:19.408,-20554.11,-45256.814999999995,-76351.77,-47928.78,-8111.34,-15593.31,8618.715,-61458.299999999996,-4.203227794805181,5.803822258292347,10.934558082056592,7.355934367974321,9.515439509200096,7.566374493213586,5.300725594059431,-7.109906275325586,0.388853985,-0.928403385,0.122497245,-19.39546,-0.9308599999999999,25.1027,67.0
1774823719.4089415,1.52587890625e-05,2026-03-29T22:35:19.408,2026-03-29T18:35:19.408,-20576.565,-45285.345,-76386.19499999999,-47962.439999999995,-8145.764999999999,-15626.295,8639.324999999999,-61465.814999999995,-4.712069844941305,-1.9072599831163028,2.1812007443582155,8.180349724244042,10.859541669586743,6.9827298890951575,12.891854224385728,-5.6934780827964975,0.388853985,-0.928403385,0.122497245,-19.39546,-0.9308599999999999,25.1027,67.0
1774823719.4206452,0.011703729629516602,2026-03-29T22:35:19.420,2026-03-29T18:35:19.420,-20596.184999999998,-45305.369999999995,-76409.37,-47984.22,-8167.094999999999,-15648.66,8637.975,-61478.189999999995,-3.0733530486561547,-9.350527814836997,-8.317292465391027,5.305549151862945,7.234845796006014,3.196518689813225,15.287312405588048,-1.3415512089460935,0.38391015,-0.9389624400000001,0.11437959,-18.785059999999998,-2.1516599999999997,27.406959999999998,67.0
1774823719.4209423,0.0002970695495605469,2026-03-29T22:35:19.420,2026-03-29T18:35:19.420,-20600.145,-45308.61,-76414.545,-47988.0,-8170.29,-15653.925,8612.73,-61486.424999999996,0.13710847003317161,-12.863066746025309,-15.797204755247044,-0.45224400753068783,-0.12380287561921165,-2.4569779695527547,10.905770014507436,4.074678467595339,0.38391015,-0.9389624400000001,0.11437959,-18.785059999999998,-2.1516599999999997,27.406959999999998,67.0
1774823719.4209678,2.5510787963867188e-05,2026-03-29T22:35:19.420,2026-03-29T18:35:19.420,-20580.03,-45289.08,-76392.27,-47967.84,-8151.884999999999,-15636.689999999999,8598.869999999999,-61474.454999999994,3.5630247273085605,-10.403442778713263,-16.483864111323246,-6.748740791627144,-8.082195088791808,-7.604706829340541,1.174053458826608,7.995467316952749,0.38391015,-0.9389624400000001,0.11437959,-18.785059999999998,-2.1516599999999997,27.406959999999998,67.0
1774823719.4209783,1.049041748046875e-05,2026-03-29T22:35:19.420,2026-03-29T18:35:19.420,-20584.395,-45281.52,-76376.06999999999,-47937.375,-8119.3949999999995,-15603.705,8631.855,-61480.17,5.632418196673999,-2.6979009611145592,-9.492098351195967,-10.644955930076273,-12.930738663860375,-9.820588698815003,-9.87056911455458,8.376751468205875,0.38391015,-0.9389624400000001,0.11437959,-18.785059999999998,-2.1516599999999997,27.406959999999998,67.0
1774823719.4209905,1.2159347534179688e-05,2026-03-29T22:35:19.420,2026-03-29T18:35:19.420,-20598.075,-45296.955,-76392.675,-47927.835,-8108.73,-15595.965,8638.38,-61489.799999999996,5.270022660682492,6.894177452497235,2.4849213609750676,-9.977071510540444,-12.111467958718935,-7.767079506596512,-17.247207907534694,4.735928442928468,0.38391015,-0.9389624400000001,0.11437959,-18.785059999999998,-2.1516599999999997,27.406959999999998,67.0
1774823719.4210002,9.775161743164062e-06,2026-03-29T22:35:19.421,2026-03-29T18:35:19.421,-20596.995,-45301.455,-76398.56999999999,-47936.384999999995,-8120.61,-15609.734999999999,8626.365,-61486.649999999994,2.4391622672123905,13.832746945293227,14.155352798331187,-4.525451269342283,-5.545335985335729,-1.9577807093683892,-17.28421163296373,-1.488164124715611,0.38391015,-0.9389624400000001,0.11437959,-18.785059999999998,-2.1516599999999997,27.406959999999998,67.0
1774823719.4324214,0.01142120361328125,2026-03-29T22:35:19.432,2026-03-29T18:35:19.432,-20595.42,-45296.055,-76369.86,-47935.71,-8130.735,-15629.805,8619.119999999999,-61483.905,-1.7532331457470276,14.546082666253293,19.955339322120178,3.6368228788428167,4.1206890905952855,5.278421001865212,-9.436253284922197,-7.488920488027211,0.38391015,-0.9389624400000001,0.11437959,-18.785059999999998,-2.1516599999999997,27.406959999999998,67.0
1774823719.4324358,1.430511474609375e-05,2026-03-29T22:35:19.432,2026-03-29T18:35:19.432,-20588.445,-45282.375,-76348.53,-47941.74,-8137.44,-15642.81,8617.41,-61481.07,-5.475020092039849,8.258392255358475,16.705781408604867,10.893801466085007,12.55915097968341,10.709709764115809,3.230272151131221,-10.35461272433971,0.38391015,-0.9389624400000001,0.11437959,-18.785059999999998,-2.1516599999999997,27.406959999999998,67.0
1774823719.4324496,1.3828277587890625e-05,2026-03-29T22:35:19.432,2026-03-29T18:35:19.432,-20596.094999999998,-45293.939999999995,-76368.465,-47944.305,-8138.025,-15641.595,8614.574999999999,-61490.295,-6.961019616305238,-2.435674756253712,5.328044132012504,13.686752417936617,15.69998887474969,11.645623907324754,15.212855992597971,-8.473652208874709,0.38391015,-0.9389624400000001,0.11437959,-18.785059999999998,-2.1516599999999997,27.406959999999998,67.0
1774823719.432454,4.5299530029296875e-06,2026-03-29T22:35:19.432,2026-03-29T18:35:19.432,-20597.535,-45292.59,-76362.3,-47924.909999999996,-8129.34,-15616.755,8616.42,-61490.204999999994,-5.341536211478233,-12.621169510418921,-9.297245300537089,10.257849276588582,11.693446729786356,7.2683730861457665,20.971954158598486,-2.4074954924111447,0.38391015,-0.9389624400000001,0.11437959,-18.785059999999998,-2.1516599999999997,27.406959999999998,67.0
1774823719.432459,5.0067901611328125e-06,2026-03-29T22:35:19.432,2026-03-29T18:35:19.432,-20597.94,-45285.84,-76366.75499999999,-47928.06,-8127.134999999999,-15602.265,8612.235,-61488.674999999996,-1.1226729322308624,-17.32452387249047,-20.403689484121394,1.6834765803924925,1.951221147776481,-0.8068142588272276,17.504238208362025,5.229612876466827,0.382018065,-0.957089835,0.109557825,-9.67484,-1.9075,30.260579999999997,67.0
1774823719.432463,3.814697265625e-06,2026-03-29T22:35:19.432,2026-03-29T18:35:19.432,-20590.695,-45287.64,-76395.645,-47969.28,-8161.605,-15638.715,8597.385,-61481.07,3.9369746655382145,-13.94438048849565,-22.474813991886826,-8.385924242516378,-9.303565432579152,-9.088580067803637,5.889079902935417,10.891925033560396,0.382018065,-0.957089835,0.109557825,-9.67484,-1.9075,30.260579999999997,67.0
1774823719.436771,0.004307985305786133,2026-03-29T22:35:19.436,2026-03-29T18:35:19.436,-20589.795,-45295.695,-76411.08,-47979.765,-8171.82,-15651.539999999999,8575.11,-61479.765,7.547355834123533,-3.6611356467144778,-13.985441706649718,-15.271199882703753,-16.86409977670934,-13.71581581533136,-8.981313906824399,11.7466481090445,0.382018065,-0.957089835,0.109557825,-9.67484,-1.9075,30.260579999999997,67.0
1774823719.4367845,1.3589859008789062e-05,2026-03-29T22:35:19.436,2026-03-29T18:35:19.436,-20606.489999999998,-45318.645,-76430.16,-47994.03,-8176.545,-15650.73,8557.065,-61497.494999999995,7.91737848038235,8.92872057966577,1.6157541525867503,-15.445792713724623,-16.956577813925655,-12.266223924876796,-20.465524432663244,7.079879097327899,0.382018065,-0.957089835,0.109557825,-9.67484,-1.9075,30.260579999999997,67.0
1774823719.4411716,0.0043871402740478516,2026-03-29T22:35:19.441,2026-03-29T18:35:19.441,-20603.25,-45304.695,-76398.885,-47984.49,-8168.4,-15641.955,8540.73,-61505.28,4.6348016958700375,17.870904421327207,17.274150191849277,-8.332779354401469,-9.120667834657237,-5.016499820274447,-23.15957170086945,-1.2292622354565317,0.382018065,-0.957089835,0.109557825,-9.67484,-1.9075,30.260579999999997,67.0
1774823719.4411983,2.6702880859375e-05,2026-03-29T22:35:19.441,2026-03-29T18:35:19.441,-20573.145,-45263.295,-76344.12,-47932.47,-8131.049999999999,-15619.59,8559.225,-61488.854999999996,-1.0328079050663963,18.68101151410994,25.523820172313343,3.194731813311902,3.382432738779023,4.998255639947078,-15.454690553173284,-9.451109983354197,0.382018065,-0.957089835,0.109557825,-9.67484,-1.9075,30.260579999999997,67.0
1774823719.4455996,0.004401206970214844,2026-03-29T22:35:19.445,2026-03-29T18:35:19.445,-20553.885,-45243.494999999995,-76323.915,-47907.945,-8094.915,-15577.38,8642.07,-61464.195,-6.606162149046778,10.592248304417073,22.059185838753,13.95221436710746,14.915481445884888,13.243612004983076,-0.4488570328312475,-13.679092149430447,0.382018065,-0.957089835,0.109557825,-9.67484,-1.9075,30.260579999999997,67.0
1774823719.4456184,1.8835067749023438e-05,2026-03-29T22:35:19.445,2026-03-29T18:35:19.445,-20549.745,-45241.604999999996,-76324.00499999999,-47912.534999999996,-8093.25,-15567.795,8686.44,-61453.485,-9.471560154679885,-2.9049089366765055,7.967489861833423,18.782125308803895,20.01591258114641,15.74797313343858,15.28836414806245,-11.684054264444423,0.382018065,-0.957089835,0.109557825,-9.67484,-1.9075,30.260579999999997,67.0
1774823719.4516277,0.006009340286254883,2026-03-29T22:35:19.451,2026-03-29T18:35:19.451,-20573.864999999998,-45292.14,-76368.105,-47922.795,-8113.41,-15593.265,8663.355,-61467.704999999994,-8.103996564305003,-15.570404354396086,-10.53158761038419,15.033955615191541,15.993546961808912,11.026182671025609,24.61196671955682,-4.069847787443838,0.382018065,-0.957089835,0.109557825,-9.67484,-1.9075,30.260579999999997,67.0
1774823719.4516444,1.6689300537109375e-05,2026-03-29T22:35:19.451,2026-03-29T18:35:19.451,-20570.445,-45327.555,-76425.075,-47919.555,-8102.79,-15594.3,8645.715,-61459.244999999995,-2.865496839091746,-21.318580935338403,-24.83479364816067,3.989494582615271,4.334930785991709,0.9282864581889325,23.07368637948504,5.861422915139609,0.382018065,-0.957089835,0.109557825,-9.67484,-1.9075,30.260579999999997,67.0
1774823719.4528844,0.0012400150299072266,2026-03-29T22:35:19.452,2026-03-29T18:35:19.452,-20550.375,-45340.92,-76464.045,-47940.57,-8119.259999999999,-15610.814999999999,8634.69,-61427.79,4.033983433830818,-17.15757405025565,-27.97567216791599,-9.522123456151613,-9.813410117009294,-10.059658027429705,11.05942979837051,13.538244474848101,0.37878321,-0.97216548,0.117980655,5.234179999999999,3.26564,32.59536,67.0
1774823719.4528956,1.1205673217773438e-05,2026-03-29T22:35:19.452,2026-03-29T18:35:19.452,-20530.665,-45323.369999999995,-76463.595,-47985.255,-8169.48,-15654.914999999999,8607.645,-61404.165,9.456666983172344,-4.735712087575791,-18.02664089411491,-19.237686710409413,-19.922663220495632,-16.8134908086702,-6.241885609560644,15.226287016779365,0.37878321,-0.97216548,0.117980655,5.234179999999999,3.26564,32.59536,67.0
1774823719.4608977,0.008002042770385742,2026-03-29T22:35:19.460,2026-03-29T18:35:19.460,-20520.719999999998,-45281.025,-76436.955,-48011.04,-8196.074999999999,-15674.58,8584.38,-61410.195,10.762451493705829,10.30225980479263,0.7855731387633755,-20.375357853129408,-21.109582662678758,-15.975715530082805,-21.091971338803717,9.841030444859062,0.37878321,-0.97216548,0.117980655,5.234179999999999,3.26564,32.59536,67.0
1774823719.4609175,1.9788742065429688e-05,2026-03-29T22:35:19.460,2026-03-29T18:35:19.460,-20539.934999999998,-45251.729999999996,-76385.52,-48013.47,-8200.125,-15666.074999999999,8592.255,-61446.015,7.093829258728989,20.904046707746968,19.87556074165424,-11.988721459429597,-12.502941782927298,-7.631633336018414,-26.695996161587928,-0.4120090496882262,0.37878321,-0.97216548,0.117980655,5.234179999999999,3.26564,32.59536,67.0
1774823719.4609332,1.5735626220703125e-05,2026-03-29T22:35:19.460,2026-03-29T18:35:19.460,-20588.67,-45250.74,-76354.965,-47968.424999999996,-8154.224999999999,-15619.5,8617.994999999999,-61498.53,-0.10455734962054952,21.945458761457694,30.243669246054548,2.400406180332485,2.202061760967801,4.58286769621725,-20.344639970712887,-10.929351483606066,0.37878321,-0.97216548,0.117980655,5.234179999999999,3.26564,32.59536,67.0
1774823719.46094,6.67572021484375e-06,2026-03-29T22:35:19.460,2026-03-29T18:35:19.460,-20620.62,-45281.115,-76374.315,-47927.25,-8109.315,-15582.914999999999,8650.71,-61518.78,-7.631934720835455,12.720964663245065,26.743247860154643,16.27417948918585,16.329675213743588,15.063787407376656,-4.738074363002211,-16.779193865507295,0.37878321,-0.97216548,0.117980655,5.234179999999999,3.26564,32.59536,67.0
1774823719.4662845,0.0053446292877197266,2026-03-29T22:35:19.466,2026-03-29T18:35:19.466,-20582.594999999998,-45301.545,-76407.12,-47888.595,-8084.025,-15587.189999999999,8642.88,-61475.445,-11.95045164327419,-2.6297146292815556,10.633267950575416,23.08327632665614,23.269320155821912,18.82399784353401,13.161432227831776,-15.016943214626936,0.37878321,-0.97216548,0.117980655,5.234179999999999,3.26564,32.59536,67.0
1774823719.466316,3.147125244140625e-05,2026-03-29T22:35:19.466,2026-03-29T18:35:19.466,-20593.44,-45342.945,-76462.875,-47864.79,-8068.1849999999995,-15597.224999999999,8625.285,-61479.765,-10.851227364913216,-17.003704969349968,-10.852142482093084,19.348557411020593,19.584012682594633,13.881666109005836,25.262540311466466,-6.15795572609871,0.37878321,-0.97216548,0.117980655,5.234179999999999,3.26564,32.59536,67.0
1774823719.4687948,0.0024788379669189453,2026-03-29T22:35:19.468,2026-03-29T18:35:19.468,-20625.66,-45362.79,-76485.78,-47936.924999999996,-8136.99,-15651.539999999999,8595.675,-61495.74,-4.582052102104482,-23.65964051935604,-27.783986888555315,6.425332577122043,6.712324515742136,2.3011889791503655,26.042745990590635,5.925539517800239,0.37878321,-0.97216548,0.117980655,5.234179999999999,3.26564,32.59536,67.0
1774823719.4688065,1.1682510375976562e-05,2026-03-29T22:35:19.468,2026-03-29T18:35:19.468,-20602.934999999998,-45295.064999999995,-76363.47,-48003.479999999996,-8209.305,-15681.465,8586.585,-61472.384999999995,4.137653234416383,-19.41089655417143,-32.1656730358726,-9.95946734229246,-9.57910503585196,-10.658225924325883,15.103940704489794,15.697139486539829,0.37878321,-0.97216548,0.117980655,5.234179999999999,3.26564,32.59536,67.0
1774823719.477492,0.008685588836669922,2026-03-29T22:35:19.477,2026-03-29T18:35:19.477,-20538.719999999998,-45244.89,-76363.515,-48034.755,-8234.64,-15693.029999999999,8561.744999999999,-61434.765,11.286225579231491,-6.158924430913429,-21.73070243740046,-22.255192547255795,-21.79150368602454,-18.940797048061704,-2.6126971650126625,18.498625918807093,0.37036038,-0.96545163,0.12274138500000001,12.07066,2.63998,28.536199999999997,67.0
1774823719.47751,1.7881393432617188e-05,2026-03-29T22:35:19.477,2026-03-29T18:35:19.477,-20546.594999999998,-45256.5,-76377.87,-47958.075,-8154.224999999999,-15629.039999999999,8584.38,-61452.0,13.396800417037893,9.976850861381523,-1.0943702450937032,-24.580854851219637,-24.163181594292187,-18.540541366196116,-19.073149370494345,12.771699416381967,0.37036038,-0.96545163,0.12274138500000001,12.07066,2.63998,28.536199999999997,67.0
1774823719.4775248,1.4781951904296875e-05,2026-03-29T22:35:19.477,2026-03-29T18:35:19.477,-20600.415,-45281.655,-76378.59,-47943.134999999995,-8131.59,-15594.3,8644.14,-61490.204999999994,9.244372479242932,21.527175611959194,20.32088524728982,-15.539991228876836,-15.398143443224034,-9.449888347045668,-26.832085643860978,0.8985827434319597,0.37036038,-0.96545163,0.12274138500000001,12.07066,2.63998,28.536199999999997,67.0
1774823719.4775295,4.76837158203125e-06,2026-03-29T22:35:19.477,2026-03-29T18:35:19.477,-20648.024999999998,-45308.34,-76378.815,-47963.43,-8145.8099999999995,-15607.529999999999,8621.685,-61520.759999999995,0.5400730962653483,23.17629332073265,32.63899644580069,0.9922184219360835,0.6432308027420339,4.242274440339044,-22.44658208048167,-11.782449082826517,0.37036038,-0.96545163,0.12274138500000001,12.07066,2.63998,28.536199999999997,67.0
1774823719.4822023,0.0046727657318115234,2026-03-29T22:35:19.482,2026-03-29T18:35:19.482,-20616.03,-45293.49,-76376.7,-47963.205,-8156.25,-15628.275,8581.86,-61496.325,-8.753478480684368,14.235753601596686,30.12654976081958,17.536007960836333,16.65283841382416,16.194704851003753,-8.036567432798496,-19.38305422842721,0.37036038,-0.96545163,0.12274138500000001,12.07066,2.63998,28.536199999999997,67.0
1774823719.4822304,2.8133392333984375e-05,2026-03-29T22:35:19.482,2026-03-29T18:35:19.482,-20617.965,-45284.31,-76369.905,-47910.78,-8101.844999999999,-15581.564999999999,8606.205,-61525.034999999996,-14.2237080396193,-1.076891952155589,13.870972596162312,26.407022444730984,25.22182115373857,20.765460839829537,9.730961036362077,-18.204999935953055,0.37036038,-0.96545163,0.12274138500000001,12.07066,2.63998,28.536199999999997,67.0
1774823719.485087,0.0028564929962158203,2026-03-29T22:35:19.485,2026-03-29T18:35:19.485,-20604.239999999998,-45292.905,-76368.375,-47894.13,-8083.125,-15559.875,8668.71,-61497.045,-13.109491743826743,-15.664597507816218,-8.718192472529122,23.29492967628691,22.28397549278295,15.689655361102805,22.752120244568466,-8.536294712778012,0.37036038,-0.96545163,0.12274138500000001,12.07066,2.63998,28.536199999999997,67.0
1774823719.485103,1.5974044799804688e-05,2026-03-29T22:35:19.485,2026-03-29T18:35:19.485,-20578.14,-45281.88,-76354.73999999999,-47875.59,-8074.3949999999995,-15558.93,8670.06,-61465.365,-5.699629653248681,-22.894335145154095,-27.34513415391132,9.348515329893566,9.047773166808303,3.2053355330317173,25.229978766222576,5.368019851123857,0.37036038,-0.96545163,0.12274138500000001,12.07066,2.63998,28.536199999999997,67.0
1774823719.4913237,0.006220817565917969,2026-03-29T22:35:19.491,2026-03-29T18:35:19.491,-20569.23,-45280.125,-76376.52,-47869.064999999995,-8068.905,-15557.805,8676.0,-61454.34,4.6810725660356045,-19.658525332456332,-33.5814783589566,-9.238300769561445,-8.502360694250871,-10.933693516103016,16.302030560302555,17.162368675231296,0.37036038,-0.96545163,0.12274138500000001,12.07066,2.63998,28.536199999999997,67.0
1774823719.4913442,2.0503997802734375e-05,2026-03-29T22:35:19.491,2026-03-29T18:35:19.491,-20569.59,-45289.35,-76396.31999999999,-47888.775,-8085.599999999999,-15569.595,8652.195,-61447.814999999995,13.154189317726853,-7.719536180554035,-24.713603254513025,-23.994599882616672,-22.32821234775035,-20.122125356120964,0.33864111465016955,21.31483648681946,0.37036038,-0.96545163,0.12274138500000001,12.07066,2.63998,28.536199999999997,67.0
1774823719.4930935,0.001749277114868164,2026-03-29T22:35:19.493,2026-03-29T18:35:19.493,-20589.165,-45312.884999999995,-76431.69,-47956.049999999996,-8158.094999999999,-15650.775,8548.83,-61470.0,15.58288535211041,7.250629436962688,-4.908864313493925,-28.048395834035624,-26.03669718339273,-20.00430442202823,-15.193213719898273,15.705720015693501,0.366148965,-0.9374976,0.11108370000000001,4.59326,-0.18312,30.35214,67.0
1774823719.493107,1.3589859008789062e-05,2026-03-29T22:35:19.493,2026-03-29T18:35:19.493,-20581.469999999998,-45301.86,-76416.61499999999,-47983.185,-8180.91,-15675.164999999999,8522.324999999999,-61465.409999999996,10.599626179964687,18.415552158440747,16.796130883911392,-19.328559322750372,-17.844674081502387,-10.548482924368551,-23.259013965998147,2.697587351111792,0.366148965,-0.9374976,0.11108370000000001,4.59326,-0.18312,30.35214,67.0
1774823719.5062296,0.01312255859375,2026-03-29T22:35:19.506,2026-03-29T18:35:19.506,-20587.905,-45267.39,-76369.59,-47947.095,-8140.679999999999,-15636.465,8516.61,-61493.085,0.3697697030306133,20.955740278617924,30.693586703195617,-1.5989084014567445,-1.4302721368433056,3.898407002071844,-20.495718688149733,-11.8588707354108,0.366148965,-0.9374976,0.11108370000000001,4.59326,-0.18312,30.35214,67.0
1774823719.5062475,1.7881393432617188e-05,2026-03-29T22:35:19.506,2026-03-29T18:35:19.506,-20601.989999999998,-45265.275,-76360.68,-47919.33,-8105.219999999999,-15591.644999999999,8576.82,-61514.189999999995,-10.331175121016368,14.178891587894853,30.805073002827296,17.183198560334432,15.733244584398443,16.619524939806286,-8.645413515319042,-21.26523771013371,0.366148965,-0.9374976,0.11108370000000001,4.59326,-0.18312,30.35214,67.0
1774823719.5062647,1.71661376953125e-05,2026-03-29T22:35:19.506,2026-03-29T18:35:19.506,-20610.0,-45292.14,-76383.675,-47935.215,-8124.48,-15607.574999999999,8574.885,-61513.829999999994,-16.34325403112118,1.619230806413489,17.46067940328901,28.459314167772945,25.799037320333113,21.666785737854738,6.444670926300192,-21.06595115511883,0.366148965,-0.9374976,0.11108370000000001,4.59326,-0.18312,30.35214,67.0
1774823719.5062716,6.9141387939453125e-06,2026-03-29T22:35:19.506,2026-03-29T18:35:19.506,-20618.235,-45314.415,-76402.035,-47965.634999999995,-8161.0199999999995,-15632.505,8617.365,-61492.005,-14.615543871762622,-10.819920924200328,-3.0623134606654636,26.98093967570409,24.14776060852985,16.654679959143934,17.712617446071324,-11.158880623519272,0.366148965,-0.9374976,0.11108370000000001,4.59326,-0.18312,30.35214,67.0
1774823719.5062804,8.821487426757812e-06,2026-03-29T22:35:19.506,2026-03-29T18:35:19.506,-20624.085,-45336.555,-76443.61499999999,-47977.56,-8166.554999999999,-15641.055,8664.029999999999,-61480.215,-5.760608228622919,-17.70232341968451,-21.56569939507876,13.245671120777562,11.508714586167779,3.8903689255887963,20.23236332659992,4.074462758327775,0.366148965,-0.9374976,0.11108370000000001,4.59326,-0.18312,30.35214,67.0
1774823719.506287,6.67572021484375e-06,2026-03-29T22:35:19.506,2026-03-29T18:35:19.506,-20633.085,-45354.33,-76486.995,-47983.59,-8158.5,-15644.519999999999,8678.88,-61485.57,6.12380810164204,-16.486074865060488,-30.13347830934599,-6.670468118350097,-6.373891312483984,-10.697040486305912,13.414830785262195,17.714990682736154,0.366148965,-0.9374976,0.11108370000000001,4.59326,-0.18312,30.35214,67.0
1774823719.5089598,0.0026726722717285156,2026-03-29T22:35:19.508,2026-03-29T18:35:19.508,-20625.885,-45318.015,-76393.89,-47961.945,-8144.82,-15617.43,8645.31,-61491.42,15.340852568792878,-8.433425957658613,-25.55401441898485,-23.826228790645818,-21.371460481362416,-20.32710288624766,1.0526783646325457,23.459981319999855,0.366148965,-0.9374976,0.11108370000000001,4.59326,-0.18312,30.35214,67.0
1774823719.50898,2.0265579223632812e-05,2026-03-29T22:35:19.508,2026-03-29T18:35:19.508,-20571.12,-45235.125,-76284.72,-47919.33,-8118.855,-15565.23,8668.17,-61462.619999999995,17.325323641539025,2.3084926714666056,-10.462259944862586,-30.45045426455278,-26.68445094239565,-20.535757406309703,-10.723815698322438,18.541629129084136,0.366148965,-0.9374976,0.11108370000000001,4.59326,-0.18312,30.35214,67.0
1774823719.5136366,0.004656553268432617,2026-03-29T22:35:19.513,2026-03-29T18:35:19.513,-20550.329999999998,-45222.705,-76292.86499999999,-47904.255,-8102.429999999999,-15558.255,8685.09,-61444.619999999995,10.91031408398114,10.871042280405867,8.171238780584513,-23.468041841033678,-19.933484340279488,-11.252010893056507,-16.501965753258713,5.055211874068858,0.38134668,-0.9570288,0.126891765,-5.4936,0.94612,34.5639,67.0
1774823719.5136547,1.811981201171875e-05,2026-03-29T22:35:19.513,2026-03-29T18:35:19.513,-20556.989999999998,-45241.695,-76322.52,-47919.96,-8116.0199999999995,-15584.039999999999,8661.824999999999,-61444.485,-0.9976806666209369,13.936424030407853,22.348974661809216,-5.913001755017361,-4.218594690076244,3.1867906909051484,-14.1240728728684,-10.938912275311463,0.38134668,-0.9570288,0.126891765,-5.4936,0.94612,34.5639,67.0
1774823719.5175903,0.003935575485229492,2026-03-29T22:35:19.517,2026-03-29T18:35:19.517,-20566.98,-45274.95,-76371.435,-47926.35,-8108.955,-15580.125,8666.955,-61440.615,-12.719713670753087,11.0301331886111,26.545472546378488,14.41580038959445,13.322446791487192,16.07797278705486,-5.494555586794919,-22.152076013779432,0.38134668,-0.9570288,0.126891765,-5.4936,0.94612,34.5639,67.0
1774823719.5176528,6.246566772460938e-05,2026-03-29T22:35:19.517,2026-03-29T18:35:19.517,-20587.5,-45312.975,-76407.25499999999,-47939.085,-8123.219999999999,-15595.875,8673.029999999999,-61444.53,-18.507029423742587,4.324246008178337,19.832934567706737,28.449369456424947,24.778724000649294,21.485096075121874,4.649410643812465,-23.400509871769934,0.38134668,-0.9570288,0.126891765,-5.4936,0.94612,34.5639,67.0
1774823719.5292711,0.011618375778198242,2026-03-29T22:35:19.529,2026-03-29T18:35:19.529,-20601.18,-45322.155,-76404.465,-47943.765,-8134.5599999999995,-15607.619999999999,8646.029999999999,-61454.744999999995,-15.361555452366071,-2.77358047111334,5.827858578681099,29.914337239831603,25.050562813145557,16.98527940549183,11.283349048124254,-14.00466664279565,0.38134668,-0.9570288,0.126891765,-5.4936,0.94612,34.5639,67.0
1774823719.5292883,1.71661376953125e-05,2026-03-29T22:35:19.529,2026-03-29T18:35:19.529,-20593.98,-45312.165,-76398.795,-47941.695,-8123.715,-15590.97,8621.279999999999,-61448.579999999994,-4.589728909194849,-7.395059435471768,-9.288963289187539,18.137314299959414,14.121850331042298,4.753618404214137,11.609488581570341,1.8580888619856788,0.38134668,-0.9570288,0.126891765,-5.4936,0.94612,34.5639,67.0
1774823719.529302,1.3589859008789062e-05,2026-03-29T22:35:19.529,2026-03-29T18:35:19.529,-20572.92,-45278.325,-76369.815,-47924.415,-8105.759999999999,-15574.68,8623.44,-61430.085,8.715513131506226,-8.413404271526359,-19.592244304325064,-1.667295755941834,-2.993915469970044,-9.501072648564426,6.270312579755087,17.0251620189824,0.38134668,-0.9570288,0.126891765,-5.4936,0.94612,34.5639,67.0
1774823719.5293064,4.5299530029296875e-06,2026-03-29T22:35:19.529,2026-03-29T18:35:19.529,-20581.02,-45275.265,-76378.995,-47934.405,-8116.29,-15583.994999999999,8634.555,-61434.314999999995,18.073380903140013,-6.546332353223187,-21.74438118074249,-20.740936929127443,-18.576801063497303,-19.223888238737963,-1.283462296742515,24.5995588288946,0.38134668,-0.9570288,0.126891765,-5.4936,0.94612,34.5639,67.0
1774823719.529312,5.4836273193359375e-06,2026-03-29T22:35:19.529,2026-03-29T18:35:19.529,-20580.48,-45264.015,-76363.155,-47949.255,-8145.405,-15608.115,8621.279999999999,-61446.645,18.768772264994162,-3.4853278653689728,-15.91403141411076,-30.688258942482367,-25.707032234019884,-20.049245179218737,-6.836874570697676,21.096297996266273,0.38134668,-0.9570288,0.126891765,-5.4936,0.94612,34.5639,67.0
1774823719.5293157,3.814697265625e-06,2026-03-29T22:35:19.529,2026-03-29T18:35:19.529,-20583.809999999998,-45268.604999999996,-76347.315,-47925.494999999995,-8130.465,-15601.185,8625.42,-61452.854999999996,10.226955727538963,-0.698486550930473,-5.1295457677816065,-27.18985543471384,-21.35147065785885,-11.768084814915735,-7.714221260744438,8.043411016203278,0.38134668,-0.9570288,0.126891765,-5.4936,0.94612,34.5639,67.0
1774823719.5330667,0.003751039505004883,2026-03-29T22:35:19.533,2026-03-29T18:35:19.533,-20599.605,-45294.165,-76344.56999999999,-47894.805,-8103.554999999999,-15585.48,8625.15,-61455.645,-3.5865089131668624,1.3345775280690737,6.359285438042342,-11.86920835344701,-7.646487726283305,1.6640802578937668,-4.10049883148492,-8.697987138096467,0.387755355,-0.978085875,0.129455235,-4.76112,9.11022,40.118539999999996,67.0
1774823719.5330815,1.4781951904296875e-05,2026-03-29T22:35:19.533,2026-03-29T18:35:19.533,-20612.61,-45316.395,-76363.92,-47897.415,-8105.94,-15587.46,8618.355,-61449.704999999994,-15.996251079213707,3.0369740456225065,14.80931806296935,8.491268011829122,9.162884998927607,14.038096320790629,1.2870955010754455,-21.586172242749022,0.387755355,-0.978085875,0.129455235,-4.76112,9.11022,40.118539999999996,67.0
1774823719.5375545,0.004472970962524414,2026-03-29T22:35:19.537,2026-03-29T18:35:19.537,-20610.585,-45314.235,-76374.045,-47894.939999999995,-8105.04,-15587.144999999999,8631.27,-61442.28,-20.837965728707427,4.952705576168177,18.069503091071923,24.996859894351687,21.597664912677185,19.789546994098593,4.92728312374383,-24.813786565021083,0.387755355,-0.978085875,0.129455235,-4.76112,9.11022,40.118539999999996,67.0
1774823719.5375807,2.6226043701171875e-05,2026-03-29T22:35:19.537,2026-03-29T18:35:19.537,-20595.69,-45293.715,-76366.62,-47884.095,-8092.62,-15579.72,8633.385,-61438.14,-15.517063603734268,6.883193091307929,15.78630277290557,30.562891068867582,24.298566131830114,16.518898041339718,4.608481931555742,-16.930028799215606,0.387755355,-0.978085875,0.129455235,-4.76112,9.11022,40.118539999999996,67.0
1774823719.541154,0.003573179244995117,2026-03-29T22:35:19.541,2026-03-29T18:35:19.541,-20562.075,-45259.74,-76379.715,-47921.625,-8116.0199999999995,-15602.715,8642.25,-61410.06,-2.3879109950922874,7.622505772463044,8.988448366799652,22.965762852802563,16.342933631473343,5.982712876354994,0.7181882403003166,-1.482305942237192,0.387755355,-0.978085875,0.129455235,-4.76112,9.11022,40.118539999999996,67.0
1774823719.5411701,1.621246337890625e-05,2026-03-29T22:35:19.541,2026-03-29T18:35:19.541,-20531.7,-45244.215,-76409.055,-47956.455,-8144.37,-15636.015,8640.81,-61380.045,12.275333056091789,5.593894242415693,-0.47183107142397773,5.701706530534625,1.5187535862741877,-6.849681522699852,-4.025662580886717,14.602556560272829,0.387755355,-0.978085875,0.129455235,-4.76112,9.11022,40.118539999999996,67.0
1774823719.5493176,0.008147478103637695,2026-03-29T22:35:19.549,2026-03-29T18:35:19.549,-20538.045,-45267.795,-76416.165,-47963.07,-8154.405,-15648.074999999999,8628.119999999999,-61378.335,21.273348404187182,0.08331138247417577,-10.285480974266033,-13.665511308908835,-13.501458307585366,-16.17007073832837,-6.2475052599138445,24.14887164237753,0.387755355,-0.978085875,0.129455235,-4.76112,9.11022,40.118539999999996,67.0
1774823719.5493383,2.0742416381835938e-05,2026-03-29T22:35:19.549,2026-03-29T18:35:19.549,-20589.57,-45325.215,-76414.635,-47948.939999999995,-8146.62,-15651.539999999999,8617.815,-61415.729999999996,20.013586422138008,-7.706506204371201,-17.87373693296638,-26.871805481194176,-22.19951048710674,-17.98938957323613,-4.028189850911383,22.947667466771478,0.387755355,-0.978085875,0.129455235,-4.76112,9.11022,40.118539999999996,67.0
1774823719.557177,0.007838726043701172,2026-03-29T22:35:19.557,2026-03-29T18:35:19.557,-20620.26,-45393.705,-76482.54,-47972.205,-8155.304999999999,-15648.75,8626.5,-61425.81,8.846816357593685,-14.586682038415056,-20.684771442326266,-28.51216166103338,-21.064179310285148,-11.84971405079695,1.779956023026131,11.608373120649498,0.387755355,-0.978085875,0.129455235,-4.76112,9.11022,40.118539999999996,67.0
1774823719.5571935,1.6450881958007812e-05,2026-03-29T22:35:19.557,2026-03-29T18:35:19.557,-20626.38,-45413.549999999996,-76514.22,-47984.265,-8158.049999999999,-15618.42,8613.18,-61430.445,-6.9784817680315685,-16.619503400309203,-16.871574166917473,-18.24159617376133,-10.997205165725047,-0.851965972977616,7.854808396628308,-4.767339774183712,0.387755355,-0.978085875,0.129455235,-4.76112,9.11022,40.118539999999996,67.0
1774823719.5572095,1.5974044799804688e-05,2026-03-29T22:35:19.557,2026-03-29T18:35:19.557,-20632.59,-45375.479999999996,-76472.955,-47958.165,-8127.315,-15569.144999999999,8573.67,-61458.57,-19.782329444406265,-11.21826579451432,-6.293445993456244,-0.7237343610831837,3.2865471711352976,9.926350639719235,10.23533090887612,-18.910470292819156,0.372862815,-0.9515356500000001,0.153869235,10.9872,19.2276,39.675999999999995,67.0
1774823719.557214,4.5299530029296875e-06,2026-03-29T22:35:19.557,2026-03-29T18:35:19.557,-20612.88,-45309.195,-76421.7,-47973.555,-8154.045,-15593.715,8559.855,-61438.274999999994,-23.18164559209617,0.9614645169979819,8.646824414740458,16.546693197589395,15.501286318574246,15.811662699886758,6.699199933696897,-24.635160066722953,0.372862815,-0.9515356500000001,0.153869235,10.9872,19.2276,39.675999999999995,67.0
1774823719.5572195,5.4836273193359375e-06,2026-03-29T22:35:19.557,2026-03-29T18:35:19.557,-20588.219999999998,-45270.585,-76403.295,-47997.18,-8193.869999999999,-15649.019999999999,8531.055,-61423.92,-15.269320220915008,15.50748255353291,23.029065760348548,26.507181485456943,20.59625961332421,14.58121910489727,-1.6737617178871682,-19.549012288336556,0.372862815,-0.9515356500000001,0.153869235,10.9872,19.2276,39.675999999999995,67.0
1774823719.5572245,5.0067901611328125e-06,2026-03-29T22:35:19.557,2026-03-29T18:35:19.557,-20569.725,-45269.325,-76396.545,-47968.064999999995,-8182.98,-15655.904999999999,8524.619999999999,-61423.29,0.33949867278593665,25.714577442086068,30.766709897689477,25.427900738113227,16.85470557722385,7.269250414324459,-10.736154810440713,-6.0321081146251645,0.372862815,-0.9515356500000001,0.153869235,10.9872,19.2276,39.675999999999995,67.0
1774823719.5691688,0.011944293975830078,2026-03-29T22:35:19.569,2026-03-29T18:35:19.569,-20552.399999999998,-45246.509999999995,-76364.86499999999,-47916.854999999996,-8126.73,-15596.324999999999,8664.975,-61395.479999999996,16.159985742782254,25.62071622505006,27.08654950827353,14.248407021712858,6.406435432175719,-2.542521629381964,-15.328295340341413,9.905965620528619,0.372862815,-0.9515356500000001,0.153869235,10.9872,19.2276,39.675999999999995,67.0
1774823719.569195,2.6226043701171875e-05,2026-03-29T22:35:19.569,2026-03-29T18:35:19.569,-20540.61,-45282.465,-76412.7,-47968.965,-8174.79,-15631.605,8727.119999999999,-61329.375,24.43420107885943,13.264193044225047,11.175838304199749,-2.098632173186992,-5.961105304119253,-10.508528318006148,-12.138200572917258,21.330251443269862,0.372862815,-0.9515356500000001,0.153869235,10.9872,19.2276,39.675999999999995,67.0
1774823719.5692189,2.384185791015625e-05,2026-03-29T22:35:19.569,2026-03-29T18:35:19.569,-20508.075,-45289.305,-76419.94499999999,-48008.835,-8236.44,-15692.715,8636.985,-61298.189999999995,20.939855869326554,-7.544593217076511,-12.383684264669812,-16.93854234523644,-15.04285540847704,-13.478502800187925,-1.811317648493004,23.413170096151987,0.372862815,-0.9515356500000001,0.153869235,10.9872,19.2276,39.675999999999995,67.0
1774823719.5692303,1.1444091796875e-05,2026-03-29T22:35:19.569,2026-03-29T18:35:19.569,-20502.09,-45263.52,-76373.145,-47974.095,-8201.789999999999,-15663.599999999999,8590.005,-61316.1,7.138124369712834,-28.129522003545848,-34.50350828702217,-24.620195269676643,-17.440302993383508,-10.73259889238711,10.950729810278517,15.460998237914035,0.372862815,-0.9515356500000001,0.153869235,10.9872,19.2276,39.675999999999995,67.0
1774823719.5692434,1.3113021850585938e-05,2026-03-29T22:35:19.569,2026-03-29T18:35:19.569,-20465.684999999998,-45243.585,-76392.0,-47960.415,-8181.134999999999,-15659.82,8588.654999999999,-61301.835,-10.430896380981574,-38.499688378679465,-44.93470718937019,-22.62667934207736,-12.80185938883087,-4.012591051623656,19.54367699572516,1.0892126920616434,0.372862815,-0.9515356500000001,0.153869235,10.9872,19.2276,39.675999999999995,67.0
1774823719.5692537,1.0251998901367188e-05,2026-03-29T22:35:19.569,2026-03-29T18:35:19.569,-20548.079999999998,-45308.34,-76476.645,-47987.189999999995,-8174.79,-15648.3,8581.635,-61372.89,-23.25993220240367,-32.12656252318479,-36.93095624788371,-12.26034963488762,-3.6406509365556974,3.5262835748775716,18.877978940855968,-13.45829903459827,0.372862815,-0.9515356500000001,0.153869235,10.9872,19.2276,39.675999999999995,67.0
1774823719.5732367,0.003983020782470703,2026-03-29T22:35:19.573,2026-03-29T18:35:19.573,-20675.07,-45320.265,-76447.665,-47966.354999999996,-8143.155,-15618.96,8576.324999999999,-61515.314999999995,-25.00772906718383,-9.692048535781817,-11.143771270470209,2.1954016246794392,6.030658930018895,8.835389456781867,8.294437962881922,-22.047925609026574,0.34838778,-0.94677492,0.16088826,24.14132,22.87474,32.93108,67.0
1774823719.5732543,1.7642974853515625e-05,2026-03-29T22:35:19.573,2026-03-29T18:35:19.573,-20648.79,-45270.63,-76375.89,-47980.665,-8177.715,-15647.175,8567.685,-61488.18,-14.63880235641392,20.232281170791623,23.362164160263138,15.316227959716034,12.510010175092717,10.216624955452037,-7.65470078742427,-21.23799708435244,0.34838778,-0.94677492,0.16088826,24.14132,22.87474,32.93108,67.0
1774823719.5786788,0.00542449951171875,2026-03-29T22:35:19.578,2026-03-29T18:35:19.578,-20576.43,-45223.155,-76313.34,-47968.47,-8184.465,-15645.465,8549.73,-61403.22,2.98878455162725,44.327343920672135,52.01352238348265,22.551483765948596,13.820260541204263,7.775871437387982,-21.159534715981184,-11.61791642564928,0.34838778,-0.94677492,0.16088826,24.14132,22.87474,32.93108,67.0
1774823719.5787027,2.384185791015625e-05,2026-03-29T22:35:19.578,2026-03-29T18:35:19.578,-20579.895,-45219.195,-76271.22,-47875.77,-8098.29,-15569.324999999999,8539.875,-61432.155,19.413749431412953,50.41374610173999,60.79195039157402,21.67033857115485,10.18533444120769,3.0219593977653094,-25.009369038493386,2.5948660819558818,0.34838778,-0.94677492,0.16088826,24.14132,22.87474,32.93108,67.0
1774823719.5827432,0.00404047966003418,2026-03-29T22:35:19.582,2026-03-29T18:35:19.582,-20619.135,-45267.03,-76312.395,-47936.43,-8175.735,-15649.83,8492.355,-61454.97,26.654989063824793,33.50292389679835,42.98253613317837,13.25508028784538,3.535175874331047,-2.0369637297786323,-16.437010610148437,15.439244394138775,0.34838778,-0.94677492,0.16088826,24.14132,22.87474,32.93108,67.0
1774823719.582768,2.47955322265625e-05,2026-03-29T22:35:19.582,2026-03-29T18:35:19.582,-20657.655,-45356.67,-76447.845,-48033.63,-8242.515,-15704.01,8489.07,-61459.74,21.107689473372755,-0.9531511457637983,3.4025260201627736,0.2718165966824409,-3.5481577307841143,-5.773358670909904,1.0942478323546234,21.716534824930495,0.34838778,-0.94677492,0.16088826,24.14132,22.87474,32.93108,67.0
1774823719.5850601,0.002292156219482422,2026-03-29T22:35:19.585,2026-03-29T18:35:19.585,-20611.395,-45314.729999999996,-76407.93,-47946.6,-8143.065,-15610.32,8562.6,-61433.685,5.341171420059275,-38.52699018219071,-42.321535325631984,-12.974086609563953,-8.861644593478186,-7.395277515800362,19.250135278441235,19.0605586077528,0.34838778,-0.94677492,0.16088826,24.14132,22.87474,32.93108,67.0
1774823719.5850797,1.9550323486328125e-05,2026-03-29T22:35:19.585,2026-03-29T18:35:19.585,-20565.855,-45263.88,-76350.915,-47871.99,-8067.735,-15531.66,8742.824999999999,-61363.17,-13.101392279457572,-61.79274786760783,-73.76095568546113,-22.121516349146294,-11.159812890459975,-6.890554890673751,28.824269280167126,8.765168190975702,0.34838778,-0.94677492,0.16088826,24.14132,22.87474,32.93108,67.0
1774823719.590135,0.005055427551269531,2026-03-29T22:35:19.590,2026-03-29T18:35:19.590,-20577.329999999998,-45294.119999999995,-76377.375,-47888.955,-8082.0,-15537.734999999999,8825.22,-61331.579999999994,-25.33759752050538,-58.37573120342851,-74.75879005726988,-23.975694570703414,-10.192171117367298,-4.677344972496048,24.4443048237542,-4.881318068832471,0.34838778,-0.94677492,0.16088826,24.14132,22.87474,32.93108,67.0
1774823719.5901551,2.002716064453125e-05,2026-03-29T22:35:19.590,2026-03-29T18:35:19.590,-20601.63,-45326.52,-76408.605,-47930.895,-8130.78,-15589.755,8778.645,-61326.63,-25.452797347604264,-27.37233659676218,-41.56837035510132,-17.46301259444671,-6.421640215610127,-1.2934979728163924,7.566327082963812,-16.39884114776579,0.34838778,-0.94677492,0.16088826,24.14132,22.87474,32.93108,67.0
1774823719.593168,0.0030128955841064453,2026-03-29T22:35:19.593,2026-03-29T18:35:19.593,-20610.945,-45304.74,-76381.83,-47918.79,-8131.86,-15599.789999999999,8703.494999999999,-61348.229999999996,-13.377837345433651,19.129885594996882,13.980425104955284,-4.139572260983594,-0.7475421677667972,2.6634908515930333,-13.900560756591744,-21.288040746603023,0.32214273,-0.92931891,0.10436985,20.17372,4.76112,30.55052,67.0
1774823719.5931852,1.71661376953125e-05,2026-03-29T22:35:19.593,2026-03-29T18:35:19.593,-20593.44,-45300.104999999996,-76400.19,-47892.015,-8109.495,-15599.385,8648.955,-61352.729999999996,5.072244337362677,60.628438884170635,68.38150346171199,11.947651529140725,5.5852071129727605,6.390604451021877,-29.323859588801355,-17.72567582730821,0.32214273,-0.92931891,0.10436985,20.17372,4.76112,30.55052,67.0
1774823719.5975711,0.004385948181152344,2026-03-29T22:35:19.597,2026-03-29T18:35:19.597,-20596.32,-45329.4,-76448.06999999999,-47914.064999999995,-8128.889999999999,-15638.76,8610.57,-61349.265,21.021017284386645,77.22505791402659,96.3243399973767,25.21145766167911,10.97072548881909,8.78061865008667,-30.664710493120076,-7.179587984773182,0.32214273,-0.92931891,0.10436985,20.17372,4.76112,30.55052,67.0
1774823719.5975924,2.1219253540039062e-05,2026-03-29T22:35:19.597,2026-03-29T18:35:19.597,-20620.71,-45396.27,-76459.00499999999,-47952.765,-8167.455,-15679.08,8489.654999999999,-61378.784999999996,26.836118954975728,59.135183899758374,82.43605526203653,30.250790059975625,13.58145913588501,8.632869642457345,-16.703671606663217,6.223051198473696,0.32214273,-0.92931891,0.10436985,20.17372,4.76112,30.55052,67.0
1774823719.6037438,0.006151437759399414,2026-03-29T22:35:19.603,2026-03-29T18:35:19.603,-20623.905,-45381.465,-76398.97499999999,-47934.36,-8172.719999999999,-15657.615,8375.76,-61426.665,19.81394696335714,12.158022184357478,29.464218686660313,23.95523789636576,11.874263135907208,5.22305097322662,6.058240276028703,17.28735327056997,0.32214273,-0.92931891,0.10436985,20.17372,4.76112,30.55052,67.0
1774823719.6037796,3.5762786865234375e-05,2026-03-29T22:35:19.603,2026-03-29T18:35:19.603,-20610.405,-45358.244999999995,-76444.11,-47928.915,-8143.695,-15606.494999999999,8464.14,-61408.034999999996,3.4497088932140767,-43.8494616294883,-41.35682879782541,7.2233340074753025,5.401223528556853,-1.0257949689812682,26.427098385453736,21.700187002179636,0.32214273,-0.92931891,0.10436985,20.17372,4.76112,30.55052,67.0
1774823719.6119368,0.00815725326538086,2026-03-29T22:35:19.611,2026-03-29T18:35:19.611,-20598.975,-45288.0,-76457.385,-47952.9,-8152.65,-15637.14,8520.48,-61395.119999999995,-14.311173517574518,-83.31681203537202,-98.6632155513182,-14.59344758942656,-4.469164971563921,-8.22503860053218,34.06401761774028,17.642215379320564,0.32214273,-0.92931891,0.10436985,20.17372,4.76112,30.55052,67.0
1774823719.611966,2.9087066650390625e-05,2026-03-29T22:35:19.611,2026-03-29T18:35:19.611,-20637.225,-45226.979999999996,-76414.14,-47968.784999999996,-8210.205,-15729.21,8386.785,-61464.465,-24.9631858862114,-86.6483157683213,-114.84390744600593,-33.09567897791314,-14.467410345228648,-13.433180647613472,24.786366076079986,6.500742071184034,0.32214273,-0.92931891,0.10436985,20.17372,4.76112,30.55052,67.0
1774823719.6119916,2.574920654296875e-05,2026-03-29T22:35:19.611,2026-03-29T18:35:19.611,-20629.53,-45200.115,-76268.47499999999,-47897.189999999995,-8200.664999999999,-15746.085,8357.76,-61484.13,-23.554488427549725,-49.91094994446309,-79.31488054946524,-39.926096817155155,-20.33329944025342,-13.822223468735423,2.883343775848111,-7.574081668691373,0.32214273,-0.92931891,0.10436985,20.17372,4.76112,30.55052,67.0
1774823719.612002,1.0251998901367188e-05,2026-03-29T22:35:19.612,2026-03-29T18:35:19.612,-20518.785,-45053.1,-76007.43,-47719.89,-8066.79,-15603.435,8439.3,-61430.625,-11.016670616280548,12.25047000887111,-4.81717778838734,-30.49480618123633,-18.58199300036988,-8.154650097864774,-20.84164073758579,-19.14361934662892,0.32214273,-0.92931891,0.10436985,20.17372,4.76112,30.55052,67.0
1774823719.6120136,1.1682510375976562e-05,2026-03-29T22:35:19.612,2026-03-29T18:35:19.612,-20414.61,-44916.705,-75862.08,-47622.915,-7971.525,-15487.83,8590.41,-61312.454999999994,6.399129427490309,72.32820529193145,76.81591391219659,-6.705342218322184,-8.420664979155806,2.180587925840397,-34.42161831309437,-23.50329719826217,0.32800209,-0.9167457,0.10278294,3.79974,0.10682,28.62776,67.0
1774823719.6120229,9.298324584960938e-06,2026-03-29T22:35:19.612,2026-03-29T18:35:19.612,-20460.465,-44970.795,-75921.39,-47683.395,-8020.035,-15529.005,8508.779999999999,-61346.115,20.256287795720993,102.14043733329814,128.22373225673445,22.83459840388243,7.189647826826521,13.257727081218833,-30.810153513891823,-18.547487685142794,0.32800209,-0.9167457,0.10278294,3.79974,0.10682,28.62776,67.0
1774823719.6253045,0.013281583786010742,2026-03-29T22:35:19.625,2026-03-29T18:35:19.625,-20475.899999999998,-45130.905,-76182.20999999999,-47779.515,-8031.105,-15506.369999999999,8685.225,-61287.03,24.05928988418787,86.09313250346143,123.66479390662174,45.7066155272238,22.122195661370164,20.03846671375003,-11.585978134704158,-5.765623189366874,0.32800209,-0.9167457,0.10278294,3.79974,0.10682,28.62776,67.0
1774823719.625322,1.7642974853515625e-05,2026-03-29T22:35:19.625,2026-03-29T18:35:19.625,-20519.864999999998,-45299.07,-76434.165,-47889.314999999995,-8059.455,-15515.64,8800.65,-61240.454999999994,16.337510428258483,29.258485425148688,61.86027588355653,50.84409143913937,29.405924580557965,18.65291776535665,13.687218412493685,10.092541569354,0.32800209,-0.9167457,0.10278294,3.79974,0.10682,28.62776,67.0
1774823719.6253529,3.075599670410156e-05,2026-03-29T22:35:19.625,2026-03-29T18:35:19.625,-20595.015,-45425.97,-76548.015,-47993.354999999996,-8123.535,-15563.609999999999,8899.605,-61226.82,1.204271515960983,-43.88524417803047,-31.855395367697085,33.853816144638046,24.449517845429394,8.509226406303748,32.21472492565314,22.685631006091796,0.32800209,-0.9167457,0.10278294,3.79974,0.10682,28.62776,67.0
1774823719.6253612,8.344650268554688e-06,2026-03-29T22:35:19.625,2026-03-29T18:35:19.625,-20671.155,-45492.21,-76606.83,-48057.615,-8192.789999999999,-15638.039999999999,8862.57,-61266.195,-13.816970676750229,-99.98083349500814,-115.80051783285958,-0.048046333245266463,7.690918815723505,-6.8850093024347485,34.47581935202467,26.55492894571563,0.32800209,-0.9167457,0.10278294,3.79974,0.10682,28.62776,67.0
1774823719.6302764,0.0049152374267578125,2026-03-29T22:35:19.630,2026-03-29T18:35:19.630,-20655.315,-45445.59,-76554.27,-47989.665,-8166.0599999999995,-15646.005,8783.01,-61274.43,-21.55808962841823,-112.0758859076835,-150.54329797027955,-37.25525193498373,-14.781467065785701,-21.01566854767408,19.1601171060563,19.475028251079205,0.32800209,-0.9167457,0.10278294,3.79974,0.10682,28.62776,67.0
1774823719.6302936,1.71661376953125e-05,2026-03-29T22:35:19.630,2026-03-29T18:35:19.630,-20660.625,-45459.63,-76571.73,-47964.33,-8157.554999999999,-15654.51,8744.445,-61272.314999999995,-18.66863148334189,-72.63369377287165,-117.51577186340121,-61.13187484697572,-33.29408357840779,-27.103240123222562,-6.041690348652282,3.678052740476121,0.32800209,-0.9167457,0.10278294,3.79974,0.10682,28.62776,67.0
1774823719.630308,1.430511474609375e-05,2026-03-29T22:35:19.630,2026-03-29T18:35:19.630,-20678.625,-45478.034999999996,-76600.75499999999,-48015.405,-8220.105,-15704.55,8698.05,-61282.17,-7.084324375007504,2.0352975946957006,-28.820710847524396,-59.46414398498213,-38.72902098004037,-21.347409198329203,-28.274603029671674,-14.70287861053198,0.32800209,-0.9167457,0.10278294,3.79974,0.10682,28.62776,67.0
1774823719.6303148,6.9141387939453125e-06,2026-03-29T22:35:19.630,2026-03-29T18:35:19.630,-20672.64,-45477.63,-76600.75499999999,-47977.515,-8183.655,-15666.705,8658.945,-61283.564999999995,7.151209696174318,78.4373347756724,76.90439175863222,-30.663643520839265,-26.98228722363893,-5.124854346131975,-36.0782153978912,-27.934073676348056,0.32800209,-0.9167457,0.10278294,3.79974,0.10682,28.62776,67.0
1774823719.633381,0.0030660629272460938,2026-03-29T22:35:19.633,2026-03-29T18:35:19.633,-20658.465,-45434.52,-76610.565,-47891.115,-8076.375,-15597.945,8609.805,-61295.939999999995,17.031659941441426,120.98376018429663,151.34143543886032,14.412990296796984,-1.5720264112543711,15.075645115147575,-25.31825591881686,-29.910910472702074,0.341246685,-0.9578222550000001,0.12951627,-10.01056,3.0977799999999998,34.273959999999995,67.0
1774823719.633391,1.0013580322265625e-05,2026-03-29T22:35:19.633,2026-03-29T18:35:19.633,-20623.635,-45346.725,-76452.93,-47794.229999999996,-8014.23,-15586.064999999999,8570.654999999999,-61288.155,18.06671993892247,108.68443329080596,158.71415772277604,56.37898082847892,27.131543022631647,30.20853572788139,-1.4099057735564131,-18.98317370201607,0.341246685,-0.9578222550000001,0.12951627,-10.01056,3.0977799999999998,34.273959999999995,67.0
1774823719.6372728,0.0038819313049316406,2026-03-29T22:35:19.637,2026-03-29T18:35:19.637,-20583.36,-45297.585,-76293.18,-47773.845,-8032.365,-15589.8,8541.63,-61266.869999999995,10.35416868273188,45.566741729476085,93.10153014074176,75.66545224497678,46.0885597395712,32.73381992049145,23.374129246458114,0.93499822921707,0.341246685,-0.9578222550000001,0.12951627,-10.01056,3.0977799999999998,34.273959999999995,67.0
1774823719.637296,2.3126602172851562e-05,2026-03-29T22:35:19.637,2026-03-29T18:35:19.637,-20568.329999999998,-45351.854999999996,-76392.94499999999,-47818.485,-8075.79,-15621.57,8552.88,-61245.225,-1.7254630667229127,-40.37941463994491,-17.587624407857913,61.7101294961186,45.52772610315172,20.357085042182543,36.18502375091857,21.649572115897072,0.341246685,-0.9578222550000001,0.12951627,-10.01056,3.0977799999999998,34.273959999999995,67.0
1774823719.6416037,0.004307746887207031,2026-03-29T22:35:19.641,2026-03-29T18:35:19.641,-20581.92,-45465.57,-76655.06999999999,-47775.284999999996,-8014.455,-15587.46,8555.535,-61261.829999999994,-11.931456538793533,-109.64333223610114,-123.43461168333751,18.644308928921745,23.930844774877862,-2.4022900702380094,30.258255951111494,34.0182979777079,0.341246685,-0.9578222550000001,0.12951627,-10.01056,3.0977799999999998,34.273959999999995,67.0
1774823719.6417072,0.00010347366333007812,2026-03-29T22:35:19.641,2026-03-29T18:35:19.641,-20602.62,-45524.655,-76816.8,-47870.729999999996,-8044.514999999999,-15594.93,8578.17,-61262.369999999995,-15.386904738723903,-129.48570233610116,-175.15910889820327,-35.5502547476944,-10.460784032489087,-25.771784517375387,8.498252280218294,31.998949259492818,0.341246685,-0.9578222550000001,0.12951627,-10.01056,3.0977799999999998,34.273959999999995,67.0
1774823719.6607535,0.019046306610107422,2026-03-29T22:35:19.660,2026-03-29T18:35:19.660,-20570.895,-45300.24,-76442.265,-48019.68,-8182.304999999999,-15632.685,8635.23,-61249.814999999995,-10.93837682080184,-89.55821234404647,-147.26650400373998,-76.52791994801191,-42.68550095314998,-38.92973818082202,-17.917750560950275,15.61694697964289,0.341246685,-0.9578222550000001,0.12951627,-10.01056,3.0977799999999998,34.273959999999995,67.0
1774823719.6607687,1.52587890625e-05,2026-03-29T22:35:19.660,2026-03-29T18:35:19.660,-20552.805,-45060.57,-76161.375,-48028.994999999995,-8210.115,-15622.83,8643.779999999999,-61276.005,-1.4964523032061938,-7.334529119852113,-50.73323873732719,-84.61195752455521,-57.58863356877894,-35.04209210428489,-35.25706555106102,-8.612193060563449,0.341246685,-0.9578222550000001,0.12951627,-10.01056,3.0977799999999998,34.273959999999995,67.0
1774823719.660782,1.33514404296875e-05,2026-03-29T22:35:19.660,2026-03-29T18:35:19.660,-20542.905,-45111.465,-76277.295,-48049.515,-8221.77,-15641.685,8592.3,-61275.465,7.715624045264135,79.5112298193588,71.13405386384193,-54.33237619104202,-46.984646584546,-14.776070907703405,-34.352243735318794,-30.211717258270316,0.341246685,-0.9578222550000001,0.12951627,-10.01056,3.0977799999999998,34.273959999999995,67.0
1774823719.660787,5.0067901611328125e-06,2026-03-29T22:35:19.660,2026-03-29T18:35:19.660,-20527.29,-45177.255,-76330.98,-48058.92,-8284.545,-15731.82,8407.529999999999,-61287.39,11.999803545876729,130.4745022470206,162.21698992072868,2.1954198150911473,-14.053039373047225,13.503255359040066,-15.436627376344392,-39.279993501362874,0.341246685,-0.9578222550000001,0.12951627,-10.01056,3.0977799999999998,34.273959999999995,67.0
1774823719.660792,5.0067901611328125e-06,2026-03-29T22:35:19.660,2026-03-29T18:35:19.660,-20491.02,-45169.29,-76282.245,-47929.005,-8231.355,-15747.164999999999,8425.035,-61231.409999999996,9.584494721667777,121.28492885428095,179.6521424120492,60.038782150999246,27.35834385101731,37.17420142864141,11.853521734643492,-31.069858938800877,0.344298435,-0.99950916,0.15521200500000001,45.520579999999995,23.85138,48.74044,67.0
1774823719.6607957,3.5762786865234375e-06,2026-03-29T22:35:19.660,2026-03-29T18:35:19.660,-20467.035,-45197.64,-76315.59,-47795.445,-8125.965,-15711.345,8589.285,-61155.405,2.358939282357786,55.61481992137889,114.24002396645523,92.53793731486516,58.555038788555066,45.030066580928455,33.375366675337794,-8.475327597971088,0.344298435,-0.99950916,0.15521200500000001,45.520579999999995,23.85138,48.74044,67.0
1774823719.6608002,4.5299530029296875e-06,2026-03-29T22:35:19.660,2026-03-29T18:35:19.660,-20544.75,-45282.195,-76406.94,-47860.064999999995,-8179.38,-15744.599999999999,8647.47,-61181.145,-5.3647707805399065,-36.28491488693935,-4.628251596425044,83.74587726673413,64.50013285674825,32.61576101646436,37.78917883997649,18.877327190746147,0.344298435,-0.99950916,0.15521200500000001,45.520579999999995,23.85138,48.74044,67.0
1774823719.6608036,3.337860107421875e-06,2026-03-29T22:35:19.660,2026-03-29T18:35:19.660,-20525.895,-45353.07,-76486.00499999999,-47948.13,-8236.664999999999,-15768.945,8521.605,-61159.005,-9.314865974963219,-111.58153850209126,-122.19220783899436,36.343867689135905,41.10343316558731,4.673731290704551,22.50727067981112,38.72170379982754,0.344298435,-0.99950916,0.15521200500000001,45.520579999999995,23.85138,48.74044,67.0
1774823719.660808,4.5299530029296875e-06,2026-03-29T22:35:19.660,2026-03-29T18:35:19.660,-20519.73,-45527.04,-76617.675,-47935.619999999995,-8155.3949999999995,-15681.869999999999,8536.77,-61099.515,-7.578839471394231,-134.98886079642915,-183.74552253132313,-28.938246742037357,-2.2577710267246553,-26.616378375052868,-4.831956679592217,41.694764900404394,0.344298435,-0.99950916,0.15521200500000001,45.520579999999995,23.85138,48.74044,67.0
1774823719.6608117,3.5762786865234375e-06,2026-03-29T22:35:19.660,2026-03-29T18:35:19.660,-20645.28,-45803.475,-76856.58,-47895.884999999995,-8096.535,-15650.01,8376.75,-61220.655,-1.534394730062548,-95.49399296772,-160.3730034495276,-82.45314965998658,-46.45388448360472,-46.98162225960118,-30.189842745126356,25.807945833362375,0.344298435,-0.99950916,0.15521200500000001,45.520579999999995,23.85138,48.74044,67.0
1774823719.6694865,0.008674860000610352,2026-03-29T22:35:19.669,2026-03-29T18:35:19.669,-20635.065,-45805.32,-77016.015,-47847.509999999995,-8073.855,-15652.755,8320.14,-61261.244999999995,5.0637962595087185,-11.665769492939413,-62.76546049391411,-99.27055146420268,-71.1094281143369,-46.62369427066163,-40.332327446350526,-2.3127736445737446,0.344298435,-0.99950916,0.15521200500000001,45.520579999999995,23.85138,48.74044,67.0
1774823719.6695106,2.4080276489257812e-05,2026-03-29T22:35:19.669,2026-03-29T18:35:19.669,-20495.43,-45527.939999999995,-76878.72,-47958.119999999995,-8195.355,-15748.064999999999,8395.785,-61158.329999999994,8.284781738137669,77.0726292599771,63.595026288445695,-70.96707031040258,-64.08863413394118,-24.962517527037924,-29.714098825194487,-30.158835831759912,0.344298435,-0.99950916,0.15521200500000001,45.520579999999995,23.85138,48.74044,67.0
1774823719.6695385,2.7894973754882812e-05,2026-03-29T22:35:19.669,2026-03-29T18:35:19.669,-20401.515,-45192.015,-76630.77,-48227.49,-8413.154999999999,-15854.939999999999,8450.145,-61121.52,6.263346507482368,129.10756858197155,159.75278542990816,-9.91422635936953,-27.50191847579358,8.755223671445707,-3.4658801590716077,-44.93609798550297,0.344298435,-0.99950916,0.15521200500000001,45.520579999999995,23.85138,48.74044,67.0
1774823719.6695447,6.198883056640625e-06,2026-03-29T22:35:19.669,2026-03-29T18:35:19.669,-20560.59,-45101.744999999995,-76379.04,-48121.515,-8188.92,-15608.34,8603.91,-61291.799999999996,0.23799393810625785,120.34246281860496,181.0533088605426,56.14964532833173,22.75639351836472,39.42320801543002,25.109928197954197,-39.50863707686819,0.344298435,-0.99950916,0.15521200500000001,45.520579999999995,23.85138,48.74044,67.0
1774823719.6733882,0.003843545913696289,2026-03-29T22:35:19.673,2026-03-29T18:35:19.673,-20627.055,-45072.674999999996,-76024.845,-47847.284999999996,-8006.8949999999995,-15452.46,8825.805,-61276.77,-6.1795320221726655,55.52582754161538,118.16727906684565,96.87715789120473,63.96357362274727,52.908708078913854,41.30173448527914,-15.898712320594782,0.32922279,-0.997617075,0.131164215,76.5289,19.04448,40.50004,67.0
1774823719.673415,2.6702880859375e-05,2026-03-29T22:35:19.673,2026-03-29T18:35:19.673,-20439.989999999998,-45133.38,-76117.05,-47691.9,-8022.24,-15527.789999999999,8833.86,-61025.939999999995,-9.08386510344164,-34.20558358476573,1.3312260196805548,93.46111957456567,76.95181507470916,42.63148169041991,36.56005170510868,15.396828074801554,0.32922279,-0.997617075,0.131164215,76.5289,19.04448,40.50004,67.0
1774823719.689568,0.01615309715270996,2026-03-29T22:35:19.689,2026-03-29T18:35:19.689,-20406.825,-45367.515,-76509.18,-47696.58,-8082.99,-15670.17,8674.065,-60939.765,-6.537536864199107,-106.33908844528258,-114.20220126565852,47.481105144542866,55.12410972621479,12.795195482405974,12.978088041261685,40.08794058976717,0.32922279,-0.997617075,0.131164215,76.5289,19.04448,40.50004,67.0
1774823719.6895883,2.0265579223632812e-05,2026-03-29T22:35:19.689,2026-03-29T18:35:19.689,-20427.704999999998,-45572.4,-76839.97499999999,-47966.67,-8214.48,-15763.23,8553.51,-60881.625,0.2567947682653852,-127.28795485585003,-174.49652223620504,-19.79058168544504,7.815312049159509,-23.32602801711207,-17.656477722673056,46.677413918625334,0.32922279,-0.997617075,0.131164215,76.5289,19.04448,40.50004,67.0
1774823719.6896067,1.8358230590820312e-05,2026-03-29T22:35:19.689,2026-03-29T18:35:19.689,-20534.579999999998,-45725.04,-77080.23,-48118.77,-8240.895,-15736.275,8573.445,-60924.24,7.547464619484131,-88.21107438737883,-152.40194138574734,-77.3389658985789,-43.7205216407695,-49.35267211397803,-39.79765623935972,31.888706182309857,0.32922279,-0.997617075,0.131164215,76.5289,19.04448,40.50004,67.0
1774823719.6896143,7.62939453125e-06,2026-03-29T22:35:19.689,2026-03-29T18:35:19.689,-20807.73,-45565.38,-76698.27,-48031.064999999995,-8162.775,-15600.33,8651.295,-61273.215,11.088812372290763,-8.812967311086812,-59.99938759884733,-98.90938755173522,-75.96412698738065,-53.30931841818486,-42.05559487496603,2.3398841782504065,0.32922279,-0.997617075,0.131164215,76.5289,19.04448,40.50004,67.0
1774823719.6896229,8.58306884765625e-06,2026-03-29T22:35:19.689,2026-03-29T18:35:19.689,-20718.405,-45251.729999999996,-76299.20999999999,-48057.39,-8200.44,-15576.39,8750.115,-61267.229999999996,8.54192627590046,72.54637266379733,57.792463745802685,-75.186896852195,-73.9930484134728,-33.19799961717918,-23.046293670498837,-28.4087716439438,0.32922279,-0.997617075,0.131164215,76.5289,19.04448,40.50004,67.0
1774823719.6896296,6.67572021484375e-06,2026-03-29T22:35:19.689,2026-03-29T18:35:19.689,-20550.96,-45229.365,-76289.715,-47915.28,-8151.389999999999,-15600.375,8739.81,-61116.119999999995,0.8892681657036579,117.48091899416953,145.13831543665464,-17.90660111531828,-38.47543812091746,1.9880323019779502,7.827067786321294,-46.12164494128917,0.32922279,-0.997617075,0.131164215,76.5289,19.04448,40.50004,67.0
1774823719.6904275,0.0007979869842529297,2026-03-29T22:35:19.690,2026-03-29T18:35:19.690,-20695.86,-45485.505,-76284.72,-47546.909999999996,-7968.24,-15528.869999999999,8710.56,-61216.244999999995,-7.952951246855303,105.85033396707794,161.9926582344702,45.96395968930881,14.52342713665081,36.32771608739869,35.08199931277091,-42.552928114002086,0.32922279,-0.997617075,0.131164215,76.5289,19.04448,40.50004,67.0
1774823719.6904392,1.1682510375976562e-05,2026-03-29T22:35:19.690,2026-03-29T18:35:19.690,-20846.34,-45828.27,-76602.825,-47474.145,-7910.955,-15518.295,8647.11,-61257.24,-13.167184095797484,44.89845078502928,102.70267698734179,87.07914196457406,60.88929337033339,54.25841733092355,44.97183119742992,-19.35563423850091,0.32922279,-0.997617075,0.131164215,76.5289,19.04448,40.50004,67.0
1774823719.6964068,0.005967617034912109,2026-03-29T22:35:19.696,2026-03-29T18:35:19.696,-20899.98,-46020.555,-76997.87999999999,-47669.58,-7970.8949999999995,-15573.42,8595.09,-61227.945,-11.646818272160658,-34.94261097909427,-2.251353563120496,87.40566066052752,79.56363802216717,47.712996556354184,32.439629107937265,12.649924329750792,0.27819753,-0.920224695,0.06652815,35.723659999999995,-22.14226,44.4066,67.0
1774823719.6964295,2.2649765014648438e-05,2026-03-29T22:35:19.696,2026-03-29T18:35:19.696,-20853.225,-45894.645,-77112.54,-47819.655,-7982.19,-15586.064999999999,8574.3,-61179.345,-3.7773769527089867,-95.25112736315305,-101.82671596688766,48.26453057664371,62.22969198475684,19.795660257126627,3.682161395634263,38.54043874713817,0.27819753,-0.920224695,0.06652815,35.723659999999995,-22.14226,44.4066,67.0
1774823719.7002435,0.0038139820098876953,2026-03-29T22:35:19.700,2026-03-29T18:35:19.700,-20660.489999999998,-45466.064999999995,-76840.965,-48098.88,-8186.355,-15727.545,8536.32,-61122.329999999994,6.610618675075767,-108.2154965614739,-149.3752145929464,-10.926724202138848,17.06772032520884,-16.700487863323364,-26.96861541148019,46.30788800193944,0.27819753,-0.920224695,0.06652815,35.723659999999995,-22.14226,44.4066,67.0
1774823719.7002563,1.2874603271484375e-05,2026-03-29T22:35:19.700,2026-03-29T18:35:19.700,-20592.63,-45412.604999999996,-76763.83499999999,-48312.27,-8316.18,-15748.695,8540.46,-61119.09,14.150838080212349,-69.57419866582812,-124.71455333996963,-62.33994834796511,-35.14086549016247,-45.22227065803143,-44.25386302017893,32.50349735578647,0.27819753,-0.920224695,0.06652815,35.723659999999995,-22.14226,44.4066,67.0
1774823719.704255,0.003998756408691406,2026-03-29T22:35:19.704,2026-03-29T18:35:19.704,-20602.89,-45523.305,-76735.98,-48071.564999999995,-8141.174999999999,-15610.32,8616.285,-61111.979999999996,14.74268267960877,0.18081666062264815,-42.76528142193154,-82.99159615187138,-70.68926089284041,-53.05413730229924,-39.63144033620233,3.82073187349674,0.27819753,-0.920224695,0.06652815,35.723659999999995,-22.14226,44.4066,67.0
1774823719.7042763,2.1219253540039062e-05,2026-03-29T22:35:19.704,2026-03-29T18:35:19.704,-20515.14,-45350.369999999995,-76306.995,-47731.185,-8094.195,-15629.445,8635.095,-61018.515,7.771716757376216,66.54869585410216,54.97917897247706,-65.17273657487716,-73.84386035558106,-37.05629491133096,-15.504237322711441,-26.133424647218053,0.27819753,-0.920224695,0.06652815,35.723659999999995,-22.14226,44.4066,67.0
1774823719.706962,0.0026857852935791016,2026-03-29T22:35:19.706,2026-03-29T18:35:19.706,-20498.94,-45196.47,-76278.555,-47870.82,-8134.065,-15623.595,8653.635,-61012.619999999995,-3.4492376224083983,98.11828341446959,121.4335732943084,-19.246217447539507,-43.89312600281472,-4.921404768068024,16.063523751714406,-43.32685135331373,0.27819753,-0.920224695,0.06652815,35.723659999999995,-22.14226,44.4066,67.0
1774823719.706993,3.0994415283203125e-05,2026-03-29T22:35:19.706,2026-03-29T18:35:19.706,-20553.66,-45087.84,-76361.31,-48127.95,-8196.345,-15597.359999999999,8686.935,-61073.64,-13.296341686651532,81.52189411523909,126.74159817677317,32.158080017150745,4.851541622482134,28.552319553834003,39.44336996352619,-39.93988778102621,0.27819753,-0.920224695,0.06652815,35.723659999999995,-22.14226,44.4066,67.0
1774823719.711222,0.004228830337524414,2026-03-29T22:35:19.711,2026-03-29T18:35:19.711,-20570.94,-45057.195,-76199.44499999999,-47916.765,-8148.195,-15619.68,8654.445,-61129.439999999995,-16.701746845603733,27.080211957997648,71.80399936068964,65.37155844863406,49.95675917310078,48.35369911643565,43.24373825291877,-17.98249613898652,0.27819753,-0.920224695,0.06652815,35.723659999999995,-22.14226,44.4066,67.0
1774823719.7112353,1.33514404296875e-05,2026-03-29T22:35:19.711,2026-03-29T18:35:19.711,-20522.52,-45150.84,-76230.09,-47703.104999999996,-8124.165,-15629.58,8630.369999999999,-61074.0,-11.790276511363064,-37.23569213369143,-13.672061055651305,66.72880226437687,71.31355808703904,46.07113981818943,25.89307063557195,11.8103950850784,0.27819753,-0.920224695,0.06652815,35.723659999999995,-22.14226,44.4066,67.0
1774823719.7146,0.0033648014068603516,2026-03-29T22:35:19.714,2026-03-29T18:35:19.714,-20478.78,-45325.979999999996,-76397.48999999999,-47824.92,-8104.545,-15616.71,8624.025,-60984.494999999995,-0.9030978774416025,-80.11671714305174,-86.98548607523618,38.20365725543891,60.208320539038404,23.49607285385197,-3.74576094140383,35.22523173938227,0.33581457,-0.844785435,0.145568475,-60.7348,-10.956679999999999,47.09236,67.0
1774823719.7146084,8.344650268554688e-06,2026-03-29T22:35:19.714,2026-03-29T18:35:19.714,-20397.78,-45472.77,-76526.145,-47855.43,-8075.88,-15697.305,8560.125,-60885.405,10.546569055987057,-82.19306034404953,-113.78298176558935,-4.689980023240181,22.876934606563935,-8.540700298781433,-30.9473923532311,41.39183593008599,0.33581457,-0.844785435,0.145568475,-60.7348,-10.956679999999999,47.09236,67.0
1774823719.717691,0.0030825138092041016,2026-03-29T22:35:19.717,2026-03-29T18:35:19.717,-20491.29,-45571.455,-76647.645,-47881.485,-8147.655,-15777.72,8511.255,-60938.82,16.81361916495289,-44.798089966735816,-84.24565156940336,-41.20774342653606,-22.905696049560273,-35.40621996656773,-42.50519374858138,27.8862668766127,0.33581457,-0.844785435,0.145568475,-60.7348,-10.956679999999999,47.09236,67.0
1774823719.7177072,1.621246337890625e-05,2026-03-29T22:35:19.717,2026-03-29T18:35:19.717,-20626.515,-45336.509999999995,-76418.50499999999,-47857.005,-8267.625,-15832.98,8527.994999999999,-61098.884999999995,14.749577963494971,11.753707558618991,-16.447306111735443,-55.485590902255126,-56.36685488819842,-45.425088179438156,-33.19370606839803,1.6923297764986784,0.33581457,-0.844785435,0.145568475,-60.7348,-10.956679999999999,47.09236,67.0
1774823719.7216272,0.003920078277587891,2026-03-29T22:35:19.721,2026-03-29T18:35:19.721,-20555.864999999998,-45133.2,-76302.765,-48133.575,-8518.14,-15910.965,8587.935,-61052.805,5.408009918327588,59.03708549834433,54.116267373673374,-43.485023686613,-63.267473816943145,-35.0042743434532,-8.12842934358768,-24.365480627401485,0.33581457,-0.844785435,0.145568475,-60.7348,-10.956679999999999,47.09236,67.0
1774823719.7216485,2.1219253540039062e-05,2026-03-29T22:35:19.721,2026-03-29T18:35:19.721,-20567.745,-45262.259999999995,-76276.305,-48205.125,-8416.619999999999,-15748.244999999999,8670.195,-61034.715,-6.500839845427839,74.7747098360307,92.95515760314657,-13.707273227205093,-42.00090996098685,-9.849941710800655,20.038852929186437,-37.91016845741155,0.33581457,-0.844785435,0.145568475,-60.7348,-10.956679999999999,47.09236,67.0
1774823719.73307,0.011421442031860352,2026-03-29T22:35:19.733,2026-03-29T18:35:19.733,-20681.64,-45717.615,-76607.325,-47934.405,-8104.86,-15543.494999999999,8670.06,-61063.784999999996,-15.019799605890114,53.33503140232304,83.45184611434219,18.123094415234313,-3.629069759853003,18.093220781956557,37.55444067158322,-32.93068288187786,0.33581457,-0.844785435,0.145568475,-60.7348,-10.956679999999999,47.09236,67.0
1774823719.733091,2.1219253540039062e-05,2026-03-29T22:35:19.733,2026-03-29T18:35:19.733,-20748.915,-45896.22,-76870.08,-47684.97,-7975.304999999999,-15510.51,8645.985,-61072.695,-15.970856953151856,7.5183215750951655,33.90472871378762,37.28140557917624,33.83889249117367,36.36060853211928,36.33390210372729,-12.480391915118819,0.33581457,-0.844785435,0.145568475,-60.7348,-10.956679999999999,47.09236,67.0
1774823719.7331114,2.0265579223632812e-05,2026-03-29T22:35:19.733,2026-03-29T18:35:19.733,-20715.12,-45696.825,-76779.54,-47851.92,-7991.46,-15502.59,8642.205,-61074.314999999995,-9.040824981636508,-38.78401979479565,-28.199279336428948,36.89687356404733,53.975732637874316,37.584951179489124,17.713114892829868,13.071287594520296,0.33581457,-0.844785435,0.145568475,-60.7348,-10.956679999999999,47.09236,67.0
1774823719.7331183,6.9141387939453125e-06,2026-03-29T22:35:19.733,2026-03-29T18:35:19.733,-20710.079999999998,-45437.58,-76581.405,-48117.195,-8094.42,-15579.449999999999,8605.845,-61101.18,2.129674997602929,-62.95268328882779,-71.10527190535961,20.226090900241296,49.197622411318534,22.45452011387118,-8.567713200612307,31.272052715395866,0.33581457,-0.844785435,0.145568475,-60.7348,-10.956679999999999,47.09236,67.0
1774823719.7331269,8.58306884765625e-06,2026-03-29T22:35:19.733,2026-03-29T18:35:19.733,-20596.905,-45209.34,-76311.58499999999,-48117.509999999995,-8204.895,-15666.3,8613.225,-61044.479999999996,11.868490432706416,-54.65970725797863,-74.91881868274238,-2.285685289277683,23.52098393194361,-1.167095482836794,-29.46863889107731,33.66987190841721,0.375548355,-0.89379654,0.19470165,-91.43791999999999,6.104,62.19976,67.0
1774823719.7331333,6.4373016357421875e-06,2026-03-29T22:35:19.733,2026-03-29T18:35:19.733,-20485.305,-45039.645,-76126.14,-48010.32,-8268.93,-15683.085,8624.295,-60986.7,15.385080293715516,-20.184176052114022,-40.78389642385768,-19.1146523236845,-10.128368745726165,-22.295703270063928,-35.163802447977034,19.764203756589826,0.375548355,-0.89379654,0.19470165,-91.43791999999999,6.104,62.19976,67.0
1774823719.7377918,0.00465846061706543,2026-03-29T22:35:19.737,2026-03-29T18:35:19.737,-20409.704999999998,-45051.255,-76135.455,-47963.205,-8274.914999999999,-15672.555,8641.574999999999,-60936.884999999995,11.163579599090353,21.723404814383617,11.103462066346726,-23.50191980826772,-36.41650252908207,-31.975326380465145,-23.69247260756155,-3.035966208347353,0.375548355,-0.89379654,0.19470165,-91.43791999999999,6.104,62.19976,67.0
1774823719.7378137,2.193450927734375e-05,2026-03-29T22:35:19.737,2026-03-29T18:35:19.737,-20424.105,-45148.095,-76235.22,-48009.33,-8275.545,-15662.115,8670.914999999999,-60912.54,1.6246043183230723,49.889262718676065,52.989972995830165,-16.08427627118911,-44.64171368203606,-27.08864993685439,-1.5338886953550568,-23.303681747613155,0.375548355,-0.89379654,0.19470165,-91.43791999999999,6.104,62.19976,67.0
1774823719.7489536,0.011139869689941406,2026-03-29T22:35:19.748,2026-03-29T18:35:19.748,-20444.535,-45133.695,-76208.22,-47929.005,-8296.289999999999,-15778.935,8637.975,-60920.549999999996,-8.235788210220502,51.347062900944785,64.18539905429024,-3.338767559412909,-33.056974307585314,-11.202516328342206,19.991441380139815,-31.310091013268664,0.375548355,-0.89379654,0.19470165,-91.43791999999999,6.104,62.19976,67.0
1774823719.7489712,1.7642974853515625e-05,2026-03-29T22:35:19.748,2026-03-29T18:35:19.748,-20476.395,-45116.82,-76276.485,-47950.47,-8362.305,-15882.615,8613.945,-60936.479999999996,-13.47282881503439,27.237549558611462,41.185174708812845,6.831157340760358,-8.75000873053937,7.67596552352495,30.517912333570436,-23.70594063415991,0.375548355,-0.89379654,0.19470165,-91.43791999999999,6.104,62.19976,67.0
1774823719.7490013,3.0040740966796875e-05,2026-03-29T22:35:19.749,2026-03-29T18:35:19.749,-20462.625,-45121.95,-76350.87,-48184.92,-8358.345,-15787.935,8629.83,-60908.04,-11.698382991057247,-8.67241329233684,-1.6206128918155986,9.652236126254754,16.436060387889388,21.119089053896307,25.655534701053597,-4.907198813120687,0.375548355,-0.89379654,0.19470165,-91.43791999999999,6.104,62.19976,67.0
1774823719.7490091,7.867813110351562e-06,2026-03-29T22:35:19.749,2026-03-29T18:35:19.749,-20423.475,-45172.485,-76387.095,-48247.244999999995,-8231.895,-15603.974999999999,8645.22,-60849.585,-4.183699202891251,-37.66551524710152,-40.48755847269365,5.660159609828345,31.67565609830441,24.060466593104692,8.792524139058413,15.381074976981418,0.375548355,-0.89379654,0.19470165,-91.43791999999999,6.104,62.19976,67.0
1774823719.749018,8.821487426757812e-06,2026-03-29T22:35:19.749,2026-03-29T18:35:19.749,-20370.735,-45188.28,-76318.155,-48121.29,-8231.67,-15603.705,8608.455,-60795.63,4.955102968573272,-45.73548117001363,-55.202739351277465,-0.46585269209982094,31.80948105096968,16.633513129815555,-11.04043104382448,27.145545131205672,0.375548355,-0.89379654,0.19470165,-91.43791999999999,6.104,62.19976,67.0
1774823719.749025,7.152557373046875e-06,2026-03-29T22:35:19.749,2026-03-29T18:35:19.749,-20405.43,-45221.174999999996,-76261.41,-47953.215,-8234.595,-15687.449999999999,8569.08,-60826.14,10.994581887650016,-30.2832063528373,-39.427208687223114,-3.4105365088143786,18.877413699911898,3.4416225919985273,-23.967753607889343,25.00236272166281,0.375548355,-0.89379654,0.19470165,-91.43791999999999,6.104,62.19976,67.0
1774823719.7553272,0.0063021183013916016,2026-03-29T22:35:19.755,2026-03-29T18:35:19.755,-20550.239999999998,-45268.02,-76235.715,-47823.39,-8128.349999999999,-15617.025,8597.52,-60960.375,11.052419548733338,-0.6777732321417811,-3.265776706872862,-0.8015611558896824,0.21974686480423747,-9.097719032888925,-24.1943298730697,10.654712477005715,0.34960848,-0.950864265,0.18945264,-89.08788,16.358719999999998,66.57938,67.0
1774823719.7553449,1.7642974853515625e-05,2026-03-29T22:35:19.755,2026-03-29T18:35:19.755,-20568.329999999998,-45289.439999999995,-76265.37,-47752.92,-8070.525,-15578.144999999999,8627.22,-60971.31,5.472716184479699,27.220654253676166,32.88567719138398,5.3106380630924646,-15.532031273721408,-15.864263249093884,-12.599929849401734,-8.25073459860708,0.34960848,-0.950864265,0.18945264,-89.08788,16.358719999999998,66.57938,67.0
1774823719.7577662,0.0024213790893554688,2026-03-29T22:35:19.757,2026-03-29T18:35:19.757,-20537.235,-45319.545,-76370.94,-47803.095,-8099.82,-15602.085,8614.26,-60938.055,-2.5219962852410376,39.4535127334499,49.59275495689009,9.89775530899928,-22.437267402742638,-15.096484789727327,4.15285097864461,-22.161390531967527,0.34960848,-0.950864265,0.18945264,-89.08788,16.358719999999998,66.57938,67.0
1774823719.7577753,9.059906005859375e-06,2026-03-29T22:35:19.757,2026-03-29T18:35:19.757,-20580.48,-45320.445,-76398.97499999999,-47835.72,-8076.915,-15570.72,8674.38,-60973.38,-8.652151738354641,30.872603303199174,38.62358513737276,8.372490062507008,-19.36878014646694,-8.590689282009198,17.33997572070797,-24.43186811656613,0.34960848,-0.950864265,0.18945264,-89.08788,16.358719999999998,66.57938,67.0
1774823719.764574,0.006798744201660156,2026-03-29T22:35:19.764,2026-03-29T18:35:19.764,-20571.795,-45303.345,-76388.175,-47909.79,-8114.355,-15602.984999999999,8671.32,-60952.454999999994,-9.859255380830035,7.1779911777916,6.859714522362921,-0.14815652506396293,-9.58995472800074,-0.22775250527571106,20.686477861692676,-14.489712368932956,0.34960848,-0.950864265,0.18945264,-89.08788,16.358719999999998,66.57938,67.0
1774823719.7645886,1.4543533325195312e-05,2026-03-29T22:35:19.764,2026-03-29T18:35:19.764,-20550.555,-45298.799999999996,-76389.61499999999,-47989.979999999996,-8189.37,-15658.965,8632.619999999999,-60930.494999999995,-5.830647690597418,-18.643659611640576,-27.9169933779624,-11.780906387302638,1.578786328262736,6.199519576762799,13.347319120379725,2.153255450616046,0.34960848,-0.950864265,0.18945264,-89.08788,16.358719999999998,66.57938,67.0
1774823719.7646031,1.4543533325195312e-05,2026-03-29T22:35:19.764,2026-03-29T18:35:19.764,-20432.52,-45297.09,-76428.94499999999,-48059.189999999995,-8313.57,-15776.46,8543.97,-60804.63,0.9897617349722254,-33.341508419410324,-46.83926263580349,-19.775674894228157,9.549896474127804,8.687199299452859,-0.05221126792805163,16.91693124620217,0.34960848,-0.950864265,0.18945264,-89.08788,16.358719999999998,66.57938,67.0
1774823719.7646108,7.62939453125e-06,2026-03-29T22:35:19.764,2026-03-29T18:35:19.764,-20360.16,-45272.25,-76384.26,-47988.945,-8305.244999999999,-15790.23,8524.529999999999,-60725.024999999994,6.836000280349282,-30.126889980996744,-40.014411495529174,-18.389262790613035,12.287601626663426,7.495915423476728,-12.15559365787725,22.562387321031448,0.34960848,-0.950864265,0.18945264,-89.08788,16.358719999999998,66.57938,67.0
1774823719.7696671,0.0050563812255859375,2026-03-29T22:35:19.769,2026-03-29T18:35:19.769,-20564.28,-45294.705,-76294.70999999999,-47845.215,-8140.049999999999,-15633.765,8636.085,-60923.61,8.674336079978307,-11.721416736033826,-11.53569737929799,-6.535156255340637,10.472782669913453,4.394744570976174,-16.82960230340464,16.732546886802037,0.34960848,-0.950864265,0.18945264,-89.08788,16.358719999999998,66.57938,67.0
1774823719.76969,2.288818359375e-05,2026-03-29T22:35:19.769,2026-03-29T18:35:19.769,-20686.23,-45322.2,-76283.145,-47805.345,-8077.005,-15568.154999999999,8713.305,-61044.704999999994,5.764396524702182,11.594530895328027,23.028597465022614,10.964858958402662,6.308302423299122,1.3138987883841384,-12.239885186120084,2.893464370531304,0.34960848,-0.950864265,0.18945264,-89.08788,16.358719999999998,66.57938,67.0
1774823719.7737005,0.004010438919067383,2026-03-29T22:35:19.773,2026-03-29T18:35:19.773,-20627.505,-45326.564999999995,-76326.345,-47853.63,-8124.84,-15612.39,8672.985,-60982.38,-0.0725439651346816,27.647720969774422,45.12914059588164,25.43237255742561,1.9210142789500126,-0.73752509067035,-1.5201429994022422,-11.676239596070287,0.329894175,-0.9919408200000001,0.15783651,-43.61308,16.0993,53.65416,67.0
1774823719.7737136,1.3113021850585938e-05,2026-03-29T22:35:19.773,2026-03-29T18:35:19.773,-20607.48,-45304.02,-76310.50499999999,-47843.595,-8119.889999999999,-15610.095,8667.449999999999,-60967.395,-5.555720628847001,28.664259757521542,43.094251599420154,28.76222496560255,-1.65183021575418,-1.9169776217020527,9.174152014406328,-19.70394413153209,0.329894175,-0.9919408200000001,0.15783651,-43.61308,16.0993,53.65416,67.0
1774823719.7782433,0.004529714584350586,2026-03-29T22:35:19.778,2026-03-29T18:35:19.778,-20569.68,-45281.115,-76295.79,-47841.525,-8125.514999999999,-15621.93,8634.735,-60934.905,-7.765279912547906,14.964665043616387,18.15704042294329,17.920210282177486,-4.437160900355919,-2.9601451632842335,14.078560320657987,-17.550426215062142,0.329894175,-0.9919408200000001,0.15783651,-43.61308,16.0993,53.65416,67.0
1774823719.7782722,2.8848648071289062e-05,2026-03-29T22:35:19.778,2026-03-29T18:35:19.778,-20561.085,-45280.485,-76299.61499999999,-47856.645,-8148.6449999999995,-15647.22,8574.3,-60940.755,-5.678933115404159,-5.658826668348829,-16.40385196919566,-2.963784936245019,-6.73084686215006,-4.274184621962931,10.849964769417623,-6.836676602210559,0.329894175,-0.9919408200000001,0.15783651,-43.61308,16.0993,53.65416,67.0
1774823719.7847357,0.006463527679443359,2026-03-29T22:35:19.784,2026-03-29T18:35:19.784,-20536.38,-45274.229999999996,-76285.26,-47844.45,-8140.815,-15640.38,8578.305,-60929.189999999995,-0.621860641406226,-22.31847937317984,-42.400155909739254,-24.19422133449273,-8.269593974691361,-5.385542223372004,1.6511333689434482,6.646194501940731,0.329894175,-0.9919408200000001,0.15783651,-43.61308,16.0993,53.65416,67.0
1774823719.7847629,2.7179718017578125e-05,2026-03-29T22:35:19.784,2026-03-29T18:35:19.784,-20550.105,-45319.365,-76334.04,-47861.46,-8139.42,-15630.074999999999,8669.699999999999,-60883.74,4.556268495186251,-26.73025420847936,-46.29319874395252,-35.15878051784169,-8.057817585819876,-5.146892630652367,-8.193578242273253,16.057277909829462,0.329894175,-0.9919408200000001,0.15783651,-43.61308,16.0993,53.65416,67.0
1774823719.784788,2.5033950805664062e-05,2026-03-29T22:35:19.784,2026-03-29T18:35:19.784,-20569.815,-45317.79,-76355.55,-47877.795,-8143.514999999999,-15627.824999999999,8702.369999999999,-60881.04,7.076403250582774,-17.276168130105777,-26.16432379931798,-29.73191014702322,-5.034333820837737,-2.591046212228013,-13.170175107181835,16.981363034973832,0.329894175,-0.9919408200000001,0.15783651,-43.61308,16.0993,53.65416,67.0
1774823719.7847996,1.1682510375976562e-05,2026-03-29T22:35:19.784,2026-03-29T18:35:19.784,-20571.795,-45311.265,-76375.26,-47908.034999999996,-8172.36,-15650.505,8654.94,-60911.64,5.70924933846635,0.5332477446885522,7.453988281689445,-9.64539093805654,0.8592527522183862,2.127478985159059,-10.554364531289758,9.492222018188134,0.329894175,-0.9919408200000001,0.15783651,-43.61308,16.0993,53.65416,67.0
1774823719.789948,0.005148410797119141,2026-03-29T22:35:19.789,2026-03-29T18:35:19.789,-20557.89,-45303.39,-76367.06999999999,-47905.74,-8174.79,-15657.029999999999,8614.26,-60920.145,1.3553844959814982,17.229201551037367,37.18486666886041,16.002755125373316,7.99061094893206,7.3675119497508055,-1.8281862298102507,-2.156505183142279,0.329894175,-0.9919408200000001,0.15783651,-43.61308,16.0993,53.65416,67.0
1774823719.7899642,1.621246337890625e-05,2026-03-29T22:35:19.789,2026-03-29T18:35:19.789,-20552.265,-45305.415,-76369.05,-47894.265,-8161.469999999999,-15647.894999999999,8623.574999999999,-60913.079999999994,-3.53856243181918,24.38501930665948,47.83213629161631,34.99108356233687,13.349741851124405,10.568079966373555,8.173871978551308,-11.921011595678324,0.329894175,-0.9919408200000001,0.15783651,-43.61308,16.0993,53.65416,67.0
1774823719.793864,0.003899812698364258,2026-03-29T22:35:19.793,2026-03-29T18:35:19.793,-20552.13,-45307.08,-76368.915,-47893.409999999996,-8163.54,-15652.035,8639.1,-60909.93,-6.358026884238634,18.823003097456514,34.124004782487745,37.931193049693505,13.89557379957459,9.548897931508126,13.89355015654973,-15.10872379618845,0.26135187,-0.976865175,0.03283683,-9.40016,-1.526,43.75042,67.0
1774823719.7939053,4.124641418457031e-05,2026-03-29T22:35:19.793,2026-03-29T18:35:19.793,-20548.575,-45296.1,-76352.895,-47882.115,-8159.264999999999,-15652.349999999999,8626.455,-60913.305,-5.717532428650069,3.9513072929642035,3.2454628952491227,22.978582163276137,8.29534117305795,3.8660089225668455,12.041293930769273,-10.637882257466051,0.26135187,-0.976865175,0.03283683,-9.40016,-1.526,43.75042,67.0
1774823719.7991424,0.005237102508544922,2026-03-29T22:35:19.799,2026-03-29T18:35:19.799,-20533.23,-45260.595,-76304.97,-47863.979999999996,-8149.139999999999,-15645.644999999999,8604.404999999999,-60916.365,-2.1305804592417923,-12.285763477720524,-29.015749060394548,-3.0892499323299836,-1.9348335629707687,-4.576149043933516,3.376720979158075,-1.3263817116582797,0.26135187,-0.976865175,0.03283683,-9.40016,-1.526,43.75042,67.0
1774823719.799163,2.0742416381835938e-05,2026-03-29T22:35:19.799,2026-03-29T18:35:19.799,-20524.23,-45241.47,-76267.89,-47857.68,-8156.745,-15654.465,8626.095,-60911.415,2.3662746448235614,-21.63111958867507,-46.40755722819569,-28.025657036733634,-12.669927900197344,-12.120990032646555,-7.647360700086768,7.809721351338991,0.26135187,-0.976865175,0.03283683,-9.40016,-1.526,43.75042,67.0
1774823719.8016703,0.0025072097778320312,2026-03-29T22:35:19.801,2026-03-29T18:35:19.801,-20530.62,-45243.494999999995,-76258.665,-47860.604999999996,-8165.34,-15662.205,8639.955,-60915.329999999994,5.377621821015323,-19.677131885146125,-40.41604589057515,-39.98962837695524,-18.88360295607755,-14.998675207057218,-15.185723448545168,12.25073901955325,0.26135187,-0.976865175,0.03283683,-9.40016,-1.526,43.75042,67.0
1774823719.8016868,1.6450881958007812e-05,2026-03-29T22:35:19.801,2026-03-29T18:35:19.801,-20537.594999999998,-45264.15,-76284.27,-47861.549999999996,-8151.705,-15646.859999999999,8640.81,-60909.03,5.436164594286942,-7.887297435928077,-14.390939861992397,-33.26972061037378,-17.090591653386298,-11.246710996015794,-15.0523942750165,10.218870226168027,0.26135187,-0.976865175,0.03283683,-9.40016,-1.526,43.75042,67.0
1774823719.805622,0.003935337066650391,2026-03-29T22:35:19.805,2026-03-29T18:35:19.805,-20533.59,-45254.7,-76289.175,-47855.205,-8146.665,-15644.564999999999,8635.77,-60906.284999999996,2.7181855675026685,7.417438444102608,18.3789565061214,-11.049352001121221,-7.300060616872218,-1.921396371315369,-6.948618674450916,3.3566792244200934,0.26135187,-0.976865175,0.03283683,-9.40016,-1.526,43.75042,67.0
1774823719.805634,1.1920928955078125e-05,2026-03-29T22:35:19.805,2026-03-29T18:35:19.805,-20522.114999999998,-45217.799999999996,-76238.955,-47840.715,-8153.73,-15655.5,8621.595,-60907.814999999995,-1.1605436281520287,18.440838169204124,41.51692666516783,16.136129659552275,6.607223377159705,9.105715781223136,5.283361313702787,-4.398436857125845,0.26135187,-0.976865175,0.03283683,-9.40016,-1.526,43.75042,67.0
1774823719.8094811,0.0038471221923828125,2026-03-29T22:35:19.809,2026-03-29T18:35:19.809,-20523.105,-45235.125,-76251.555,-47852.955,-8153.955,-15652.755,8623.485,-60898.59,-4.10182973514708,19.856127842560053,43.77629411265333,35.48155600387257,18.429042574510667,16.79120728838568,15.526948435432773,-9.031862775407376,0.26135187,-0.976865175,0.03283683,-9.40016,-1.526,43.75042,67.0
1774823719.8094935,1.239776611328125e-05,2026-03-29T22:35:19.809,2026-03-29T18:35:19.809,-20528.19,-45275.805,-76331.52,-47874.689999999995,-8147.5199999999995,-15643.08,8631.449999999999,-60888.465,-4.672883649092393,11.330384809458558,24.489691489492255,38.04048799698047,22.490351905540283,17.2861690799591,18.451453399358666,-8.530431327566914,0.26135187,-0.976865175,0.03283683,-9.40016,-1.526,43.75042,67.0
1774823719.815652,0.006158351898193359,2026-03-29T22:35:19.815,2026-03-29T18:35:19.815,-20528.055,-45278.369999999995,-76335.93,-47868.795,-8135.37,-15633.09,8630.82,-60885.99,-2.8142026982210697,-2.5412504183937132,-6.376889772150446,22.92543304530254,16.44338066983113,9.889608011606988,12.234828816451383,-3.747651781380192,0.25341732,-0.97485102,0.045104865,0.16785999999999998,0.12208,33.1905,67.0
1774823719.815669,1.71661376953125e-05,2026-03-29T22:35:19.815,2026-03-29T18:35:19.815,-20538.899999999998,-45296.549999999996,-76359.33,-47873.61,-8131.7699999999995,-15626.07,8634.195,-60888.555,0.24499747965871874,-14.720710279504969,-33.42597215296993,-2.415730874680508,2.6083418419792523,-2.41024312582187,-0.42098711473647005,2.3084860298452288,0.25341732,-0.97485102,0.045104865,0.16785999999999998,0.12208,33.1905,67.0
1774823719.8218243,0.006155252456665039,2026-03-29T22:35:19.821,2026-03-29T18:35:19.821,-20552.355,-45314.28,-76393.665,-47885.939999999995,-8133.389999999999,-15618.105,8643.555,-60895.079999999994,2.7621179317420035,-19.284817649131174,-43.54792719436076,-25.907167712555722,-12.898501704023388,-14.156104869692527,-13.510452755034223,6.271073342604827,0.25341732,-0.97485102,0.045104865,0.16785999999999998,0.12208,33.1905,67.0
1774823719.8218431,1.8835067749023438e-05,2026-03-29T22:35:19.821,2026-03-29T18:35:19.821,-20557.215,-45333.045,-76447.035,-47887.56,-8131.634999999999,-15630.164999999999,8639.82,-60898.14,3.4737960440349274,-14.263331820070393,-32.27147884770299,-36.67060331644023,-22.92885424481456,-19.89657808273319,-20.60618530286362,6.256021997072317,0.25341732,-0.97485102,0.045104865,0.16785999999999998,0.12208,33.1905,67.0
1774823719.821854,1.0967254638671875e-05,2026-03-29T22:35:19.821,2026-03-29T18:35:19.821,-20542.905,-45306.99,-76402.575,-47847.555,-8113.094999999999,-15627.195,8639.324999999999,-60893.415,2.243062112519131,-2.4189060160966505,-5.674307615589337,-30.126629102835125,-22.679600119744105,-16.768595244386457,-18.006304731057735,2.7556544448506286,0.25341732,-0.97485102,0.045104865,0.16785999999999998,0.12208,33.1905,67.0
1774823719.8218586,4.5299530029296875e-06,2026-03-29T22:35:19.821,2026-03-29T18:35:19.821,-20540.745,-45280.845,-76331.83499999999,-47829.375,-8118.63,-15629.58,8633.34,-60894.405,0.025955787542935628,10.295514290666187,22.921282604541297,-9.953732106760421,-12.05200945558163,-5.942622830916173,-6.611193912303999,-1.8361957454650428,0.25341732,-0.97485102,0.045104865,0.16785999999999998,0.12208,33.1905,67.0
1774823719.838365,0.016506433486938477,2026-03-29T22:35:19.838,2026-03-29T18:35:19.838,-20562.165,-45311.534999999996,-76376.47499999999,-47860.83,-8143.83,-15640.019999999999,8616.06,-60906.735,-1.775714177897862,17.73365201962689,39.659075591763,13.932634981926963,4.187815845009358,7.8032946670016825,8.40005783295204,-4.718905545356312,0.25341732,-0.97485102,0.045104865,0.16785999999999998,0.12208,33.1905,67.0
1774823719.8383913,2.6226043701171875e-05,2026-03-29T22:35:19.838,2026-03-29T18:35:19.838,-20560.41,-45297.765,-76354.47,-47875.32,-8149.5,-15643.305,8613.72,-60911.28,-2.1660736122767057,16.496152326724708,36.86809839313168,30.283204300439042,18.579078888287658,18.23034878630879,19.965576248255697,-4.311706038631474,0.25341732,-0.97485102,0.045104865,0.16785999999999998,0.12208,33.1905,67.0
1774823719.838417,2.574920654296875e-05,2026-03-29T22:35:19.838,2026-03-29T18:35:19.838,-20533.59,-45266.49,-76332.915,-47874.33,-8143.155,-15639.029999999999,8628.435,-60902.189999999995,-1.1081926166528122,7.422731585747415,16.531154923841957,31.860450192775463,24.46137184305199,20.52354868173157,22.482354500728075,-1.0966091872677053,0.25341732,-0.97485102,0.045104865,0.16785999999999998,0.12208,33.1905,67.0
1774823719.8384292,1.2159347534179688e-05,2026-03-29T22:35:19.838,2026-03-29T18:35:19.838,-20527.515,-45310.68,-76430.565,-47853.54,-8113.679999999999,-15624.449999999999,8637.75,-60891.795,0.5273231784587156,-4.98502040429431,-11.037382182546956,18.66612942830542,19.12662562247427,13.557138855573141,14.505705502503705,2.761294963771781,0.25341732,-0.97485102,0.045104865,0.16785999999999998,0.12208,33.1905,67.0
1774823719.8384416,1.239776611328125e-05,2026-03-29T22:35:19.838,2026-03-29T18:35:19.838,-20545.829999999998,-45337.725,-76451.44499999999,-47843.505,-8105.04,-15622.83,8626.904999999999,-60905.744999999995,1.5589400756671283,-14.82253855531785,-32.45884594275385,-2.3956082683466526,5.107123432065698,0.45827535617446136,-0.4862841676361008,4.754610287208177,0.27001884,-0.92809821,0.084533475,44.80336,24.12606,11.73494,67.0
1774823719.8384511,9.5367431640625e-06,2026-03-29T22:35:19.838,2026-03-29T18:35:19.838,-20544.614999999998,-45297.0,-76388.535,-47873.88,-8138.34,-15640.064999999999,8602.199999999999,-60913.305,1.2588027237372588,-17.578453789849803,-37.795893431817454,-21.10263544124286,-11.028395177939213,-12.815544134179895,-15.646033668833303,3.5422318696270767,0.27001884,-0.92809821,0.084533475,44.80336,24.12606,11.73494,67.0
1774823719.8384635,1.239776611328125e-05,2026-03-29T22:35:19.838,2026-03-29T18:35:19.838,-20544.524999999998,-45270.63,-76341.645,-47875.455,-8149.724999999999,-15647.13,8604.63,-60915.149999999994,-0.1814045553075881,-12.150856890697826,-25.126962820060566,-28.89337301070263,-21.794348564608367,-20.228169824458213,-23.91686503206796,-0.24268010054141048,0.27001884,-0.92809821,0.084533475,44.80336,24.12606,11.73494,67.0
1774823719.838473,9.5367431640625e-06,2026-03-29T22:35:19.838,2026-03-29T18:35:19.838,-20566.665,-45324.81,-76352.265,-47874.015,-8154.674999999999,-15657.164999999999,8608.275,-60921.045,-1.7645995768306264,-1.2102012643294728,-1.1037456660433027,-22.806265161215816,-22.322021511873473,-18.455481717225634,-21.329102656920007,-4.342830489734563,0.27001884,-0.92809821,0.084533475,44.80336,24.12606,11.73494,67.0
1774823719.844472,0.005998849868774414,2026-03-29T22:35:19.844,2026-03-29T18:35:19.844,-20566.53,-45349.244999999995,-76369.275,-47869.244999999995,-8153.549999999999,-15654.015,8606.61,-60914.295,-2.3149625010200405,10.158045904771248,22.570988343021877,-6.560239679463991,-12.612443954597028,-8.4053122315171,-8.889325374577561,-6.182775118024533,0.27001884,-0.92809821,0.084533475,44.80336,24.12606,11.73494,67.0
1774823719.8444872,1.52587890625e-05,2026-03-29T22:35:19.844,2026-03-29T18:35:19.844,-20542.635,-45297.0,-76361.31,-47882.384999999995,-8146.755,-15633.99,8629.38,-60905.34,-1.2414993803255268,16.823610885313542,34.86849143565482,11.587919003400062,2.5554211333025063,5.239947432308564,7.8288161206610045,-4.388820946182234,0.27001884,-0.92809821,0.084533475,44.80336,24.12606,11.73494,67.0
1774823719.852651,0.008163690567016602,2026-03-29T22:35:19.852,2026-03-29T18:35:19.852,-20497.274999999998,-45212.939999999995,-76316.04,-47869.38,-8126.46,-15613.83,8647.92,-60884.055,1.0257599626422007,15.887714645180015,30.550033822728032,23.01527784407032,15.983043923417107,16.228599461814525,21.21580675626964,0.3421338988459516,0.27001884,-0.92809821,0.084533475,44.80336,24.12606,11.73494,67.0
1774823719.8526733,2.2411346435546875e-05,2026-03-29T22:35:19.852,2026-03-29T18:35:19.852,-20485.62,-45174.33,-76272.93,-47868.21,-8137.485,-15615.045,8661.06,-60874.515,3.2079477363328706,7.876294310255616,12.312446118025616,22.83353482972016,21.508246212600913,19.64278480011689,25.116267576990115,5.531743814501904,0.27001884,-0.92809821,0.084533475,44.80336,24.12606,11.73494,67.0
1774823719.8526907,1.7404556274414062e-05,2026-03-29T22:35:19.852,2026-03-29T18:35:19.852,-20504.475,-45219.015,-76319.37,-47884.005,-8145.405,-15624.045,8659.98,-60885.405,3.8869675063119233,-3.603414078111568,-10.864519434869885,11.967575337251764,16.881457212192505,14.134262298362657,17.66744262157454,8.23422144371755,0.27001884,-0.92809821,0.084533475,44.80336,24.12606,11.73494,67.0
1774823719.8526983,7.62939453125e-06,2026-03-29T22:35:19.852,2026-03-29T18:35:19.852,-20516.67,-45251.595,-76348.17,-47900.115,-8160.165,-15646.68,8637.84,-60892.02,2.3610838000719343,-13.51141598374095,-28.175626386145698,-3.6623590853386028,4.698904121910022,2.4616793116690574,2.1749178184007274,6.671131548192221,0.27001884,-0.92809821,0.084533475,44.80336,24.12606,11.73494,67.0
1774823719.8603609,0.007662534713745117,2026-03-29T22:35:19.860,2026-03-29T18:35:19.860,-20531.88,-45256.455,-76353.795,-47908.665,-8177.13,-15669.63,8629.335,-60897.015,-0.8494611693471508,-17.56492774310758,-32.024454944046404,-16.291097217484317,-9.001833021430707,-9.886102247289257,-14.380578315937207,1.2925119861732397,0.285338625,-0.859555905,0.14318811,29.11608,23.82086,-12.77262,67.0
1774823719.860382,2.1219253540039062e-05,2026-03-29T22:35:19.860,2026-03-29T18:35:19.860,-20540.114999999998,-45257.354999999996,-76359.87,-47931.84,-8200.574999999999,-15685.515,8613.225,-60905.924999999996,-4.166388682120942,-14.031592900177882,-21.291781384833726,-20.140920377608605,-17.73986024333388,-17.293909722394726,-24.520229038786347,-5.3355978048123935,0.285338625,-0.859555905,0.14318811,29.11608,23.82086,-12.77262,67.0
1774823719.8604026,2.0503997802734375e-05,2026-03-29T22:35:19.860,2026-03-29T18:35:19.860,-20533.995,-45247.005,-76336.83,-47923.604999999996,-8193.015,-15673.68,8590.994999999999,-60910.38,-5.741189491624544,-4.406998908231898,-1.4682574893586873,-14.054155053034666,-17.68949337656675,-16.605623191265668,-23.669949357330236,-9.794630383685046,0.285338625,-0.859555905,0.14318811,29.11608,23.82086,-12.77262,67.0
1774823719.8604095,6.9141387939453125e-06,2026-03-29T22:35:19.860,2026-03-29T18:35:19.860,-20524.905,-45228.735,-76300.785,-47894.895,-8167.41,-15645.33,8613.045,-60904.89,-4.466167541564202,7.253576694778602,18.19264185631257,-1.7331307582174194,-9.38328585900757,-8.48689898553297,-12.231319208175314,-9.587132203053802,0.285338625,-0.859555905,0.14318811,29.11608,23.82086,-12.77262,67.0
1774823719.8654714,0.0050618648529052734,2026-03-29T22:35:19.865,2026-03-29T18:35:19.865,-20515.364999999998,-45234.494999999995,-76310.37,-47871.99,-8142.795,-15619.095,8674.605,-60885.36,-0.6611032200426818,16.034433110250504,29.012126746187917,10.380203266734416,2.7507282324710807,3.030587447982021,4.620180889731039,-4.495061546676552,0.285338625,-0.859555905,0.14318811,29.11608,23.82086,-12.77262,67.0
1774823719.865498,2.6702880859375e-05,2026-03-29T22:35:19.865,2026-03-29T18:35:19.865,-20494.26,-45219.15,-76301.37,-47843.595,-8110.665,-15588.224999999999,8693.73,-60866.954999999994,3.96370965133591,18.184881848804118,26.674362647863425,16.41347492053578,12.708717296846151,12.547514150556385,19.304828018772298,3.201924217322776,0.285338625,-0.859555905,0.14318811,29.11608,23.82086,-12.77262,67.0
1774823719.8655248,2.6702880859375e-05,2026-03-29T22:35:19.865,2026-03-29T18:35:19.865,-20497.995,-45218.655,-76306.995,-47863.845,-8120.835,-15593.49,8671.455,-60870.869999999995,7.095333200205688,12.663091497782377,12.836354925662947,13.883624952614383,15.885486731451037,15.847571538435538,25.28066692071667,9.790449317411696,0.285338625,-0.859555905,0.14318811,29.11608,23.82086,-12.77262,67.0
1774823719.8655343,9.5367431640625e-06,2026-03-29T22:35:19.865,2026-03-29T18:35:19.865,-20528.864999999998,-45252.854999999996,-76342.095,-47900.744999999995,-8157.105,-15627.465,8660.205,-60888.24,6.982739373413004,1.5938698134905112,-5.972972900091879,4.6850555167820245,11.227171485296756,11.786837796603406,19.981686185471023,11.9509623711937,0.285338625,-0.859555905,0.14318811,29.11608,23.82086,-12.77262,67.0
1774823719.884205,0.01867079734802246,2026-03-29T22:35:19.884,2026-03-29T18:35:19.884,-20531.43,-45249.795,-76332.015,-47895.03,-8158.094999999999,-15628.23,8648.055,-60885.765,3.386391441423616,-10.541771243165748,-21.469074837332535,-6.126536481648971,1.5459823914572788,2.666206044372395,5.922140641151723,8.432666958847427,0.285338625,-0.859555905,0.14318811,29.11608,23.82086,-12.77262,67.0
1774823719.8842256,2.0503997802734375e-05,2026-03-29T22:35:19.884,2026-03-29T18:35:19.884,-20531.07,-45237.869999999995,-76321.17,-47897.1,-8157.465,-15629.849999999999,8614.485,-60899.625,-2.1924539107199905,-18.681865938656298,-27.242727850999344,-13.03034345606967,-8.075058528883654,-7.019722322378827,-10.510247854425728,0.7291116266075909,0.285338625,-0.859555905,0.14318811,29.11608,23.82086,-12.77262,67.0
1774823719.8842444,1.8835067749023438e-05,2026-03-29T22:35:19.884,2026-03-29T18:35:19.884,-20519.01,-45225.18,-76312.845,-47890.619999999995,-8160.344999999999,-15624.63,8615.52,-60889.634999999995,-7.155936388378673,-19.243830355725354,-21.32673559727073,-12.808369428143287,-12.914262106913684,-12.793831432648107,-21.988975601838913,-7.593861161993318,0.288634515,-0.898374165,0.12731901,-39.9812,13.566139999999999,1.03768,67.0
1774823719.884251,6.67572021484375e-06,2026-03-29T22:35:19.884,2026-03-29T18:35:19.884,-20524.68,-45247.14,-76330.44,-47884.455,-8165.61,-15623.055,8618.895,-60892.74,-9.039451502184292,-11.659423020523086,-6.719550498629385,-6.017396683208217,-10.929497414313246,-12.280587201843533,-23.55013665164906,-12.594468699979343,0.288634515,-0.898374165,0.12731901,-39.9812,13.566139999999999,1.03768,67.0
1774823719.8842585,7.3909759521484375e-06,2026-03-29T22:35:19.884,2026-03-29T18:35:19.884,-20537.145,-45244.395,-76314.95999999999,-47881.619999999995,-8162.82,-15647.715,8573.445,-60915.06,-6.733789420646537,1.2542208065596618,10.16954454997834,3.4945788887665246,-3.6232312818923025,-6.186710544138934,-14.757564874726889,-11.846676188942281,0.288634515,-0.898374165,0.12731901,-39.9812,13.566139999999999,1.03768,67.0
1774823719.8842645,5.9604644775390625e-06,2026-03-29T22:35:19.884,2026-03-29T18:35:19.884,-20523.645,-45228.689999999995,-76300.29,-47867.58,-8122.59,-15623.595,8583.885,-60894.63,-1.0928987035562314,14.297756915913528,22.338229012494086,10.690583897649253,4.912838318903144,2.2271589238373513,0.2220905872939993,-5.60795862339463,0.288634515,-0.898374165,0.12731901,-39.9812,13.566139999999999,1.03768,67.0
1774823719.884271,6.4373016357421875e-06,2026-03-29T22:35:19.884,2026-03-29T18:35:19.884,-20516.715,-45239.354999999996,-76329.27,-47887.155,-8123.94,-15598.619999999999,8634.824999999999,-60862.68,5.39061398975393,21.937085152536305,25.034640440235624,11.945167529003765,10.212964887025144,8.851078016020915,14.614012813908582,3.294470903535863,0.288634515,-0.898374165,0.12731901,-39.9812,13.566139999999999,1.03768,67.0
1774823719.8842769,5.9604644775390625e-06,2026-03-29T22:35:19.884,2026-03-29T18:35:19.884,-20506.995,-45239.174999999996,-76335.075,-47890.439999999995,-8134.38,-15596.595,8680.68,-60836.85,9.71066105073867,20.61551552470977,17.507719582684214,6.82585789073442,9.738643033333412,10.729225541906628,22.137737477907862,10.790946073364855,0.288634515,-0.898374165,0.12731901,-39.9812,13.566139999999999,1.03768,67.0
1774823719.891494,0.0072171688079833984,2026-03-29T22:35:19.891,2026-03-29T18:35:19.891,-20500.02,-45216.63,-76303.34999999999,-47877.884999999995,-8132.759999999999,-15611.13,8682.705,-60831.27,9.75209209129303,10.382322445712225,3.0822677616586427,-1.801358775171002,4.092300050259777,7.386865296750809,19.780106614426657,13.464257876862119,0.288634515,-0.898374165,0.12731901,-39.9812,13.566139999999999,1.03768,67.0
1774823719.8915148,2.0742416381835938e-05,2026-03-29T22:35:19.891,2026-03-29T18:35:19.891,-20502.315,-45197.369999999995,-76264.2,-47868.39,-8139.105,-15624.855,8672.175,-60844.409999999996,5.312145406757702,-4.899518595077197,-12.332876539012176,-9.334979465347558,-3.436015496735787,0.8820751332133183,8.99867157720302,10.113503840574678,0.288634515,-0.898374165,0.12731901,-39.9812,13.566139999999999,1.03768,67.0
1774823719.8915315,1.6689300537109375e-05,2026-03-29T22:35:19.891,2026-03-29T18:35:19.891,-20505.78,-45210.555,-76279.59,-47867.445,-8125.965,-15611.939999999999,8629.065,-60853.994999999995,-1.748412657932689,-18.961015777659128,-22.627780987140675,-11.833099316647777,-8.697947858586625,-5.368823910266923,-5.124882247688682,2.269313619230468,0.288634515,-0.898374165,0.12731901,-39.9812,13.566139999999999,1.03768,67.0
1774823719.8915384,6.9141387939453125e-06,2026-03-29T22:35:19.891,2026-03-29T18:35:19.891,-20526.344999999998,-45266.354999999996,-76367.295,-47897.64,-8134.469999999999,-15616.619999999999,8630.685,-60858.945,-8.307047055652927,-25.66796010154302,-23.829117546737624,-8.016822141014202,-8.904072932982018,-8.350476159973041,-16.30951118491472,-6.54631275174731,0.288634515,-0.898374165,0.12731901,-39.9812,13.566139999999999,1.03768,67.0
1774823719.8942883,0.002749919891357422,2026-03-29T22:35:19.894,2026-03-29T18:35:19.894,-20541.285,-45277.965,-76377.06,-47908.215,-8149.455,-15629.49,8635.904999999999,-60866.954999999994,-11.375008562905046,-21.68166059515522,-15.547612589618575,0.11327235231972557,-4.0676268342212065,-6.89894571952365,-19.908872592102274,-12.437545583173014,0.309996765,-0.978696225,0.122985525,-58.40002,34.426559999999995,20.76886,67.0
1774823719.8943064,1.811981201171875e-05,2026-03-29T22:35:19.894,2026-03-29T18:35:19.894,-20546.145,-45266.13,-76355.86499999999,-47896.244999999995,-8148.105,-15635.519999999999,8625.735,-60878.52,-9.454671441662507,-8.0905021461721,-1.056905677581724,8.329245965018933,3.0600690970947793,-2.1473921066537653,-14.85675937204969,-12.868917200037828,0.309996765,-0.978696225,0.122985525,-58.40002,34.426559999999995,20.76886,67.0
1774823719.9012153,0.006908893585205078,2026-03-29T22:35:19.901,2026-03-29T18:35:19.901,-20527.559999999998,-45237.78,-76317.93,-47855.384999999995,-8120.745,-15616.305,8628.93,-60877.439999999995,-3.244604340385476,9.77777740013318,13.979465544104853,12.343084420492954,8.50129121941156,3.1985044685686903,-3.9003451784403844,-7.739137055770554,0.309996765,-0.978696225,0.122985525,-58.40002,34.426559999999995,20.76886,67.0
1774823719.9012344,1.9073486328125e-05,2026-03-29T22:35:19.901,2026-03-29T18:35:19.901,-20521.17,-45241.47,-76330.215,-47869.064999999995,-8126.594999999999,-15613.83,8655.21,-60864.345,4.627177557589111,24.412302791244493,23.65426297158453,9.991294848119265,9.198669999975946,6.332054642157922,7.8740572991570295,0.6486100695725776,0.309996765,-0.978696225,0.122985525,-58.40002,34.426559999999995,20.76886,67.0
1774823719.9012465,1.2159347534179688e-05,2026-03-29T22:35:19.901,2026-03-29T18:35:19.901,-20507.715,-45217.53,-76310.685,-47897.775,-8163.09,-15637.68,8664.84,-60847.2,10.728496257253926,29.268573124147405,24.063521056011588,2.3450466384324007,4.663790905598047,5.7870617397324455,15.440395301567639,8.653807002162276,0.309996765,-0.978696225,0.122985525,-58.40002,34.426559999999995,20.76886,67.0
1774823719.9012527,6.198883056640625e-06,2026-03-29T22:35:19.901,2026-03-29T18:35:19.901,-20516.175,-45235.979999999996,-76334.355,-47932.83,-8181.045,-15638.445,8658.36,-60845.895,12.316763475109177,21.693331224332425,14.840773074489391,-6.803026672678063,-2.737644881073462,2.120659846192307,16.00863509860534,12.891904964621238,0.309996765,-0.978696225,0.122985525,-58.40002,34.426559999999995,20.76886,67.0
1774823719.9058099,0.004557132720947266,2026-03-29T22:35:19.905,2026-03-29T18:35:19.905,-20524.14,-45257.67,-76364.145,-47942.415,-8176.41,-15621.48,8660.115,-60843.195,8.552757507438443,4.314811306551564,-0.605284944401521,-12.81835354169608,-9.0157846838732,-2.4790375427068594,10.01903584298464,11.650515405936176,0.309996765,-0.978696225,0.122985525,-58.40002,34.426559999999995,20.76886,67.0
1774823719.905824,1.4066696166992188e-05,2026-03-29T22:35:19.905,2026-03-29T18:35:19.905,-20532.465,-45276.615,-76395.06,-47936.564999999995,-8165.924999999999,-15616.035,8657.865,-60855.255,0.9081282307804318,-15.813951203406317,-16.290599275090408,-12.540535779013211,-10.663982938410276,-5.418986439072523,0.6180556147073971,5.546384707463443,0.309996765,-0.978696225,0.122985525,-58.40002,34.426559999999995,20.76886,67.0
1774823719.9115453,0.005721330642700195,2026-03-29T22:35:19.911,2026-03-29T18:35:19.911,-20525.805,-45277.29,-76396.72499999999,-47926.619999999995,-8147.295,-15604.92,8653.455,-60854.445,-7.415692610917277,-30.072371314949837,-25.909136416417763,-5.8923072264582395,-6.546426755895803,-5.100226843075353,-7.994769936283961,-2.8054466260398843,0.309996765,-0.978696225,0.122985525,-58.40002,34.426559999999995,20.76886,67.0
1774823719.911576,3.075599670410156e-05,2026-03-29T22:35:19.911,2026-03-29T18:35:19.911,-20525.04,-45263.564999999995,-76356.62999999999,-47903.895,-8137.349999999999,-15601.994999999999,8647.785,-60851.43,-12.822058914174633,-31.975087281742987,-25.32851666061896,4.017700021453339,1.4252350567322054,-1.756741677310443,-12.481178062278486,-9.922112408416284,0.309996765,-0.978696225,0.122985525,-58.40002,34.426559999999995,20.76886,67.0
1774823719.9170861,0.005510091781616211,2026-03-29T22:35:19.917,2026-03-29T18:35:19.917,-20534.265,-45262.35,-76346.86499999999,-47884.994999999995,-8131.5,-15602.22,8641.755,-60856.47,-12.8541316969376,-20.122418266736943,-14.359512621653959,12.364176056608747,9.200177274629585,2.695119566717009,-11.648412000431051,-12.889045661805334,0.349181235,-1.001279175,0.16784625,-47.09236,71.37102,26.72026,67.0
1774823719.9171,1.3828277587890625e-05,2026-03-29T22:35:19.917,2026-03-29T18:35:19.917,-20525.399999999998,-45260.189999999995,-76352.535,-47867.895,-8129.88,-15607.125,8637.3,-60853.229999999996,-7.286850195194517,0.9479456672312351,2.9596098217277893,14.945828783534582,12.640962980952683,5.706496833363684,-6.612420070821625,-10.520648367247858,0.349181235,-1.001279175,0.16784625,-47.09236,71.37102,26.72026,67.0
1774823719.917111,1.0967254638671875e-05,2026-03-29T22:35:19.917,2026-03-29T18:35:19.917,-20522.7,-45263.475,-76362.345,-47858.939999999995,-8121.014999999999,-15598.935,8639.82,-60846.57,1.695449821260866,22.485015386657548,19.785222397004187,10.266987124682412,9.682903040697179,5.487215557967081,0.06330480933879629,-3.8052615898113036,0.349181235,-1.001279175,0.16784625,-47.09236,71.37102,26.72026,67.0
1774823719.9171152,4.291534423828125e-06,2026-03-29T22:35:19.917,2026-03-29T18:35:19.917,-20539.575,-45283.634999999995,-76404.23999999999,-47890.08,-8130.375,-15610.23,8642.744999999999,-60859.71,10.339812236210099,35.176048090701876,29.134777136264177,0.34288946595613745,1.4892235764824024,2.002718169427076,5.690401575894052,4.512503053612064,0.349181235,-1.001279175,0.16784625,-47.09236,71.37102,26.72026,67.0
1774823719.9216044,0.00448918342590332,2026-03-29T22:35:19.921,2026-03-29T18:35:19.921,-20539.26,-45267.345,-76391.145,-47916.314999999995,-8155.889999999999,-15627.015,8640.855,-60867.225,14.86872941064074,33.192363019273806,26.77817497262312,-10.184390217977146,-8.01703726662309,-2.9563572832444276,8.550348714368377,11.031694854753004,0.349181235,-1.001279175,0.16784625,-47.09236,71.37102,26.72026,67.0
1774823719.921654,4.9591064453125e-05,2026-03-29T22:35:19.921,2026-03-29T18:35:19.921,-20539.079999999998,-45277.2,-76380.61499999999,-47951.595,-8181.045,-15630.795,8639.46,-60873.975,13.10687485074165,16.86041030446823,13.157174592785282,-16.223946603488315,-14.049401548092657,-6.685360865965691,8.307227540925322,13.05002474008188,0.349181235,-1.001279175,0.16784625,-47.09236,71.37102,26.72026,67.0
1774823719.9336903,0.012036323547363281,2026-03-29T22:35:19.933,2026-03-29T18:35:19.933,-20544.03,-45309.195,-76390.02,-47951.955,-8182.215,-15619.859999999999,8635.05,-60879.284999999996,5.504863277415293,-7.266720091065473,-6.544717302369053,-14.68433689292735,-13.358629462648555,-6.998245529581357,5.71357318710113,9.65739206068554,0.349181235,-1.001279175,0.16784625,-47.09236,71.37102,26.72026,67.0
