unix_time_s,dt_s,UTC,LOCAL,EMG1_Raw,EMG2_Raw,EMG3_Raw,EMG4_Raw,EMG5_Raw,EMG6_Raw,EMG7_Raw,EMG8_Raw,EMG1_Filtered,EMG2_Filtered,EMG3_Filtered,EMG4_Filtered,EMG5_Filtered,EMG6_Filtered,EMG7_Filtered,EMG8_Filtered,Accel1_Raw,Accel2_Raw,Accel3_Raw,Gyro1_Raw,Gyro2_Raw,Gyro3_Raw,Battery
1774822701.113259,,2026-03-29T22:18:21.113,2026-03-29T18:18:21.113,-33665.805,-46403.369999999995,-85097.7,-50159.924999999996,-12716.414999999999,-17974.44,6534.8099999999995,-35584.965,4.9430469978528855,2.1695562141339693,0.8237840974692361,0.4371758497889283,0.7478752430442493,1.6949233381890707,0.6721095385675537,2.599854857570892,0.206725545,-0.09973119,0.982114185,-15.580459999999999,-1.4497,-6.04296,70.0
1774822701.1132827,2.3603439331054688e-05,2026-03-29T22:18:21.113,2026-03-29T18:18:21.113,-33670.89,-46414.89,-85115.79,-50179.59,-12737.115,-18002.969999999998,6498.495,-35587.485,0.47043164531455334,3.30130969349694,7.367208786199781,8.012100093474718,10.315284669775593,12.71472596058482,1.0612964243297494,2.0621982858026113,0.206725545,-0.09973119,0.982114185,-15.580459999999999,-1.4497,-6.04296,70.0
1774822701.1169136,0.0036308765411376953,2026-03-29T22:18:21.116,2026-03-29T18:18:21.116,-33683.31,-46442.655,-85149.045,-50212.17,-12769.064999999999,-18039.78,6464.25,-35586.585,-4.706272080529383,2.728340820901568,10.553957567802701,12.046409023801523,15.225600719737209,17.886836028177026,1.1820690419351247,0.37716045811286475,0.206725545,-0.09973119,0.982114185,-15.580459999999999,-1.4497,-6.04296,70.0
1774822701.1169283,1.4781951904296875e-05,2026-03-29T22:18:21.116,2026-03-29T18:18:21.116,-33676.335,-46433.43,-85133.43,-50192.865,-12747.869999999999,-18016.559999999998,6462.495,-35582.445,-8.312813684512571,0.6930453940109,8.88168329333138,10.592754233012881,13.072130534545012,14.615494938919728,0.8582725390166321,-1.8198160181614371,0.206725545,-0.09973119,0.982114185,-15.580459999999999,-1.4497,-6.04296,70.0
1774822701.120699,0.003770589828491211,2026-03-29T22:18:21.120,2026-03-29T18:18:21.120,-33680.07,-46432.935,-85132.75499999999,-50196.24,-12754.395,-18023.219999999998,6444.585,-35584.74,-8.529913266436827,-1.7901380973231271,3.0991138916404752,4.217115263039352,4.744478021620969,4.310216349904155,0.04878268055867888,-3.504821187741054,0.206725545,-0.09973119,0.982114185,-15.580459999999999,-1.4497,-6.04296,70.0
1774822701.1207333,3.4332275390625e-05,2026-03-29T22:18:21.120,2026-03-29T18:18:21.120,-33688.799999999996,-46424.384999999995,-85115.25,-50175.945,-12734.055,-18008.055,6448.23,-35591.715,-4.90176784110192,-3.4354478144504728,-4.123939794999045,-4.207521651465034,-5.927810971450422,-8.213279673277665,-1.0443744913318056,-3.7408922978214703,0.206725545,-0.09973119,0.982114185,-15.580459999999999,-1.4497,-6.04296,70.0
1774822701.1248486,0.00411534309387207,2026-03-29T22:18:21.124,2026-03-29T18:18:21.124,-33671.025,-46404.99,-85097.79,-50158.575,-12720.24,-18001.035,6466.139999999999,-35587.979999999996,1.292704807574798,-3.344595996002545,-9.432802746511296,-10.797598991806568,-13.94214235635141,-16.991271401357288,-1.9790241546052894,-2.1826248296660093,0.205626915,-0.10510227,0.978940365,-16.312939999999998,-3.26564,-7.0196,70.0
1774822701.1248665,1.7881393432617188e-05,2026-03-29T22:18:21.124,2026-03-29T18:18:21.124,-33676.47,-46425.915,-85128.345,-50195.34,-12761.73,-18042.704999999998,6489.99,-35585.1,7.451543428692513,-1.4887473995285263,-10.357065831037504,-12.46077606851047,-15.48335650714442,-17.76759840318841,-2.2330728605808448,0.6563685541961162,0.205626915,-0.10510227,0.978940365,-16.312939999999998,-3.26564,-7.0196,70.0
1774822701.1284683,0.0036017894744873047,2026-03-29T22:18:21.128,2026-03-29T18:18:21.128,-33663.104999999996,-46430.595,-85146.03,-50219.595,-12780.99,-18045.45,6508.08,-35573.939999999995,10.736704855348044,1.2418012557819078,-6.474085806080927,-8.362440411619659,-9.7574126244436,-10.07241081977356,-1.4754819990636459,3.5470149827804294,0.205626915,-0.10510227,0.978940365,-16.312939999999998,-3.26564,-7.0196,70.0
1774822701.1284938,2.5510787963867188e-05,2026-03-29T22:18:21.128,2026-03-29T18:18:21.128,-33656.174999999996,-46422.765,-85126.72499999999,-50194.259999999995,-12749.13,-18005.625,6519.69,-35564.49,9.386227568045866,3.4620749454041384,0.38747835028180216,-0.35443438510784137,0.5910574840153533,2.4982252749424103,0.18593306216960215,5.076470453383351,0.205626915,-0.10510227,0.978940365,-16.312939999999998,-3.26564,-7.0196,70.0
1774822701.132851,0.004357099533081055,2026-03-29T22:18:21.132,2026-03-29T18:18:21.132,-33662.295,-46435.275,-85149.045,-50221.89,-12783.6,-18049.005,6479.054999999999,-35565.119999999995,3.642873526542524,3.9899670877588744,7.007240764637074,7.858700510148863,10.700656187263956,13.966315856529963,2.1375307032226334,4.338337899257363,0.205626915,-0.10510227,0.978940365,-16.312939999999998,-3.26564,-7.0196,70.0
1774822701.1328719,2.09808349609375e-05,2026-03-29T22:18:21.132,2026-03-29T18:18:21.132,-33680.43,-46422.314999999995,-85110.165,-50174.28,-12736.35,-18009.495,6456.285,-35575.965,-4.184805784816723,2.4674740534262427,10.293085287185518,12.443120722943585,15.790856562898345,18.830214961643232,3.4621077721385114,1.4439300958040944,0.205626915,-0.10510227,0.978940365,-16.312939999999998,-3.26564,-7.0196,70.0
1774822701.1365433,0.003671407699584961,2026-03-29T22:18:21.136,2026-03-29T18:18:21.136,-33673.635,-46390.634999999995,-85057.92,-50118.57,-12678.93,-17951.67,6492.6449999999995,-35574.57,-10.637795451843079,-0.4179258563542839,8.740712322365745,11.243215372540432,13.443700655104182,14.723931427252758,3.359893073199075,-2.425468200663289,0.205626915,-0.10510227,0.978940365,-16.312939999999998,-3.26564,-7.0196,70.0
1774822701.1365597,1.6450881958007812e-05,2026-03-29T22:18:21.136,2026-03-29T18:18:21.136,-33664.994999999995,-46401.84,-85083.885,-50153.759999999995,-12716.234999999999,-17983.485,6502.23,-35568.945,-12.643252891577497,-3.242003149701562,3.1368857185334376,4.81295144277726,4.770922969334831,3.582821188945661,1.5993797469922402,-5.4973371794147505,0.205626915,-0.10510227,0.978940365,-16.312939999999998,-3.26564,-7.0196,70.0
1774822701.1421669,0.005607128143310547,2026-03-29T22:18:21.142,2026-03-29T18:18:21.142,-33676.695,-46435.905,-85137.56999999999,-50208.93,-12768.255,-18026.235,6502.365,-35570.52,-8.986366234744542,-4.5451914199856125,-3.8295632238190276,-3.8309637754217025,-6.105771396605368,-9.26584848842476,-1.2465923268105006,-6.225767248664549,0.205626915,-0.10510227,0.978940365,-16.312939999999998,-3.26564,-7.0196,70.0
1774822701.1421824,1.5497207641601562e-05,2026-03-29T22:18:21.142,2026-03-29T18:18:21.142,-33682.59,-46450.89,-85158.18,-50226.57,-12786.84,-18050.489999999998,6489.179999999999,-35571.645,-1.008090340189892,-3.5819176418401817,-8.861027924788672,-10.629347124412709,-14.02234091620379,-17.66229664949788,-3.950077053916404,-4.068238582280738,0.205626915,-0.10510227,0.978940365,-16.312939999999998,-3.26564,-7.0196,70.0
1774822701.146942,0.004759550094604492,2026-03-29T22:18:21.146,2026-03-29T18:18:21.146,-33674.085,-46446.705,-85158.27,-50226.39,-12791.789999999999,-18070.065,6467.985,-35570.205,7.859836349660387,-0.7348770982676568,-9.625535745865797,-12.403915598884799,-15.24525150885225,-17.588997967544728,-5.150255090433463,0.169058768238579,0.20434518000000002,-0.11413545,0.9767431050000001,-11.094019999999999,-5.46308,-6.37868,70.0
1774822701.1469617,1.9788742065429688e-05,2026-03-29T22:18:21.146,2026-03-29T18:18:21.146,-33695.505,-46458.494999999995,-85162.905,-50232.015,-12791.654999999999,-18063.855,6468.66,-35575.2,13.578049243973597,2.631777142234623,-5.854488677861421,-8.364683019390796,-9.255935693310812,-9.114343831836983,-4.030750909735593,4.621489217196946,0.20434518000000002,-0.11413545,0.9767431050000001,-11.094019999999999,-5.46308,-6.37868,70.0
1774822701.1484592,0.001497507095336914,2026-03-29T22:18:21.148,2026-03-29T18:18:21.148,-33687.225,-46438.604999999996,-85133.79,-50198.715,-12741.93,-17991.63,6502.545,-35572.814999999995,13.357155872714591,4.827508570658041,0.5611474987108278,-0.47617415675810115,1.0172543489956067,3.6453401570477744,-0.8170628366862649,7.193886608275614,0.20434518000000002,-0.11413545,0.9767431050000001,-11.094019999999999,-5.46308,-6.37868,70.0
1774822701.1484663,7.152557373046875e-06,2026-03-29T22:18:21.148,2026-03-29T18:18:21.148,-33683.85,-46422.99,-85115.11499999999,-50189.174999999996,-12734.369999999999,-17984.61,6508.3949999999995,-35574.705,7.02721957598013,4.683674742918288,6.513301380730048,7.495078656171224,10.630493684925321,14.530301759005493,3.1927431008028995,6.555098493707393,0.20434518000000002,-0.11413545,0.9767431050000001,-11.094019999999999,-5.46308,-6.37868,70.0
1774822701.1527169,0.004250526428222656,2026-03-29T22:18:21.152,2026-03-29T18:18:21.152,-33676.92,-46424.205,-85114.08,-50185.35,-12733.425,-17989.2,6508.259999999999,-35568.854999999996,-2.7578577052332394,2.169352451308785,9.19060697735832,11.791634796761992,15.020160832910603,18.330458890189185,6.142388802516151,2.8228982165681864,0.20434518000000002,-0.11413545,0.9767431050000001,-11.094019999999999,-5.46308,-6.37868,70.0
1774822701.1527424,2.5510787963867188e-05,2026-03-29T22:18:21.152,2026-03-29T18:18:21.152,-33682.545,-46438.47,-85133.43,-50206.545,-12762.314999999999,-18028.485,6488.46,-35567.1,-11.635439744933203,-1.5478345972987828,7.42250772304265,10.458341951822518,12.194546375401195,13.304030196576557,6.47905471381384,-2.412170251499237,0.20434518000000002,-0.11413545,0.9767431050000001,-11.094019999999999,-5.46308,-6.37868,70.0
1774822701.1567538,0.004011392593383789,2026-03-29T22:18:21.156,2026-03-29T18:18:21.156,-33684.93,-46449.72,-85153.815,-50226.975,-12784.545,-18053.73,6486.705,-35567.82,-15.499843777515586,-4.646944539187271,2.2033588770554386,4.251466214207273,3.657256468167879,1.9925763688948903,3.7608578993225894,-6.77042613990913,0.20434518000000002,-0.11413545,0.9767431050000001,-11.094019999999999,-5.46308,-6.37868,70.0
1774822701.1567843,3.0517578125e-05,2026-03-29T22:18:21.156,2026-03-29T18:18:21.156,-33653.34,-46435.095,-85151.79,-50228.145,-12786.345,-18056.43,6485.445,-35557.064999999995,-12.42333258176934,-5.549312166943576,-3.8447165163096733,-3.7687999909908383,-6.375828030834053,-10.057496020638188,-1.0071423599433869,-8.177686289389696,0.20434518000000002,-0.11413545,0.9767431050000001,-11.094019999999999,-5.46308,-6.37868,70.0
1774822701.160871,0.004086732864379883,2026-03-29T22:18:21.160,2026-03-29T18:18:21.160,-33651.225,-46430.595,-85140.94499999999,-50215.59,-12775.545,-18049.905,6462.179999999999,-35553.195,-3.622950106512199,-3.7223169775721696,-7.787918593060116,-9.750717250844067,-13.065087386924601,-17.026885888894096,-5.726287740301986,-5.861308585430018,0.20434518000000002,-0.11413545,0.9767431050000001,-11.094019999999999,-5.46308,-6.37868,70.0
1774822701.1608922,2.1219253540039062e-05,2026-03-29T22:18:21.160,2026-03-29T18:18:21.160,-33646.005,-46441.979999999996,-85162.995,-50238.494999999995,-12798.855,-18076.005,6412.094999999999,-35547.93,7.014781024181572,0.01822433372619851,-7.81536121134787,-10.91914195954171,-13.303597189598262,-15.657734307845546,-8.134174449738698,-0.7650124035331803,0.20434518000000002,-0.11413545,0.9767431050000001,-11.094019999999999,-5.46308,-6.37868,70.0
1774822701.1647682,0.0038759708404541016,2026-03-29T22:18:21.164,2026-03-29T18:18:21.164,-33629.354999999996,-46443.6,-85181.22,-50262.345,-12821.13,-18097.92,6395.3099999999995,-35535.645,14.669791534692518,3.8748941682942206,-4.085150245878196,-6.884780224855868,-7.184029504187472,-6.798874921476949,-6.896086972213723,4.837249408109809,0.201964815,-0.128112465,0.97594965,-3.17408,-8.042019999999999,-5.46308,70.0
1774822701.1647878,1.9550323486328125e-05,2026-03-29T22:18:21.164,2026-03-29T18:18:21.164,-33634.034999999996,-46422.134999999995,-85145.58,-50228.82,-12782.519999999999,-18054.405,6459.255,-35533.935,15.80063835032165,5.938926210998147,1.4204994735743162,0.23377718852431928,2.128090975309019,5.081690460419526,-2.3275807413457623,8.369717615675723,0.201964815,-0.128112465,0.97594965,-3.17408,-8.042019999999999,-5.46308,70.0
1774822701.176649,0.011861324310302734,2026-03-29T22:18:21.176,2026-03-29T18:18:21.176,-33603.93,-46407.689999999995,-85134.78,-50221.305,-12773.295,-18036.675,6526.844999999999,-35510.805,9.804219936166142,5.139552065326432,5.934032206803987,6.910530112183887,10.022055040583245,14.149928640892092,3.6377809064194104,8.153963455916236,0.201964815,-0.128112465,0.97594965,-3.17408,-8.042019999999999,-5.46308,70.0
1774822701.1766715,2.2411346435546875e-05,2026-03-29T22:18:21.176,2026-03-29T18:18:21.176,-33653.43,-46418.58,-85110.525,-50182.965,-12734.145,-18003.195,6523.335,-35524.305,-0.6652370752716769,1.797848618270369,7.295992102432629,9.967939518826626,12.737368045806782,16.088265493011182,8.272350209221532,4.213473674146595,0.201964815,-0.128112465,0.97594965,-3.17408,-8.042019999999999,-5.46308,70.0
1774822701.1766949,2.3365020751953125e-05,2026-03-29T22:18:21.176,2026-03-29T18:18:21.176,-33742.53,-46441.665,-85096.665,-50155.83,-12704.715,-17978.94,6499.259999999999,-35572.77,-10.886287558757905,-2.501260510570859,4.999890466915204,8.109228679986845,9.178316389632265,10.175234543864141,9.316345771376874,-1.7054994826485639,0.201964815,-0.128112465,0.97594965,-3.17408,-8.042019999999999,-5.46308,70.0
1774822701.1767051,1.0251998901367188e-05,2026-03-29T22:18:21.176,2026-03-29T18:18:21.176,-33746.67,-46456.515,-85129.33499999999,-50195.295,-12750.615,-18033.21,6493.455,-35580.735,-16.228877418361396,-5.668675115865285,0.37720875434287354,2.478560063556979,1.3612410573256468,-0.45053859869029667,6.086723559107729,-6.919965447800621,0.201964815,-0.128112465,0.97594965,-3.17408,-8.042019999999999,-5.46308,70.0
1774822701.1767163,1.1205673217773438e-05,2026-03-29T22:18:21.176,2026-03-29T18:18:21.176,-33708.69,-46441.665,-85127.84999999999,-50195.205,-12752.64,-18041.355,6503.264999999999,-35565.119999999995,-14.28059401656175,-6.134754553363891,-4.143773131602879,-3.9987454250252608,-6.691664522241166,-10.437017462067725,-0.11514771741710185,-9.043585529992775,0.201964815,-0.128112465,0.97594965,-3.17408,-8.042019999999999,-5.46308,70.0
1774822701.1767259,9.5367431640625e-06,2026-03-29T22:18:21.176,2026-03-29T18:18:21.176,-33669.63,-46424.115,-85120.73999999999,-50191.56,-12747.555,-18028.17,6503.67,-35547.975,-5.950093418856098,-3.631263037531725,-6.303221259276712,-8.130115756815666,-11.018066691381625,-14.91943915244471,-6.529022022129294,-7.092346938732249,0.201964815,-0.128112465,0.97594965,-3.17408,-8.042019999999999,-5.46308,70.0
1774822701.1807585,0.004032611846923828,2026-03-29T22:18:21.180,2026-03-29T18:18:21.180,-33640.02,-46402.02,-85105.89,-50184.45,-12743.82,-18018.09,6499.98,-35534.07,4.964182421797802,0.6602209726698921,-5.143034017498748,-8.041967138301208,-9.680764641009809,-11.909617596700272,-10.181913023634648,-1.943788140567981,0.201964815,-0.128112465,0.97594965,-3.17408,-8.042019999999999,-5.46308,70.0
1774822701.1807792,2.0742416381835938e-05,2026-03-29T22:18:21.180,2026-03-29T18:18:21.180,-33629.715,-46399.409999999996,-85103.415,-50183.189999999995,-12736.935,-17995.95,6483.78,-35525.52,13.532185909372574,4.673829688650072,-1.4375051208345722,-4.043908701299558,-3.650410184593043,-3.1914659384650568,-9.283728600756628,4.066202695111435,0.201964815,-0.128112465,0.97594965,-3.17408,-8.042019999999999,-5.46308,70.0
1774822701.1897273,0.008948087692260742,2026-03-29T22:18:21.189,2026-03-29T18:18:21.189,-33636.51,-46399.365,-85101.12,-50177.61,-12723.435,-17979.84,6466.95,-35523.36,15.95119681001953,6.464685600392258,2.775181632163237,1.6351259301440701,3.8042986258918323,6.687404076400068,-4.10865755833173,8.219819311769491,0.200744115,-0.130431795,0.9746068800000001,2.1669199999999997,-8.5456,-5.60042,70.0
1774822701.1897483,2.09808349609375e-05,2026-03-29T22:18:21.189,2026-03-29T18:18:21.189,-33677.235,-46423.619999999995,-85101.56999999999,-50158.125,-12691.26,-17948.204999999998,6501.735,-35540.145,11.254975831191635,5.159638040928387,5.2917507398855985,6.061985998663811,8.862471459489894,12.774682123507297,3.074241109264411,8.663187405881065,0.200744115,-0.130431795,0.9746068800000001,2.1669199999999997,-8.5456,-5.60042,70.0
1774822701.1897736,2.5272369384765625e-05,2026-03-29T22:18:21.189,2026-03-29T18:18:21.189,-33679.619999999995,-46460.61,-85162.31999999999,-50226.884999999995,-12768.525,-18031.545,6487.11,-35534.7,1.6942326522944617,1.3844976817567731,4.888065236378048,7.112867130593504,9.10972659998567,12.203833666440989,9.01291014478872,5.242606925696165,0.200744115,-0.130431795,0.9746068800000001,2.1669199999999997,-8.5456,-5.60042,70.0
1774822701.189782,8.344650268554688e-06,2026-03-29T22:18:21.189,2026-03-29T18:18:21.189,-33653.07,-46447.965,-85174.69499999999,-50261.895,-12820.23,-18086.445,6464.61,-35523.81,-8.358543686394517,-3.042416092574612,1.9167688275853063,4.503905579141171,4.704710715887519,5.559698557459488,10.967202900362023,-0.45022458594691167,0.200744115,-0.130431795,0.9746068800000001,2.1669199999999997,-8.5456,-5.60042,70.0
1774822701.192746,0.002964019775390625,2026-03-29T22:18:21.192,2026-03-29T18:18:21.192,-33676.065,-46435.005,-85136.12999999999,-50212.17,-12766.635,-18031.005,6485.535,-35531.28,-14.43960110469379,-5.997671046898959,-1.9349182528966389,-0.1671869398626546,-1.8169098055880286,-3.538574418217586,7.988831845654576,-5.831833446214694,0.200744115,-0.130431795,0.9746068800000001,2.1669199999999997,-8.5456,-5.60042,70.0
1774822701.1927617,1.5735626220703125e-05,2026-03-29T22:18:21.192,2026-03-29T18:18:21.192,-33701.13,-46439.055,-85118.31,-50183.955,-12734.145,-18000.18,6498.63,-35542.034999999996,-14.002052097745594,-6.082583850502342,-4.576906340873043,-4.347605359526577,-6.954540455123307,-10.376278844447707,1.380852934180271,-8.516709951612379,0.200744115,-0.130431795,0.9746068800000001,2.1669199999999997,-8.5456,-5.60042,70.0
1774822701.1993415,0.006579875946044922,2026-03-29T22:18:21.199,2026-03-29T18:18:21.199,-33681.51,-46435.095,-85128.3,-50200.695,-12756.465,-18028.125,6488.46,-35535.06,-7.48518481159964,-3.2904709858356336,-4.6318456109516175,-5.904059578431553,-8.100996575124796,-11.576667918260632,-5.886177113634922,-7.387128532161523,0.200744115,-0.130431795,0.9746068800000001,2.1669199999999997,-8.5456,-5.60042,70.0
1774822701.1993597,1.811981201171875e-05,2026-03-29T22:18:21.199,2026-03-29T18:18:21.199,-33668.595,-46434.555,-85130.91,-50202.54,-12754.98,-18024.12,6489.36,-35524.125,2.0054793806522526,1.0099468824539573,-2.1451192307666727,-4.212184319235616,-4.86764804160691,-6.776171596153061,-10.533179911708855,-3.057361404465276,0.200744115,-0.130431795,0.9746068800000001,2.1669199999999997,-8.5456,-5.60042,70.0
1774822701.1993833,2.3603439331054688e-05,2026-03-29T22:18:21.199,2026-03-29T18:18:21.199,-33686.82,-46435.634999999995,-85113.72,-50172.525,-12720.914999999999,-17993.43,6496.38,-35526.33,10.20118963306899,4.756134895857261,1.4744804850413984,-0.4031043131000695,0.7987808343259757,1.2934306702035763,-10.473719586988274,2.459734718385513,0.200744115,-0.130431795,0.9746068800000001,2.1669199999999997,-8.5456,-5.60042,70.0
1774822701.199393,9.775161743164062e-06,2026-03-29T22:18:21.199,2026-03-29T18:18:21.199,-33665.985,-46418.985,-85095.18,-50155.83,-12710.43,-17991.675,6484.86,-35516.385,13.617846943109374,6.194185016615808,4.235430877923224,3.3283189279528225,5.733556326348186,8.31454527193809,-5.7597432561427615,6.7031664847248775,0.200744115,-0.130431795,0.9746068800000001,2.1669199999999997,-8.5456,-5.60042,70.0
1774822701.204782,0.005388975143432617,2026-03-29T22:18:21.204,2026-03-29T18:18:21.204,-33638.94,-46403.549999999996,-85096.845,-50166.494999999995,-12729.779999999999,-18015.165,6471.54,-35503.02,11.046044612696234,4.70847092374107,4.638934088694332,4.950753632817776,7.282651112200268,10.666527528965908,1.461216170258712,7.8756780932791814,0.20471139,-0.12438933,0.96593991,0.44254,-7.996239999999999,-4.83742,70.0
1774822701.2048004,1.8358230590820312e-05,2026-03-29T22:18:21.204,2026-03-29T18:18:21.204,-33652.305,-46401.84,-85076.64,-50133.78,-12690.63,-17969.985,6481.035,-35506.305,3.9411872165218824,1.081534348710751,2.4749213172890787,3.6856763354869444,4.712016460856895,7.284262207032295,7.94545354114446,5.607949872146434,0.20471139,-0.12438933,0.96593991,0.44254,-7.996239999999999,-4.83742,70.0
1774822701.208675,0.003874540328979492,2026-03-29T22:18:21.208,2026-03-29T18:18:21.208,-33652.44,-46406.43,-85089.645,-50145.479999999996,-12700.395,-17970.75,6486.4349999999995,-35504.46,-4.388417266469407,-2.9237975196795074,-1.0786806484769051,0.3796846924522758,-0.44495395739237076,0.14109227258232915,10.834171308011616,1.0488584231350542,0.20471139,-0.12438933,0.96593991,0.44254,-7.996239999999999,-4.83742,70.0
1774822701.208694,1.9073486328125e-05,2026-03-29T22:18:21.208,2026-03-29T18:18:21.208,-33674.31,-46421.1,-85115.295,-50179.545,-12739.59,-18016.38,6470.73,-35514.494999999995,-10.347102405690604,-5.4349758333845815,-4.096565416250854,-3.018296723399825,-5.266445814414152,-6.862960068007046,8.928478994916706,-3.721721451553238,0.20471139,-0.12438933,0.96593991,0.44254,-7.996239999999999,-4.83742,70.0
1774822701.2174032,0.008709192276000977,2026-03-29T22:18:21.217,2026-03-29T18:18:21.217,-33700.725,-46444.365,-85142.565,-50206.68,-12757.68,-18037.17,6476.219999999999,-35527.455,-11.617917251550367,-5.356591585932995,-4.938453306635495,-4.566586255583661,-7.05635232418976,-9.994946069805389,3.1825816773885585,-6.6551612611933795,0.20471139,-0.12438933,0.96593991,0.44254,-7.996239999999999,-4.83742,70.0
1774822701.2174437,4.0531158447265625e-05,2026-03-29T22:18:21.217,2026-03-29T18:18:21.217,-33727.185,-46482.075,-85189.455,-50265.674999999996,-12801.734999999999,-18072.225,6472.844999999999,-35532.765,-8.03955373271131,-2.847548072941462,-3.1229032394273077,-3.4088720065443634,-4.816148840430858,-7.65301039471701,-3.7851332978140393,-6.619760903163709,0.20471139,-0.12438933,0.96593991,0.44254,-7.996239999999999,-4.83742,70.0
1774822701.217466,2.2411346435546875e-05,2026-03-29T22:18:21.217,2026-03-29T18:18:21.217,-33708.555,-46467.674999999996,-85180.77,-50274.36,-12811.32,-18078.75,6441.255,-35527.5,-1.4757018361300944,0.8193875028984214,0.41759226934184995,-0.23248450520015526,0.21699328920229416,-1.1760223319096907,-8.90813455346104,-3.824072672003626,0.20471139,-0.12438933,0.96593991,0.44254,-7.996239999999999,-4.83742,70.0
1774822701.2174747,8.58306884765625e-06,2026-03-29T22:18:21.217,2026-03-29T18:18:21.217,-33697.125,-46454.22,-85164.75,-50266.485,-12817.664999999999,-18090.585,6417.719999999999,-35527.095,5.162429704622851,3.914657383355422,3.829269140093742,3.1339360056828705,5.249880837191392,5.907042823935539,-10.039370039382272,0.372631914148196,0.20471139,-0.12438933,0.96593991,0.44254,-7.996239999999999,-4.83742,70.0
1774822701.2233057,0.005831003189086914,2026-03-29T22:18:21.223,2026-03-29T18:18:21.223,-33677.145,-46429.604999999996,-85119.84,-50203.395,-12755.835,-18024.66,6461.82,-35515.979999999996,9.224518491731537,5.081580077076316,5.312142287775991,4.751161381458206,7.459201132776351,9.772676295465748,-6.851799853550931,4.12917730708454,0.20471139,-0.12438933,0.96593991,0.44254,-7.996239999999999,-4.83742,70.0
1774822701.223327,2.1219253540039062e-05,2026-03-29T22:18:21.223,2026-03-29T18:18:21.223,-33644.295,-46407.015,-85101.345,-50175.945,-12720.824999999999,-17985.87,6502.005,-35494.695,9.36310835247787,3.933610604386178,4.0623029539571505,3.6555801315846623,5.538675582939117,8.334524346019935,-0.8941323627411777,5.937697546294146,0.20471139,-0.12438933,0.96593991,0.44254,-7.996239999999999,-4.83742,70.0
1774822701.2233467,1.9788742065429688e-05,2026-03-29T22:18:21.223,2026-03-29T18:18:21.223,-33632.28,-46408.005,-85115.47499999999,-50196.825,-12746.16,-18016.965,6525.2699999999995,-35479.17,5.908002770173108,1.1543704374282464,0.6898285011105101,0.40269791004850136,0.43200497366270957,2.3425302846265716,5.176702630331726,5.220522015273905,0.21374457,-0.11889618,0.95495361,-2.4263399999999997,-8.36248,-5.4173,70.0
1774822701.2233565,9.775161743164062e-06,2026-03-29T22:18:21.223,2026-03-29T18:18:21.223,-33655.994999999995,-46423.71,-85123.34999999999,-50204.43,-12758.22,-18031.59,6522.884999999999,-35488.485,0.5180670701763607,-1.905530797063486,-3.0994062575717116,-3.229481665562681,-5.147345134143432,-5.020437729458752,8.799320811105531,2.4772622742848394,0.21374457,-0.11889618,0.95495361,-2.4263399999999997,-8.36248,-5.4173,70.0
1774822701.2289042,0.005547761917114258,2026-03-29T22:18:21.228,2026-03-29T18:18:21.228,-33676.244999999995,-46425.645,-85117.5,-50193.54,-12746.97,-18022.184999999998,6514.514999999999,-35502.255,-4.62978673837741,-3.899780311784509,-5.384225493572289,-5.213789693612498,-8.158718996931261,-9.82321894098615,8.593419462954078,-1.0290959246104856,0.21374457,-0.11889618,0.95495361,-2.4263399999999997,-8.36248,-5.4173,70.0
1774822701.2289226,1.8358230590820312e-05,2026-03-29T22:18:21.228,2026-03-29T18:18:21.228,-33678.63,-46424.744999999995,-85123.62,-50201.82,-12756.195,-18034.605,6492.509999999999,-35506.305,-7.710465682724751,-4.085130123248533,-5.009130929982931,-4.391068757399086,-6.871934666881561,-9.46241604997737,4.864914984844983,-3.860212245416912,0.21374457,-0.11889618,0.95495361,-2.4263399999999997,-8.36248,-5.4173,70.0
1774822701.2326798,0.0037572383880615234,2026-03-29T22:18:21.232,2026-03-29T18:18:21.232,-33666.885,-46404.0,-85094.955,-50170.68,-12722.4,-17994.285,6496.785,-35500.994999999995,-7.836136307773842,-2.577500051787712,-2.16110407156213,-1.1203537881667625,-1.8245403081440963,-4.041007619346327,-0.6414844545348408,-4.9873202782964805,0.21374457,-0.11889618,0.95495361,-2.4263399999999997,-8.36248,-5.4173,70.0
1774822701.2326968,1.6927719116210938e-05,2026-03-29T22:18:21.232,2026-03-29T18:18:21.232,-33653.744999999995,-46390.229999999996,-85081.68,-50154.884999999995,-12705.39,-17975.745,6516.36,-35491.77,-5.208185123745252,-0.18985325294510402,1.7436820626624945,2.8943795046784246,4.419139365283778,3.669620935302736,-5.573777636102335,-4.137990374322386,0.21374457,-0.11889618,0.95495361,-2.4263399999999997,-8.36248,-5.4173,70.0
1774822701.2371328,0.004436016082763672,2026-03-29T22:18:21.237,2026-03-29T18:18:21.237,-33652.44,-46398.375,-85093.65,-50165.685,-12716.73,-17993.565,6512.759999999999,-35486.505,-0.8919275436097798,2.0151817976791584,4.789041434528219,5.510022492951896,8.590998725174392,9.662115976207964,-7.984950662789017,-1.804733714508558,0.21374457,-0.11889618,0.95495361,-2.4263399999999997,-8.36248,-5.4173,70.0
1774822701.2371511,1.8358230590820312e-05,2026-03-29T22:18:21.237,2026-03-29T18:18:21.237,-33660.9,-46415.07,-85112.86499999999,-50184.134999999995,-12736.619999999999,-18016.515,6497.099999999999,-35481.465,3.613156151020712,3.2088049560065484,5.518346691939594,5.2947822693372535,8.433642071210654,10.773216084452574,-7.08678227424636,1.0319413579988452,0.21374457,-0.11889618,0.95495361,-2.4263399999999997,-8.36248,-5.4173,70.0
1774822701.244311,0.0071599483489990234,2026-03-29T22:18:21.244,2026-03-29T18:18:21.244,-33686.415,-46451.43,-85150.08,-50218.244999999995,-12768.93,-18048.78,6496.83,-35481.645,6.834341294798086,3.089921080104171,3.635295138724655,2.3032373341264325,3.904959849695875,6.331869485875932,-3.4622440788108837,3.3129501153339773,0.21374457,-0.11889618,0.95495361,-2.4263399999999997,-8.36248,-5.4173,70.0
1774822701.2443328,2.1696090698242188e-05,2026-03-29T22:18:21.244,2026-03-29T18:18:21.244,-33682.86,-46456.02,-85163.12999999999,-50237.505,-12790.935,-18071.325,6490.485,-35476.65,7.714308967284472,1.8954789114070956,0.10619848934443334,-1.941055654240542,-2.7645725787324325,-1.4761813356805387,1.289330403075107,4.272794897992265,0.21374457,-0.11889618,0.95495361,-2.4263399999999997,-8.36248,-5.4173,70.0
1774822701.2467964,0.0024635791778564453,2026-03-29T22:18:21.246,2026-03-29T18:18:21.246,-33682.185,-46446.975,-85151.87999999999,-50228.189999999995,-12779.46,-18058.094999999998,6493.634999999999,-35475.93,5.889623630123194,0.18881088427373885,-3.3602354136878887,-5.245671338532249,-8.199592624953516,-8.713173932608779,5.266293189287223,3.657879192445816,0.225768465,-0.11755341,0.95251221,1.0682,-9.3849,-10.78882,70.0
1774822701.2468107,1.430511474609375e-05,2026-03-29T22:18:21.246,2026-03-29T18:18:21.246,-33662.52,-46426.814999999995,-85135.095,-50213.205,-12768.39,-18050.579999999998,6495.389999999999,-35470.485,1.8345412880202254,-1.4197158012680577,-5.16707675454642,-5.903129965718188,-9.610609693573936,-11.69306952103908,7.015169174497168,1.7548768531734213,0.225768465,-0.11755341,0.95251221,1.0682,-9.3849,-10.78882,70.0
1774822701.2546065,0.007795810699462891,2026-03-29T22:18:21.254,2026-03-29T18:18:21.254,-33649.965,-46420.2,-85133.43,-50209.515,-12770.279999999999,-18060.57,6484.995,-35467.2,-3.182114088997823,-2.474946977595753,-4.57876045669499,-3.5831392023299946,-6.231132330697536,-8.85690555326995,6.027843373700435,-0.7413184022282082,0.225768465,-0.11755341,0.95251221,1.0682,-9.3849,-10.78882,70.0
1774822701.2546256,1.9073486328125e-05,2026-03-29T22:18:21.254,2026-03-29T18:18:21.254,-33644.88,-46428.075,-85148.415,-50225.174999999996,-12784.949999999999,-18069.3,6470.73,-35459.189999999995,-7.391407954631803,-2.7445269326431916,-2.007469400203482,0.507243792421542,0.28197107105352953,-1.5655468993859118,2.836692557042092,-2.9595279698631187,0.225768465,-0.11755341,0.95251221,1.0682,-9.3849,-10.78882,70.0
1774822701.2546425,1.6927719116210938e-05,2026-03-29T22:18:21.254,2026-03-29T18:18:21.254,-33661.755,-46417.86,-85113.62999999999,-50176.305,-12729.779999999999,-18010.215,6487.11,-35459.729999999996,-9.076280457038346,-2.191854176638973,1.2675732968478401,4.271353238617624,6.688826623752816,6.585252560560867,-1.2698253478386237,-4.120378485608976,0.225768465,-0.11755341,0.95251221,1.0682,-9.3849,-10.78882,70.0
1774822701.2546484,5.9604644775390625e-06,2026-03-29T22:18:21.254,2026-03-29T18:18:21.254,-33713.955,-46429.02,-85097.655,-50150.115,-12699.765,-17977.184999999998,6496.469999999999,-35484.39,-7.256111595522063,-0.9376455229145904,3.764103274806366,5.82440925940452,9.81022998365305,11.56950753089232,-4.760054372179282,-3.781735171952165,0.225768465,-0.11755341,0.95251221,1.0682,-9.3849,-10.78882,70.0
1774822701.256695,0.0020465850830078125,2026-03-29T22:18:21.256,2026-03-29T18:18:21.256,-33687.09,-46427.265,-85122.09,-50189.805,-12739.14,-18010.98,6487.335,-35477.235,-2.24082686385154,0.7392192678622682,4.4887764346733,4.460202232843926,8.12779029997236,10.93649903175249,-6.400832837057911,-2.0028017059141363,0.225768465,-0.11755341,0.95251221,1.0682,-9.3849,-10.78882,70.0
1774822701.256712,1.6927719116210938e-05,2026-03-29T22:18:21.256,2026-03-29T18:18:21.256,-33668.505,-46419.615,-85121.45999999999,-50195.79,-12735.449999999999,-17997.57,6489.179999999999,-35465.354999999996,4.251753106867593,2.385859110021168,3.324186777550336,0.977941202755231,2.525701974575569,5.010629981955547,-5.654712763442012,0.6312077355413216,0.225768465,-0.11755341,0.95251221,1.0682,-9.3849,-10.78882,70.0
1774822701.261076,0.004364013671875,2026-03-29T22:18:21.261,2026-03-29T18:18:21.261,-33673.14,-46426.365,-85129.155,-50205.195,-12751.244999999999,-18013.005,6495.075,-35462.97,9.598390842323719,3.422476173329654,0.965090751935001,-2.784791602137548,-4.189802471138584,-3.3000198049049767,-2.829349401584972,3.1626216603022352,0.225768465,-0.11755341,0.95251221,1.0682,-9.3849,-10.78882,70.0
1774822701.261098,2.193450927734375e-05,2026-03-29T22:18:21.261,2026-03-29T18:18:21.261,-33667.38,-46426.545,-85134.33,-50209.244999999995,-12759.255,-18025.2,6483.6449999999995,-35458.92,11.303749227730444,3.31298590930466,-1.5030192700311036,-4.942141110893243,-8.727052161668675,-9.96604471256213,1.0446753396082005,4.580373051013982,0.225768465,-0.11755341,0.95251221,1.0682,-9.3849,-10.78882,70.0
1774822701.2649364,0.0038385391235351562,2026-03-29T22:18:21.264,2026-03-29T18:18:21.264,-33657.525,-46418.939999999995,-85126.00499999999,-50195.475,-12743.865,-18013.77,6479.91,-35452.305,8.173373398868883,1.8322779857740614,-3.1281974734581466,-4.533053813410117,-8.954060102831141,-11.820171639753756,4.561899717179636,4.2169154864816,0.23876892,-0.11468476500000001,0.95690673,2.07536,-9.430679999999999,-12.34534,70.0
1774822701.2649555,1.9073486328125e-05,2026-03-29T22:18:21.264,2026-03-29T18:18:21.264,-33646.229999999996,-46410.884999999995,-85117.86,-50187.915,-12742.154999999999,-18018.719999999998,6473.88,-35444.205,1.0713465445439714,-0.6995945247779531,-3.4551151550631,-1.9645442642905113,-4.916971231384609,-8.072848965921121,6.416062624116999,2.071468307697115,0.23876892,-0.11468476500000001,0.95690673,2.07536,-9.430679999999999,-12.34534,70.0
1774822701.2691865,0.004230976104736328,2026-03-29T22:18:21.269,2026-03-29T18:18:21.269,-33637.095,-46406.07,-85111.29,-50179.455,-12731.76,-18007.245,6470.37,-35431.92,-7.192082171047571,-3.3872094323342887,-2.5910093940163375,1.2862125465452614,1.2617670054411532,-0.6302519357208994,5.86274704869018,-1.1006362370945229,0.23876892,-0.11468476500000001,0.95690673,2.07536,-9.430679999999999,-12.34534,70.0
1774822701.2692168,3.0279159545898438e-05,2026-03-29T22:18:21.269,2026-03-29T18:18:21.269,-33658.11,-46407.24,-85095.315,-50152.455,-12700.035,-17975.52,6472.98,-35437.905,-12.93376336613576,-5.035920570588391,-1.0160177645955992,3.517114274147019,6.515328571141447,6.902556814107459,3.0202559285111708,-4.020546607431783,0.23876892,-0.11468476500000001,0.95690673,2.07536,-9.430679999999999,-12.34534,70.0
1774822701.2731972,0.003980398178100586,2026-03-29T22:18:21.273,2026-03-29T18:18:21.273,-33669.81,-46412.82,-85101.12,-50156.909999999996,-12705.074999999999,-17981.55,6484.275,-35446.365,-13.24505086834611,-4.6763373486114475,0.6989130378237444,3.713372170465865,8.385488223977545,11.001888464474076,-1.1141060025671965,-5.391065066468574,0.23876892,-0.11468476500000001,0.95690673,2.07536,-9.430679999999999,-12.34534,70.0
1774822701.2732186,2.1457672119140625e-05,2026-03-29T22:18:21.273,2026-03-29T18:18:21.273,-33663.24,-46434.104999999996,-85140.045,-50205.42,-12758.895,-18040.094999999998,6457.86,-35440.244999999995,-7.473976240233145,-2.109999709158574,2.097763199839873,2.0310456966640738,6.198184353049822,9.895895060180807,-4.976767251405571,-4.4810956497860985,0.23876892,-0.11468476500000001,0.95690673,2.07536,-9.430679999999999,-12.34534,70.0
1774822701.2848372,0.011618614196777344,2026-03-29T22:18:21.284,2026-03-29T18:18:21.284,-33668.1,-46438.65,-85142.925,-50211.945,-12768.3,-18053.19,6426.134999999999,-35438.13,2.2169275847987393,1.8232552824793686,2.895301559652095,-0.3878901101952721,1.288955662582355,4.324152825401474,-7.005789667935877,-1.5222657557267858,0.23876892,-0.11468476500000001,0.95690673,2.07536,-9.430679999999999,-12.34534,70.0
1774822701.2848563,1.9073486328125e-05,2026-03-29T22:18:21.284,2026-03-29T18:18:21.284,-33675.03,-46437.03,-85150.08,-50227.29,-12786.525,-18066.6,6439.86,-35439.21,11.605552582095678,5.4661777977007375,2.930724079462236,-2.1301485622345626,-3.7854101991827975,-2.9346838722009507,-6.2716134778016235,2.2993930473951085,0.23876892,-0.11468476500000001,0.95690673,2.07536,-9.430679999999999,-12.34534,70.0
1774822701.284874,1.7642974853515625e-05,2026-03-29T22:18:21.284,2026-03-29T18:18:21.284,-33680.115,-46438.965,-85159.75499999999,-50240.475,-12802.365,-18079.469999999998,6481.485,-35440.875,16.24904990719502,7.033290057725058,2.1299575249943903,-2.328269328033505,-6.594078946721036,-8.475605026846383,-2.916389182048281,5.304536092252726,0.23876892,-0.11468476500000001,0.95690673,2.07536,-9.430679999999999,-12.34534,70.0
1774822701.28488,5.9604644775390625e-06,2026-03-29T22:18:21.284,2026-03-29T18:18:21.284,-33713.145,-46448.415,-85130.37,-50192.189999999995,-12749.22,-18026.325,6538.32,-35447.625,13.606497305677488,5.48673620268356,0.5538085647815635,-1.1130039638273013,-6.023162957136182,-9.891643994050824,1.8119923838529353,6.06368623473642,0.23876892,-0.11468476500000001,0.95690673,2.07536,-9.430679999999999,-12.34534,70.0
1774822701.2848916,1.1682510375976562e-05,2026-03-29T22:18:21.284,2026-03-29T18:18:21.284,-33693.03,-46442.7,-85138.02,-50199.57,-12754.305,-18033.57,6537.33,-35437.409999999996,4.42150012912278,1.1677329076947043,-1.4920055336447005,0.5419165785039985,-2.716551392686106,-6.8239639676001165,5.997727193155019,4.0911816863805575,0.23852478,-0.10931368500000001,0.968564415,1.9838,-6.59232,-14.6496,70.0
1774822701.284897,5.4836273193359375e-06,2026-03-29T22:18:21.284,2026-03-29T18:18:21.284,-33682.14,-46434.509999999995,-85138.785,-50199.884999999995,-12748.005,-18023.715,6511.23,-35433.09,-7.384497371223336,-4.183635973518855,-3.3999149107568525,1.4686697416809038,1.4060913876083905,-0.9790840198793537,7.8291322982362175,0.14673551456727574,0.23852478,-0.10931368500000001,0.968564415,1.9838,-6.59232,-14.6496,70.0
1774822701.288682,0.0037848949432373047,2026-03-29T22:18:21.288,2026-03-29T18:18:21.288,-33680.43,-46434.96,-85140.045,-50206.095,-12745.89,-18014.355,6498.045,-35430.345,-16.377987949633734,-8.115660545372776,-4.37853761303005,1.0494989549662586,4.239597094494664,4.818324645611139,6.396056113824979,-4.037952428891611,0.23852478,-0.10931368500000001,0.968564415,1.9838,-6.59232,-14.6496,70.0
1774822701.288705,2.3126602172851562e-05,2026-03-29T22:18:21.288,2026-03-29T18:18:21.288,-33680.565,-46435.365,-85144.31999999999,-50224.365,-12763.439999999999,-18031.68,6487.11,-35434.485,-18.13578098086289,-8.5958997158727,-3.770843284092832,-0.39259766075130925,4.58218840695691,8.013331549586663,2.1549862384950584,-6.521248641279648,0.23852478,-0.10931368500000001,0.968564415,1.9838,-6.59232,-14.6496,70.0
1774822701.2928393,0.004134178161621094,2026-03-29T22:18:21.292,2026-03-29T18:18:21.292,-33659.505,-46428.03,-85144.77,-50224.229999999996,-12763.439999999999,-18026.37,6505.83,-35426.295,-11.442348004598017,-5.059714955008095,-1.4495116947251,-1.79404458440057,2.655389499666072,7.458693067257292,-3.1808672012930925,-6.0662264832333594,0.23852478,-0.10931368500000001,0.968564415,1.9838,-6.59232,-14.6496,70.0
1774822701.2928555,1.621246337890625e-05,2026-03-29T22:18:21.292,2026-03-29T18:18:21.292,-33660.405,-46424.205,-85129.83,-50207.265,-12753.27,-18023.399999999998,6490.755,-35427.78,0.9399511621731079,1.165166275738613,1.9366391763080752,-2.0278258686423354,-0.1734745447856539,3.792241393250315,-7.325696016436738,-2.7704782695705505,0.23852478,-0.10931368500000001,0.968564415,1.9838,-6.59232,-14.6496,70.0
1774822701.2997093,0.006853818893432617,2026-03-29T22:18:21.299,2026-03-29T18:18:21.299,-33658.065,-46419.93,-85121.19,-50196.78,-12744.539999999999,-18019.44,6468.884999999999,-35432.28,13.392620705911574,7.334575147813817,5.068325851313451,-0.6547927048242145,-2.2541483965059146,-1.046905820880278,-8.410526838426378,1.9154092230933721,0.23852478,-0.10931368500000001,0.968564415,1.9838,-6.59232,-14.6496,70.0
1774822701.2997265,1.71661376953125e-05,2026-03-29T22:18:21.299,2026-03-29T18:18:21.299,-33626.25,-46403.775,-85124.52,-50207.04,-12758.58,-18036.945,6462.495,-35420.625,20.01021123254875,10.507532841570118,6.455934456186086,1.7114530805430108,-2.588714151902017,-4.844445663247293,-5.844343107845348,5.824662290576515,0.23852478,-0.10931368500000001,0.968564415,1.9838,-6.59232,-14.6496,70.0
1774822701.3023305,0.0026040077209472656,2026-03-29T22:18:21.302,2026-03-29T18:18:21.302,-33619.095,-46394.189999999995,-85115.87999999999,-50197.365,-12749.49,-18030.69,6482.5199999999995,-35413.74,17.432468670435412,8.962300334483489,5.152137813868701,3.674660806247782,-1.3199729323346179,-6.137117309832882,-0.6413756716544419,7.0879182057144074,0.23852478,-0.10931368500000001,0.968564415,1.9838,-6.59232,-14.6496,70.0
1774822701.3023467,1.621246337890625e-05,2026-03-29T22:18:21.302,2026-03-29T18:18:21.302,-33655.77,-46417.32,-85119.75,-50189.22,-12734.82,-18013.005,6496.74,-35421.615,6.565768241368645,3.119345224028758,1.3325494069495816,3.842824872704283,0.46860407231428,-4.759390521092605,4.967769876615408,5.043773727660826,0.23852478,-0.10931368500000001,0.968564415,1.9838,-6.59232,-14.6496,70.0
1774822701.3079207,0.00557398796081543,2026-03-29T22:18:21.307,2026-03-29T18:18:21.307,-33672.96,-46439.009999999995,-85144.59,-50212.215,-12756.195,-18031.05,6508.575,-35418.24,-7.695383481827345,-4.520714317257351,-3.593656428549608,1.698891895127292,1.4853662643668029,-1.7186331098430667,8.498691548335739,0.5949637830857037,0.24475035,-0.10302708000000001,0.9819310800000001,-8.51508,-0.13734,-18.32726,70.0
1774822701.307942,2.1219253540039062e-05,2026-03-29T22:18:21.307,2026-03-29T18:18:21.307,-33696.54,-46453.68,-85154.58,-50223.689999999995,-12766.994999999999,-18034.739999999998,6511.5,-35425.08,-18.688748168261455,-10.45681132165874,-7.483203008869333,-1.9570865458888966,1.0455772829605112,1.4467661965838112,8.330584682797129,-4.185370573253854,0.24475035,-0.10302708000000001,0.9819310800000001,-8.51508,-0.13734,-18.32726,70.0
1774822701.307963,2.09808349609375e-05,2026-03-29T22:18:21.307,2026-03-29T18:18:21.307,-33723.585,-46447.424999999996,-85127.12999999999,-50194.215,-12740.85,-18017.19,6511.995,-35441.189999999995,-21.131938317679058,-11.813739377037699,-8.402952696203164,-5.294623656345813,-0.5116982752292167,3.4446810260024194,4.4673526437178115,-7.028452151319371,0.24475035,-0.10302708000000001,0.9819310800000001,-8.51508,-0.13734,-18.32726,70.0
1774822701.3079746,1.1682510375976562e-05,2026-03-29T22:18:21.307,2026-03-29T18:18:21.307,-33706.215,-46438.155,-85126.275,-50196.104999999996,-12745.08,-18028.575,6503.49,-35438.895,-13.692941657226497,-7.748315825314663,-5.59596019469258,-6.371468556869442,-2.043955061350384,3.7510334685869218,-1.4228498962951495,-6.563121273244511,0.24475035,-0.10302708000000001,0.9819310800000001,-8.51508,-0.13734,-18.32726,70.0
1774822701.3138356,0.005861043930053711,2026-03-29T22:18:21.313,2026-03-29T18:18:21.313,-33689.159999999996,-46435.545,-85131.09,-50201.729999999996,-12751.92,-18039.375,6474.96,-35433.135,0.2830529991318188,0.05985360932654806,0.017867390939634263,-4.2200794968419535,-2.328492452764658,2.6711592221929346,-6.7302218671818785,-2.9928435822404666,0.24475035,-0.10302708000000001,0.9819310800000001,-8.51508,-0.13734,-18.32726,70.0
1774822701.3138592,2.3603439331054688e-05,2026-03-29T22:18:21.313,2026-03-29T18:18:21.313,-33674.625,-46426.14,-85127.22,-50195.43,-12741.93,-18026.415,6461.73,-35430.75,14.28787376378499,8.108979458978322,6.109371396931261,0.49281497092477333,-0.8606240791174028,0.9976989683161873,-9.073395462871598,1.9851654412665287,0.24475035,-0.10302708000000001,0.9819310800000001,-8.51508,-0.13734,-18.32726,70.0
1774822701.3181713,0.004312038421630859,2026-03-29T22:18:21.318,2026-03-29T18:18:21.318,-33654.33,-46406.924999999996,-85110.25499999999,-50180.085,-12727.664999999999,-18013.364999999998,6465.375,-35420.76,21.716006008478296,12.67145087245351,9.919291433197094,5.637040655657915,1.750302504567583,-0.484344544051157,-7.385146292213301,5.991520775112811,0.24475035,-0.10302708000000001,0.9819310800000001,-8.51508,-0.13734,-18.32726,70.0
1774822701.3182013,3.0040740966796875e-05,2026-03-29T22:18:21.318,2026-03-29T18:18:21.318,-33657.93,-46407.869999999995,-85113.81,-50188.14,-12742.38,-18035.055,6475.905,-35415.674999999996,19.02088149198924,11.5451663611162,9.529776181303841,8.598872385677502,4.041420892327133,-1.3605200060842713,-2.410221094011138,7.116611857629633,0.24475035,-0.10302708000000001,0.9819310800000001,-8.51508,-0.13734,-18.32726,70.0
1774822701.3210888,0.0028874874114990234,2026-03-29T22:18:21.321,2026-03-29T18:18:21.321,-33673.68,-46427.805,-85135.00499999999,-50208.705,-12768.48,-18075.96,6477.4349999999995,-35414.415,7.433865736448746,5.1241085415660175,4.830372513299949,7.6095412548392,4.496002212365327,-1.6547172346668169,3.6222143120766312,4.848195771462079,0.24475035,-0.10302708000000001,0.9819310800000001,-8.51508,-0.13734,-18.32726,70.0
1774822701.3211088,2.002716064453125e-05,2026-03-29T22:18:21.321,2026-03-29T18:18:21.321,-33685.335,-46443.195,-85140.855,-50205.915,-12759.66,-18063.899999999998,6470.91,-35414.82,-7.600026534914192,-3.737170347714675,-2.310577195058037,2.7443941268851635,2.4499914950194963,-1.6304704806223507,8.00733768810334,0.3156886697219077,0.24475035,-0.10302708000000001,0.9819310800000001,-8.51508,-0.13734,-18.32726,70.0
1774822701.3300138,0.00890493392944336,2026-03-29T22:18:21.330,2026-03-29T18:18:21.330,-33667.604999999996,-46418.22,-85108.14,-50164.83,-12707.685,-17990.37,6481.08,-35409.24,-19.01113436210904,-11.019504237666633,-8.799693288891477,-3.9545529260044683,-1.4088388276963453,-1.5023178608162133,8.792542724503756,-4.271039046611596,0.259215645,-0.103332255,0.990903225,-12.71158,8.20988,-14.69538,70.0
1774822701.330036,2.2172927856445312e-05,2026-03-29T22:18:21.330,2026-03-29T18:18:21.330,-33660.405,-46417.095,-85118.44499999999,-50179.455,-12721.635,-17998.335,6481.17,-35405.369999999995,-21.473867476604195,-13.393828417774527,-11.68646346891155,-9.354706122609732,-5.262102413667571,-1.260552151794779,5.6591049047415245,-6.709995458982378,0.259215645,-0.103332255,0.990903225,-12.71158,8.20988,-14.69538,70.0
1774822701.3300548,1.8835067749023438e-05,2026-03-29T22:18:21.330,2026-03-29T18:18:21.330,-33664.455,-46418.22,-85119.12,-50179.59,-12718.71,-17992.53,6495.795,-35405.549999999996,-13.92882023172537,-9.762742108755727,-9.525148502297588,-10.720595134399863,-7.0337928874239015,-0.7161117166924069,0.05345483318531247,-5.881455048944133,0.259215645,-0.103332255,0.990903225,-12.71158,8.20988,-14.69538,70.0
1774822701.3300617,6.9141387939453125e-06,2026-03-29T22:18:21.330,2026-03-29T18:18:21.330,-33654.33,-46401.39,-85106.06999999999,-50181.975,-12727.619999999999,-17995.32,6509.969999999999,-35401.095,-0.04577282757876,-1.764617657058387,-3.0906432766955665,-7.094302189933588,-5.486555161034569,0.2804623969184417,-5.486681721487557,-2.2759729197848513,0.259215645,-0.103332255,0.990903225,-12.71158,8.20988,-14.69538,70.0
1774822701.3335648,0.003503084182739258,2026-03-29T22:18:21.333,2026-03-29T18:18:21.333,-33630.975,-46377.405,-85073.31,-50153.13,-12706.605,-17975.969999999998,6513.84,-35390.79,13.579437853187237,6.990668642961664,4.904659606759716,0.128265801363199,-0.9682461168337139,1.6074905469162637,-8.49351235677063,2.280081009709965,0.259215645,-0.103332255,0.990903225,-12.71158,8.20988,-14.69538,70.0
1774822701.333607,4.220008850097656e-05,2026-03-29T22:18:21.333,2026-03-29T18:18:21.333,-33614.82,-46369.439999999995,-85068.27,-50144.22,-12696.39,-17968.545,6487.875,-35376.479999999996,20.600373178451495,12.58609367445465,10.98461370360617,7.747132656154177,4.610403953386578,2.8013350341652266,-7.679495807707675,5.553563922423738,0.259215645,-0.103332255,0.990903225,-12.71158,8.20988,-14.69538,70.0
1774822701.3382173,0.004610300064086914,2026-03-29T22:18:21.338,2026-03-29T18:18:21.338,-33584.94,-46350.36,-85056.97499999999,-50127.84,-12678.39,-17955.045,6472.08,-35358.345,17.91961129690353,12.577216812967707,12.44895794629306,12.208531404044722,8.606579133444358,3.224020650159246,-3.4911724983226446,6.013843009578763,0.259215645,-0.103332255,0.990903225,-12.71158,8.20988,-14.69538,70.0
1774822701.338248,3.075599670410156e-05,2026-03-29T22:18:21.338,2026-03-29T18:18:21.338,-33620.94,-46386.54,-85095.315,-50161.68,-12714.705,-17996.715,6487.425,-35363.61,7.073761414801034,7.064534897931954,8.581289217468434,11.281088092119614,8.909724640243034,2.4012778749882004,2.1329488977761817,3.564539014443174,0.259215645,-0.103332255,0.990903225,-12.71158,8.20988,-14.69538,70.0
1774822701.3432183,0.0049703121185302734,2026-03-29T22:18:21.343,2026-03-29T18:18:21.343,-33690.69,-46443.465,-85152.69,-50212.305,-12764.43,-18043.739999999998,6499.665,-35385.795,-6.6253625508250265,-1.4147709401443196,0.9794078466199913,5.15693728772433,5.0269788342265835,0.3508620125002423,6.66960454686599,-0.45995766175835956,0.259215645,-0.103332255,0.990903225,-12.71158,8.20988,-14.69538,70.0
1774822701.343242,2.3603439331054688e-05,2026-03-29T22:18:21.343,2026-03-29T18:18:21.343,-33704.549999999996,-46463.13,-85178.745,-50235.84,-12783.644999999999,-18062.415,6515.6849999999995,-35386.38,-16.72203466415747,-9.08888409082627,-7.1361853273587235,-3.5611839018763187,-1.559322515694764,-2.2938236039107545,8.15268334194915,-4.012217140335399,0.259215645,-0.103332255,0.990903225,-12.71158,8.20988,-14.69538,70.0
1774822701.3475444,0.004302501678466797,2026-03-29T22:18:21.347,2026-03-29T18:18:21.347,-33694.02,-46461.78,-85187.11499999999,-50259.42,-12802.545,-18079.155,6517.755,-35378.865,-18.703695925139034,-12.661474563251282,-12.318878246213112,-11.00108307589842,-7.972725344687757,-4.4670294319942006,6.027225120040524,-5.3813536414217396,0.266295705,-0.107848845,0.98644767,-14.542779999999999,10.3005,-13.00152,70.0
1774822701.3475833,3.886222839355469e-05,2026-03-29T22:18:21.347,2026-03-29T18:18:21.347,-33652.034999999996,-46441.259999999995,-85175.64,-50257.395,-12799.89,-18074.114999999998,6500.745,-35364.69,-12.046594437716845,-10.738094125870875,-12.373943370300982,-13.770892141628957,-11.222760042815224,-5.1095011984905065,1.3431562199923892,-4.03297123555295,0.266295705,-0.107848845,0.98644767,-14.542779999999999,10.3005,-13.00152,70.0
1774822701.3476193,3.600120544433594e-05,2026-03-29T22:18:21.347,2026-03-29T18:18:21.347,-33632.01,-46430.325,-85166.145,-50258.115,-12798.81,-18073.26,6485.804999999999,-35357.13,-0.2781574430172645,-4.345797309322811,-7.275592979483014,-10.510745668689431,-9.600887307563704,-3.6747325994136273,-3.770046331749206,-0.8197486398742846,0.266295705,-0.107848845,0.98644767,-14.542779999999999,10.3005,-13.00152,70.0
1774822701.3476372,1.7881393432617188e-05,2026-03-29T22:18:21.347,2026-03-29T18:18:21.347,-33609.555,-46426.365,-85164.39,-50254.02,-12803.76,-18086.985,6475.545,-35352.27,10.889500142663,3.632948563950772,0.8537377780910815,-2.532867225299917,-3.5385501749296617,-0.4634404797240811,-7.081099791098134,2.52222706529699,0.266295705,-0.107848845,0.98644767,-14.542779999999999,10.3005,-13.00152,70.0
1774822701.3549712,0.007333993911743164,2026-03-29T22:18:21.354,2026-03-29T18:18:21.354,-33652.979999999996,-46433.61,-85132.665,-50205.104999999996,-12753.27,-18041.579999999998,6489.945,-35376.57,16.36844363928379,9.79446100798881,8.66167613807203,6.739811848656017,4.489173000202089,3.391526393035181,-7.232247733414812,4.305807816144223,0.266295705,-0.107848845,0.98644767,-14.542779999999999,10.3005,-13.00152,70.0
1774822701.35499,1.8835067749023438e-05,2026-03-29T22:18:21.354,2026-03-29T18:18:21.354,-33664.095,-46424.115,-85121.955,-50192.369999999995,-12736.08,-18024.795,6487.245,-35398.439999999995,14.048575381896876,11.681635692454957,12.964818700858011,13.27673374850546,10.997057797727317,6.319929075803122,-4.284112215606315,3.755449818151313,0.266295705,-0.107848845,0.98644767,-14.542779999999999,10.3005,-13.00152,70.0
1774822701.3567908,0.0018007755279541016,2026-03-29T22:18:21.356,2026-03-29T18:18:21.356,-33628.005,-46421.865,-85140.0,-50211.54,-12754.8,-18043.695,6480.36,-35385.345,5.590153947623589,8.743797906369279,12.034264919516662,14.205536710905628,13.014408341981008,6.949511228415387,0.3820807033266186,1.3545021493230156,0.266295705,-0.107848845,0.98644767,-14.542779999999999,10.3005,-13.00152,70.0
1774822701.3568075,1.6689300537109375e-05,2026-03-29T22:18:21.356,2026-03-29T18:18:21.356,-33704.865,-46418.49,-85081.095,-50137.83,-12679.244999999999,-17971.875,6495.4349999999995,-35420.04,-4.631258787192806,2.4250641034094507,6.255107746073085,9.059220683527025,9.427186057073735,4.726022376396057,4.722153224786006,-1.483710118514073,0.266295705,-0.107848845,0.98644767,-14.542779999999999,10.3005,-13.00152,70.0
1774822701.369476,0.012668609619140625,2026-03-29T22:18:21.369,2026-03-29T18:18:21.369,-33726.645,-46399.725,-85073.805,-50141.205,-12683.385,-17967.96,6499.9349999999995,-35453.025,-11.797260977674524,-4.573272705596983,-2.070349964293956,-0.029044644279004616,1.537666470037343,0.24810905478637763,6.927388097433915,-3.219819016833787,0.266295705,-0.107848845,0.98644767,-14.542779999999999,10.3005,-13.00152,70.0
1774822701.3696127,0.0001366138458251953,2026-03-29T22:18:21.369,2026-03-29T18:18:21.369,-33693.21,-46406.79,-85111.47,-50188.229999999996,-12729.96,-18010.125,6496.695,-35443.305,-12.95244678879446,-9.467926414970488,-9.65677009552031,-9.245267983702817,-7.419441495783247,-4.854264791843932,6.166237699731059,-3.020336259629592,0.266295705,-0.107848845,0.98644767,-14.542779999999999,10.3005,-13.00152,70.0
1774822701.3697002,8.749961853027344e-05,2026-03-29T22:18:21.369,2026-03-29T18:18:21.369,-33703.2,-46432.17,-85134.69,-50209.2,-12751.92,-18031.995,6503.4,-35441.235,-8.224358186809058,-10.484182020168957,-13.516782407681568,-14.711659507514401,-13.613628924520643,-8.4933468179548,2.871194622702705,-1.1694327741778168,0.260680485,-0.10845919500000001,0.97021236,-19.09026,9.5375,-4.41014,70.0
1774822701.3697484,4.8160552978515625e-05,2026-03-29T22:18:21.369,2026-03-29T18:18:21.369,-33710.04,-46449.765,-85152.465,-50223.104999999996,-12762.99,-18040.545,6479.28,-35443.799999999996,-0.4536003405310206,-7.443655461393632,-12.097072749176325,-14.10611445703461,-14.248766525098906,-8.95646273941288,-1.5112386648053897,1.1479220265240102,0.260680485,-0.10845919500000001,0.97021236,-19.09026,9.5375,-4.41014,70.0
1774822701.369805,5.6743621826171875e-05,2026-03-29T22:18:21.369,2026-03-29T18:18:21.369,-33684.39,-46423.485,-85118.265,-50191.335,-12736.484999999999,-18020.61,6473.429999999999,-35439.615,6.446224011780265,-1.690294550638972,-5.86157730721824,-7.6146952354268365,-8.797527087938526,-5.67804713158257,-5.16173792572004,2.5526289412819723,0.260680485,-0.10845919500000001,0.97021236,-19.09026,9.5375,-4.41014,70.0
1774822701.369851,4.601478576660156e-05,2026-03-29T22:18:21.369,2026-03-29T18:18:21.369,-33666.435,-46409.67,-85107.59999999999,-50180.895,-12725.865,-18011.024999999998,6492.87,-35430.03,9.47555613315696,4.527118467138106,2.8707376770984347,2.153706123301966,0.6903594326718421,0.380837595434373,-6.632061819732781,2.2636177909658137,0.260680485,-0.10845919500000001,0.97021236,-19.09026,9.5375,-4.41014,70.0
1774822701.372912,0.0030608177185058594,2026-03-29T22:18:21.372,2026-03-29T18:18:21.372,-33653.924999999996,-46400.49,-85105.44,-50175.045,-12715.244999999999,-18000.045,6485.3099999999995,-35423.729999999996,7.86712010812547,8.920354645703906,10.765020754399554,11.230502031571657,10.357682571172994,6.954913936919267,-5.392895393908965,0.5310265569999637,0.260680485,-0.10845919500000001,0.97021236,-19.09026,9.5375,-4.41014,70.0
1774822701.3729336,2.1696090698242188e-05,2026-03-29T22:18:21.372,2026-03-29T18:18:21.372,-33644.655,-46387.979999999996,-85088.34,-50154.84,-12696.57,-17998.469999999998,6494.13,-35420.715,3.149319394682081,9.949282761975919,14.694495333010646,15.885208344094364,16.09580921556342,11.28354630890211,-1.9938916710791141,-1.5288170821707818,0.260680485,-0.10845919500000001,0.97021236,-19.09026,9.5375,-4.41014,70.0
1774822701.3770776,0.004143953323364258,2026-03-29T22:18:21.377,2026-03-29T18:18:21.377,-33659.955,-46406.744999999995,-85116.06,-50189.715,-12737.52,-18050.489999999998,6467.355,-35431.74,-1.9378080598285317,7.294381680308828,12.929478753238033,14.122659427417773,15.266128732296233,11.239392603322493,2.19121414947583,-2.5990828828384607,0.260680485,-0.10845919500000001,0.97021236,-19.09026,9.5375,-4.41014,70.0
1774822701.3771005,2.288818359375e-05,2026-03-29T22:18:21.377,2026-03-29T18:18:21.377,-33666.705,-46421.549999999996,-85136.94,-50215.905,-12764.34,-18069.434999999998,6443.91,-35440.965,-4.988307993760468,1.9146179230840652,5.869908566461551,6.500446158257465,7.880351431612247,6.333473999403572,5.510068892377396,-1.948898588224432,0.260680485,-0.10845919500000001,0.97021236,-19.09026,9.5375,-4.41014,70.0
1774822701.3813484,0.004247903823852539,2026-03-29T22:18:21.381,2026-03-29T18:18:21.381,-33651.405,-46410.119999999995,-85119.345,-50194.619999999995,-12730.68,-18012.87,6472.485,-35435.43,-5.082319199033702,-4.285158156207599,-3.9721141912440543,-4.045787500349263,-3.2711385849442496,-1.860250439447122,6.655716961625269,0.11070407252955008,0.260680485,-0.10845919500000001,0.97021236,-19.09026,9.5375,-4.41014,70.0
1774822701.3813703,2.193450927734375e-05,2026-03-29T22:18:21.381,2026-03-29T18:18:21.381,-33645.645,-46419.03,-85129.33499999999,-50195.564999999995,-12720.645,-17987.175,6507.63,-35429.13,-2.9866188038189496,-9.069124243487341,-12.797920148497731,-13.309670324880585,-13.64644697756488,-10.132408138482068,5.149731261394319,2.3715827897325994,0.260680485,-0.10845919500000001,0.97021236,-19.09026,9.5375,-4.41014,70.0
1774822701.3955705,0.014200210571289062,2026-03-29T22:18:21.395,2026-03-29T18:18:21.395,-33643.44,-46407.104999999996,-85110.84,-50171.58,-12703.904999999999,-17980.38,6521.49,-35433.81,-0.4163333423856868,-10.606856709419986,-16.92653877685012,-17.44882525300225,-18.771274274997197,-14.851324482778494,1.5249813976595377,3.408104213730947,0.234557505,-0.122375175,0.96276609,-19.04448,4.0896799999999995,-10.84986,70.0
1774822701.3955925,2.193450927734375e-05,2026-03-29T22:18:21.395,2026-03-29T18:18:21.395,-33670.575,-46415.295,-85099.095,-50150.97,-12693.869999999999,-17982.855,6539.49,-35446.994999999995,1.1154975459856056,-8.133650852716107,-14.29663351007074,-14.537657822307185,-16.140008321961776,-13.529944639177565,-2.8513098067834943,2.418946065951851,0.234557505,-0.122375175,0.96276609,-19.04448,4.0896799999999995,-10.84986,70.0
1774822701.395612,1.9550323486328125e-05,2026-03-29T22:18:21.395,2026-03-29T18:18:21.395,-33677.64,-46424.52,-85108.275,-50153.939999999995,-12692.25,-17980.469999999998,6540.929999999999,-35459.189999999995,1.1544321445898018,-2.321948533538758,-5.473969486832771,-5.435975828390333,-6.408253492001052,-6.086405621303902,-6.2614290440841645,-0.24726498694894614,0.234557505,-0.122375175,0.96276609,-19.04448,4.0896799999999995,-10.84986,70.0
1774822701.3956194,7.3909759521484375e-06,2026-03-29T22:18:21.395,2026-03-29T18:18:21.395,-33677.369999999995,-46445.805,-85161.285,-50227.424999999996,-12768.21,-18060.524999999998,6492.105,-35467.244999999995,0.3944471445137151,4.812678257311182,6.318383965014838,6.404007169990456,6.676090479695359,4.821606290257952,-7.275600767374631,-3.2012046818161073,0.234557505,-0.122375175,0.96276609,-19.04448,4.0896799999999995,-10.84986,70.0
1774822701.3956275,8.106231689453125e-06,2026-03-29T22:18:21.395,2026-03-29T18:18:21.395,-33671.61,-46440.585,-85172.67,-50261.49,-12783.914999999999,-18057.78,6496.155,-35469.585,0.018178284428735546,10.529154047963301,16.293776462372023,16.18911111409638,17.66932372070367,14.671369694274752,-5.329058873111863,-4.7313294487984425,0.234557505,-0.122375175,0.96276609,-19.04448,4.0896799999999995,-10.84986,70.0
1774822701.395634,6.4373016357421875e-06,2026-03-29T22:18:21.395,2026-03-29T18:18:21.395,-33685.515,-46417.68,-85110.48,-50187.195,-12705.93,-17972.864999999998,6521.04,-35478.54,0.7573656695612981,12.366589864470775,20.00122866129148,19.676665808122824,21.663814273923585,18.917469210557638,-1.0177259854977194,-3.761460060510456,0.234557505,-0.122375175,0.96276609,-19.04448,4.0896799999999995,-10.84986,70.0
1774822701.3956418,7.867813110351562e-06,2026-03-29T22:18:21.395,2026-03-29T18:18:21.395,-33657.705,-46397.7,-85104.405,-50191.83,-12732.3,-18013.05,6516.63,-35474.354999999996,2.2971182988872223,9.19848795361623,15.303796872406531,14.989986655258022,16.460856727570423,15.071891332187482,4.035598250120759,-0.5233111577272326,0.234557505,-0.122375175,0.96276609,-19.04448,4.0896799999999995,-10.84986,70.0
1774822701.395648,6.198883056640625e-06,2026-03-29T22:18:21.395,2026-03-29T18:18:21.395,-33655.725,-46423.305,-85144.36499999999,-50233.68,-12772.755,-18054.54,6512.8949999999995,-35474.354999999996,3.420274759731668,1.8875176607147202,3.5624270732791583,3.5961701822034877,3.7335151093813272,4.079396059026246,7.749226110849916,3.4513360072536896,0.234557505,-0.122375175,0.96276609,-19.04448,4.0896799999999995,-10.84986,70.0
1774822701.4043615,0.008713483810424805,2026-03-29T22:18:21.404,2026-03-29T18:18:21.404,-33662.205,-46450.305,-85182.345,-50271.93,-12807.585,-18083.88,6491.205,-35476.56,2.8198652023984336,-6.827561812381068,-10.613623376755156,-10.051028978266267,-11.41865569331326,-9.744935699342745,8.412395806489778,6.061188205671946,0.234557505,-0.122375175,0.96276609,-19.04448,4.0896799999999995,-10.84986,70.0
1774822701.4043994,3.790855407714844e-05,2026-03-29T22:18:21.404,2026-03-29T18:18:21.404,-33672.869999999995,-46448.865,-85170.645,-50252.445,-12788.865,-18073.575,6430.1849999999995,-35488.755,0.07814270424132747,-13.29879502547542,-21.11546296192601,-20.188144303769796,-22.466989873198763,-20.358515373054942,5.462237495193556,5.737026557251342,0.234557505,-0.122375175,0.96276609,-19.04448,4.0896799999999995,-10.84986,70.0
1774822701.4044363,3.695487976074219e-05,2026-03-29T22:18:21.404,2026-03-29T18:18:21.404,-33676.515,-46427.13,-85134.59999999999,-50215.14,-12757.994999999999,-18050.805,6436.844999999999,-35503.2,-3.822479606274478,-14.485443964772198,-22.95654384955934,-22.147066632808965,-24.24925219017689,-22.62048849819685,-0.13955363055547168,2.3396032735828594,0.220519455,-0.14013636000000002,0.95861571,-11.155059999999999,3.02148,-14.08498,70.0
1774822701.4044545,1.811981201171875e-05,2026-03-29T22:18:21.404,2026-03-29T18:18:21.404,-33693.705,-46426.409999999996,-85112.415,-50187.645,-12728.97,-18018.63,6506.639999999999,-35512.244999999995,-6.840857465861821,-9.396575265450599,-14.650760419381005,-14.503367452320214,-15.378375623898169,-14.771886170953277,-6.158046314576843,-2.6447564347351764,0.220519455,-0.14013636000000002,0.95861571,-11.155059999999999,3.02148,-14.08498,70.0
1774822701.4112136,0.006759166717529297,2026-03-29T22:18:21.411,2026-03-29T18:18:21.411,-33672.555,-46422.45,-85119.48,-50199.255,-12742.154999999999,-18031.364999999998,6516.134999999999,-35505.0,-6.95681565708176,0.23081442474548433,0.7915285689907405,0.01872550331340774,0.8571626123104273,0.4256190144164586,-9.942248097000368,-6.761700492752971,0.220519455,-0.14013636000000002,0.95861571,-11.155059999999999,3.02148,-14.08498,70.0
1774822701.4112625,4.887580871582031e-05,2026-03-29T22:18:21.411,2026-03-29T18:18:21.411,-33667.695,-46421.189999999995,-85126.095,-50200.695,-12734.955,-18018.855,6532.469999999999,-35498.43,-3.412907483810627,10.442623307994785,16.86247649619632,15.421689373818749,17.638847857180654,16.57014882355207,-9.580103619397928,-7.804662862723006,0.220519455,-0.14013636000000002,0.95861571,-11.155059999999999,3.02148,-14.08498,70.0
1774822701.4131293,0.0018668174743652344,2026-03-29T22:18:21.413,2026-03-29T18:18:21.413,-33697.619999999995,-46430.415,-85112.50499999999,-50176.17,-12708.135,-17991.63,6525.8099999999995,-35511.84,2.61043850679609,16.672870204584456,26.278884675846843,24.87177344227969,27.456837594626393,26.29758584085063,-4.855141470492915,-4.982697209594433,0.220519455,-0.14013636000000002,0.95861571,-11.155059999999999,3.02148,-14.08498,70.0
1774822701.4131432,1.3828277587890625e-05,2026-03-29T22:18:21.413,2026-03-29T18:18:21.413,-33691.32,-46427.13,-85102.515,-50170.545,-12710.744999999999,-18001.395,6503.49,-35518.545,8.351732555357948,15.803487617709363,24.302809939928874,23.732730286483783,25.476657016373657,24.649751066681322,2.4704674799975197,0.5728981991622024,0.220519455,-0.14013636000000002,0.95861571,-11.155059999999999,3.02148,-14.08498,70.0
1774822701.4219441,0.008800983428955078,2026-03-29T22:18:21.421,2026-03-29T18:18:21.421,-33674.445,-46429.65,-85107.645,-50175.225,-12719.16,-18019.395,6503.8949999999995,-35505.99,10.770351096430815,7.741248739174341,11.138762850162221,11.851056003984542,11.923791281313559,11.589314322032152,9.265972463714787,6.262873750930149,0.220519455,-0.14013636000000002,0.95861571,-11.155059999999999,3.02148,-14.08498,70.0
1774822701.4219592,1.5020370483398438e-05,2026-03-29T22:18:21.421,2026-03-29T18:18:21.421,-33645.33,-46431.27,-85141.305,-50213.115,-12752.955,-18047.43,6499.71,-35487.765,8.162299865452358,-4.2928968812778905,-7.811065619970529,-6.038127000870996,-7.6921209739889855,-7.610167190930828,12.35401727275136,9.251903487843592,0.220519455,-0.14013636000000002,0.95861571,-11.155059999999999,3.02148,-14.08498,70.0
1774822701.4219725,1.33514404296875e-05,2026-03-29T22:18:21.421,2026-03-29T18:18:21.421,-33613.02,-46408.68,-85142.34,-50225.49,-12768.3,-18057.465,6488.594999999999,-35476.875,1.2283876996347236,-15.02030564637812,-24.126923939762996,-22.139638780278265,-24.776689963302093,-24.457051819761766,9.995929416970947,7.886380505214696,0.220519455,-0.14013636000000002,0.95861571,-11.155059999999999,3.02148,-14.08498,70.0
1774822701.4219785,5.9604644775390625e-06,2026-03-29T22:18:21.421,2026-03-29T18:18:21.421,-33618.96,-46405.439999999995,-85142.385,-50228.369999999995,-12770.1,-18051.704999999998,6476.985,-35484.93,-7.036117303808115,-19.435508617462233,-30.130339144982216,-28.991585463651862,-31.421233155269622,-31.00970696117488,2.846193231706551,2.5861500728476594,0.220519455,-0.14013636000000002,0.95861571,-11.155059999999999,3.02148,-14.08498,70.0
1774822701.4248948,0.0029163360595703125,2026-03-29T22:18:21.424,2026-03-29T18:18:21.424,-33672.06,-46419.119999999995,-85132.08,-50209.695,-12750.66,-18036.989999999998,6469.83,-35512.965,-12.670758515628851,-15.175574386138859,-22.53711187239039,-22.95110157305708,-24.09052365242223,-23.64405986235967,-6.139371385220274,-4.262877700972772,0.231871965,-0.142882935,0.95507568,-16.06878,6.027699999999999,-10.77356,70.0
1774822701.4249072,1.239776611328125e-05,2026-03-29T22:18:21.424,2026-03-29T18:18:21.424,-33700.59,-46421.369999999995,-85118.48999999999,-50191.29,-12731.895,-18020.88,6497.775,-35528.31,-12.689661938941654,-3.790801049042267,-4.249045855212942,-6.132351065738594,-5.496635059094851,-5.022568266729607,-12.903239870769745,-9.40106720087285,0.231871965,-0.142882935,0.95507568,-16.06878,6.027699999999999,-10.77356,70.0
1774822701.4318347,0.006927490234375,2026-03-29T22:18:21.431,2026-03-29T18:18:21.431,-33694.695,-46409.985,-85103.50499999999,-50175.314999999995,-12714.029999999999,-18003.555,6482.295,-35533.08,-6.662340955406895,9.768785632721205,16.69054941416616,14.23436250505239,16.331974830417884,16.79271285424044,-14.120619807108342,-10.26305063606914,0.231871965,-0.142882935,0.95507568,-16.06878,6.027699999999999,-10.77356,70.0
1774822701.4318557,2.09808349609375e-05,2026-03-29T22:18:21.431,2026-03-29T18:18:21.431,-33652.17,-46378.305,-85074.56999999999,-50147.865,-12683.43,-17973.945,6467.085,-35521.47,2.9016829879724515,19.31443310692274,30.642810143906303,28.89595354735725,31.513428164366623,31.83613519654224,-8.839077680861514,-6.25894427957598,0.231871965,-0.142882935,0.95507568,-16.06878,6.027699999999999,-10.77356,70.0
1774822701.4318745,1.8835067749023438e-05,2026-03-29T22:18:21.431,2026-03-29T18:18:21.431,-33606.63,-46357.38,-85062.15,-50134.68,-12669.795,-17962.38,6497.37,-35496.854999999996,11.625499896129536,20.280567919779376,30.85572083558639,30.809773624251818,32.81858662936199,32.82735885453102,0.8879998320214446,0.8720683523034962,0.231871965,-0.142882935,0.95507568,-16.06878,6.027699999999999,-10.77356,70.0
1774822701.4318843,9.775161743164062e-06,2026-03-29T22:18:21.431,2026-03-29T18:18:21.431,-33614.235,-46389.33,-85103.73,-50182.65,-12726.18,-18016.155,6512.13,-35483.67,15.320791095121837,11.94676764360199,16.77813419786149,18.567684193764773,19.15156729891682,18.724005502848094,10.764366980100316,7.833725744636006,0.231871965,-0.142882935,0.95507568,-16.06878,6.027699999999999,-10.77356,70.0
1774822701.437268,0.005383729934692383,2026-03-29T22:18:21.437,2026-03-29T18:18:21.437,-33639.75,-46398.24,-85098.95999999999,-50174.685,-12721.23,-18003.149999999998,6498.09,-35488.35,12.035906789522176,-2.0790347227284958,-5.441787506174828,-2.6719352782748422,-3.6883740712345916,-4.509068336027342,16.149291672738805,11.31893763714275,0.231871965,-0.142882935,0.95507568,-16.06878,6.027699999999999,-10.77356,70.0
1774822701.437287,1.9073486328125e-05,2026-03-29T22:18:21.437,2026-03-29T18:18:21.437,-33668.28,-46398.915,-85089.825,-50154.39,-12699.09,-17991.63,6492.87,-35502.659999999996,3.0772554471551015,-15.421707417952705,-25.635464763859176,-23.325897182551884,-25.449379168030557,-26.413504507880475,14.253620915643044,9.593992779223862,0.231871965,-0.142882935,0.95507568,-16.06878,6.027699999999999,-10.77356,70.0
1774822701.4473925,0.010105371475219727,2026-03-29T22:18:21.447,2026-03-29T18:18:21.447,-33696.54,-46437.57,-85139.28,-50197.634999999995,-12736.484999999999,-18033.3,6495.884999999999,-35516.205,-7.527647251321361,-21.870571510125963,-34.30830499975279,-33.73219167669003,-36.057483374566715,-36.78200008576786,5.587514638692812,3.3553245510600953,0.231871965,-0.142882935,0.95507568,-16.06878,6.027699999999999,-10.77356,70.0
1774822701.4474192,2.6702880859375e-05,2026-03-29T22:18:21.447,2026-03-29T18:18:21.447,-33690.104999999996,-46456.47,-85177.34999999999,-50240.7,-12776.939999999999,-18066.69,6464.5199999999995,-35515.17,-14.894062981022499,-18.317652789134105,-27.16417582455935,-28.72043364229921,-30.331459046650057,-30.46512566218282,-6.093265578648351,-4.5626772919622605,0.231871965,-0.142882935,0.95507568,-16.06878,6.027699999999999,-10.77356,70.0
1774822701.4474418,2.2649765014648438e-05,2026-03-29T22:18:21.447,2026-03-29T18:18:21.447,-33685.155,-46440.9,-85159.125,-50229.0,-12756.06,-18043.829999999998,6462.36,-35519.354999999996,-15.58221902237699,-6.290418619243609,-7.2764031931356055,-10.221987243690629,-10.551947646931762,-9.95370741226218,-15.410142893908798,-10.49965891356692,0.250304535,-0.14953575,0.9423804,-17.15224,6.302379999999999,-5.890359999999999,70.0
1774822701.4474509,9.059906005859375e-06,2026-03-29T22:18:21.447,2026-03-29T18:18:21.447,-33652.89,-46404.81,-85118.355,-50206.994999999995,-12734.505,-18027.495,6444.2699999999995,-35519.534999999996,-9.227936609259887,8.692524011896626,16.210083073533344,13.415273194093972,14.406112020460837,15.569607584851788,-17.856808576657023,-11.681981962718973,0.250304535,-0.14953575,0.9423804,-17.15224,6.302379999999999,-5.890359999999999,70.0
1774822701.4499092,0.002458333969116211,2026-03-29T22:18:21.449,2026-03-29T18:18:21.449,-33631.29,-46372.275,-85061.83499999999,-50147.145,-12676.68,-17964.495,6460.785,-35509.455,1.2828058763174266,19.678515074460574,32.311974349759204,31.20270791451545,33.0733971526361,34.36957577205943,-12.001468991053304,-7.524826906214449,0.250304535,-0.14953575,0.9423804,-17.15224,6.302379999999999,-5.890359999999999,70.0
1774822701.449931,2.1696090698242188e-05,2026-03-29T22:18:21.449,2026-03-29T18:18:21.449,-33626.475,-46356.705,-85029.48,-50100.705,-12632.355,-17917.695,6503.4,-35502.84,11.171756651293302,21.55445877747725,33.40420185548497,34.66664927765232,36.70865657476781,37.61025852741161,-0.31004355192631317,0.09067929729602221,0.250304535,-0.14953575,0.9423804,-17.15224,6.302379999999999,-5.890359999999999,70.0
1774822701.4551184,0.005187511444091797,2026-03-29T22:18:21.455,2026-03-29T18:18:21.455,-33651.765,-46386.54,-85053.95999999999,-50108.625,-12639.689999999999,-17937.495,6552.99,-35498.52,15.997232213165681,13.473587054759939,18.893542191227553,21.94352636335359,23.450020993133123,23.560872385860517,11.876865121628775,7.691423340925169,0.250304535,-0.14953575,0.9423804,-17.15224,6.302379999999999,-5.890359999999999,70.0
1774822701.4551487,3.0279159545898438e-05,2026-03-29T22:18:21.455,2026-03-29T18:18:21.455,-33672.015,-46436.354999999996,-85130.50499999999,-50185.755,-12723.029999999999,-18029.114999999998,6563.295,-35495.549999999996,13.68716898348669,-0.7383306639433111,-4.429267070945532,-1.1910712676135298,-0.7031236287154552,-1.4708889195812545,18.798899125609378,11.820299769837218,0.250304535,-0.14953575,0.9423804,-17.15224,6.302379999999999,-5.890359999999999,70.0
1774822701.4571285,0.001979827880859375,2026-03-29T22:18:21.457,2026-03-29T18:18:21.457,-33674.49,-46450.799999999996,-85160.43,-50221.619999999995,-12762.72,-18072.675,6534.945,-35493.479999999996,5.427540352664706,-14.403643240105959,-25.57605005757456,-23.935671894585514,-24.60632890890972,-25.984500115803957,17.028375780319813,10.622219130370828,0.250304535,-0.14953575,0.9423804,-17.15224,6.302379999999999,-5.890359999999999,70.0
1774822701.4571433,1.4781951904296875e-05,2026-03-29T22:18:21.457,2026-03-29T18:18:21.457,-33683.895,-46447.92,-85158.45,-50227.11,-12763.35,-18056.925,6514.11,-35498.205,-4.973367438355442,-21.16955858581184,-34.58733348778101,-35.540965100658376,-37.1547758604255,-38.62170557190119,7.192216412165585,4.674074663364037,0.250304535,-0.14953575,0.9423804,-17.15224,6.302379999999999,-5.890359999999999,70.0
1774822701.4623742,0.005230903625488281,2026-03-29T22:18:21.462,2026-03-29T18:18:21.462,-33701.265,-46439.46,-85148.955,-50225.265,-12764.25,-18060.344999999998,6500.655,-35510.354999999996,-12.894024199195325,-18.011619951590326,-27.28972408536166,-30.44899333566679,-32.504735442565796,-33.4922942573902,-6.211944303425871,-3.310640661960832,0.250304535,-0.14953575,0.9423804,-17.15224,6.302379999999999,-5.890359999999999,70.0
1774822701.4623947,2.0503997802734375e-05,2026-03-29T22:18:21.462,2026-03-29T18:18:21.462,-33702.075,-46430.82,-85129.605,-50215.229999999996,-12763.484999999999,-18068.04,6473.384999999999,-35516.97,-14.99790343498993,-6.620608023909838,-7.281265316476047,-11.009229379966198,-12.847588185080479,-12.963938264650952,-16.878913593313897,-9.743983814165983,0.250304535,-0.14953575,0.9423804,-17.15224,6.302379999999999,-5.890359999999999,70.0
1774822701.465766,0.0033712387084960938,2026-03-29T22:18:21.465,2026-03-29T18:18:21.465,-33654.869999999995,-46390.545,-85085.50499999999,-50175.854999999996,-12726.404999999999,-18022.815,6434.865,-35506.26,-10.646663237618615,7.480100145051715,15.824118968339961,13.579855904316958,12.604789814129642,13.425926455661358,-19.690080202287394,-11.793860120873537,0.267638475,-0.14733849,0.918637785,-16.06878,3.31142,-6.62284,70.0
1774822701.4657905,2.4557113647460938e-05,2026-03-29T22:18:21.465,2026-03-29T18:18:21.465,-33593.85,-46329.75,-85016.97,-50090.04,-12625.154999999999,-17904.555,6473.969999999999,-35482.275,-2.0264742701188934,17.633914223179445,31.043740607830415,31.639294245190175,31.96182353551671,33.438466694825046,-13.204766871848415,-8.633120223386918,0.267638475,-0.14733849,0.918637785,-16.06878,3.31142,-6.62284,70.0
1774822701.46937,0.003579378128051758,2026-03-29T22:18:21.469,2026-03-29T18:18:21.469,-33615.54,-46352.52,-85037.04,-50093.955,-12616.875,-17897.489999999998,6527.655,-35478.314999999995,6.984316659189568,19.238049724684053,31.30522184541936,34.60524966261804,36.2648779280217,37.87101771317365,-0.42120063753177894,-1.755838945534347,0.267638475,-0.14733849,0.918637785,-16.06878,3.31142,-6.62284,70.0
1774822701.4693975,2.765655517578125e-05,2026-03-29T22:18:21.469,2026-03-29T18:18:21.469,-33695.055,-46437.03,-85113.495,-50172.795,-12693.33,-17979.165,6539.759999999999,-35491.635,12.606135888479743,11.871830850752461,16.792801933846647,21.147741442349083,23.6930745766412,24.84512122873458,12.603079264734465,5.7494034137954095,0.267638475,-0.14733849,0.918637785,-16.06878,3.31142,-6.62284,70.0
1774822701.4735525,0.00415492057800293,2026-03-29T22:18:21.473,2026-03-29T18:18:21.473,-33718.59,-46471.275,-85152.87,-50222.52,-12752.369999999999,-18044.594999999998,6551.1449999999995,-35495.1,12.758923534806563,-0.6376833098963692,-5.250335119132684,-2.194968048623983,0.3618030399767364,0.6205387807829612,19.640355687727293,10.60662495744186,0.267638475,-0.14733849,0.918637785,-16.06878,3.31142,-6.62284,70.0
1774822701.4735827,3.0279159545898438e-05,2026-03-29T22:18:21.473,2026-03-29T18:18:21.473,-33702.975,-46454.445,-85147.02,-50224.59,-12761.505,-18049.05,6531.705,-35496.585,7.787359261811679,-12.191510516463206,-24.132782684651982,-24.186540925561975,-22.650857786930644,-23.426759794240983,17.305694344975837,10.789386007734542,0.267638475,-0.14733849,0.918637785,-16.06878,3.31142,-6.62284,70.0
1774822701.477276,0.0036933422088623047,2026-03-29T22:18:21.477,2026-03-29T18:18:21.477,-33675.165,-46430.865,-85151.7,-50236.695,-12765.285,-18038.88,6526.349999999999,-35494.244999999995,0.08558353216003083,-17.41995766262626,-30.938850970421043,-34.33123033596393,-34.60297817003273,-36.19646493001008,6.721203317873352,6.354299227300384,0.267638475,-0.14733849,0.918637785,-16.06878,3.31142,-6.62284,70.0
1774822701.477308,3.1948089599609375e-05,2026-03-29T22:18:21.477,2026-03-29T18:18:21.477,-33682.005,-46437.975,-85154.04,-50239.08,-12764.52,-18040.005,6509.745,-35498.205,-7.09199883816202,-14.21975195509384,-22.794906103014423,-27.933278174035486,-30.159458077401602,-32.04637452220986,-7.001785589755167,-0.664576900172721,0.267638475,-0.14733849,0.918637785,-16.06878,3.31142,-6.62284,70.0
1774822701.4812963,0.0039882659912109375,2026-03-29T22:18:21.481,2026-03-29T18:18:21.481,-33681.735,-46423.619999999995,-85135.995,-50222.295,-12755.205,-18044.1,6493.5,-35501.445,-11.027767701593438,-4.6091543376676425,-4.110235654092735,-8.31439071287687,-11.81420044510605,-13.318175538476261,-17.23337111743082,-7.2076796937709116,0.267638475,-0.14733849,0.918637785,-16.06878,3.31142,-6.62284,70.0
1774822701.4813151,1.8835067749023438e-05,2026-03-29T22:18:21.481,2026-03-29T18:18:21.481,-33683.445,-46421.909999999996,-85132.485,-50211.765,-12747.375,-18038.52,6477.84,-35509.77,-10.535304797249017,6.4519723828939,15.758025094824939,14.878252331915688,11.455554627692488,10.939916769327718,-19.05335485471168,-10.533922131564584,0.267638475,-0.14733849,0.918637785,-16.06878,3.31142,-6.62284,70.0
1774822701.4878857,0.006570577621459961,2026-03-29T22:18:21.487,2026-03-29T18:18:21.487,-33689.655,-46428.479999999996,-85128.03,-50197.634999999995,-12732.21,-18024.39,6469.875,-35515.845,-6.20816649955135,13.616482811943047,27.197238489200117,30.422608169466756,28.594393257788095,29.3713933616395,-11.654588035820149,-9.361654294572746,0.282042735,-0.133117335,0.897885885,-21.10458,2.0601,-8.75924,70.0
1774822701.487914,2.8371810913085938e-05,2026-03-29T22:18:21.487,2026-03-29T18:18:21.487,-33680.655,-46417.095,-85109.355,-50179.59,-12714.345,-18006.84,6492.375,-35517.104999999996,0.0472359645250121,13.764442865933288,25.030931791874096,30.9859115156435,31.764243273405558,33.67908784755418,1.2681850532763523,-4.336350637213814,0.282042735,-0.133117335,0.897885885,-21.10458,2.0601,-8.75924,70.0
1774822701.4932027,0.005288600921630859,2026-03-29T22:18:21.493,2026-03-29T18:18:21.493,-33659.865,-46400.085,-85097.295,-50171.58,-12706.154999999999,-17998.38,6516.495,-35516.924999999996,5.877125325988913,7.386123940375749,10.900524334175264,16.624378008704664,19.97269908486417,22.400746862355163,13.345329761088912,2.329494827514494,0.282042735,-0.133117335,0.897885885,-21.10458,2.0601,-8.75924,70.0
1774822701.4932182,1.5497207641601562e-05,2026-03-29T22:18:21.493,2026-03-29T18:18:21.493,-33634.485,-46391.625,-85110.795,-50192.865,-12727.845,-18018.09,6515.099999999999,-35515.125,9.339253704518343,-1.8915722863730053,-7.7776728552879435,-5.371140547248688,-0.6663830862828982,1.3551087349854705,18.678553172467808,7.8424932550865405,0.282042735,-0.133117335,0.897885885,-21.10458,2.0601,-8.75924,70.0
1774822701.5002995,0.007081270217895508,2026-03-29T22:18:21.500,2026-03-29T18:18:21.500,-33612.525,-46395.09,-85136.04,-50225.265,-12760.695,-18047.43,6512.8949999999995,-35511.885,9.457652398390113,-9.305435960754252,-21.669707852414245,-24.15993106272999,-20.076548028413278,-19.34611577179189,14.749199818671904,9.995391455349308,0.282042735,-0.133117335,0.897885885,-21.10458,2.0601,-8.75924,70.0
1774822701.500324,2.4557113647460938e-05,2026-03-29T22:18:21.500,2026-03-29T18:18:21.500,-33610.409999999996,-46400.22,-85142.655,-50230.215,-12765.689999999999,-18054.765,6524.775,-35511.03,6.376461980715279,-11.401443394390826,-24.200896158332387,-30.708287014684988,-29.15827845934581,-30.18952507096349,3.643067583201069,8.030018999022479,0.282042735,-0.133117335,0.897885885,-21.10458,2.0601,-8.75924,70.0
1774822701.5003471,2.3126602172851562e-05,2026-03-29T22:18:21.500,2026-03-29T18:18:21.500,-33630.795,-46389.33,-85104.495,-50185.755,-12724.83,-18021.42,6542.054999999999,-35529.435,1.1857257509438328,-7.66917778682475,-14.701515744214067,-22.162253031188673,-24.091846855968136,-26.67205290684765,-9.0188673904215,2.8711270362268793,0.282042735,-0.133117335,0.897885885,-21.10458,2.0601,-8.75924,70.0
1774822701.500358,1.0967254638671875e-05,2026-03-29T22:18:21.500,2026-03-29T18:18:21.500,-33674.58,-46397.07,-85084.11,-50157.585,-12696.84,-17997.344999999998,6540.66,-35556.57,-4.442781981806135,-0.5801561438702012,1.5000419445892756,-3.104621715782764,-7.95069164712495,-11.168203695657345,-16.908983537137612,-3.318985409210453,0.282042735,-0.133117335,0.897885885,-21.10458,2.0601,-8.75924,70.0
1774822701.5004773,0.00011920928955078125,2026-03-29T22:18:21.500,2026-03-29T18:18:21.500,-33707.655,-46425.689999999995,-85111.155,-50182.424999999996,-12717.72,-18008.594999999998,6483.509999999999,-35587.665,-8.700733848453417,5.901449557628139,15.98501832842668,16.86415315633141,11.059546496901078,8.519731471538396,-16.16310395054764,-8.046171702951579,0.282042735,-0.133117335,0.897885885,-21.10458,2.0601,-8.75924,70.0
1774822701.500486,8.58306884765625e-06,2026-03-29T22:18:21.500,2026-03-29T18:18:21.500,-33699.6,-46421.595,-85108.05,-50175.405,-12710.789999999999,-17995.32,6454.035,-35599.545,-10.114139590305872,8.483490464782731,21.594156326201077,27.956988115081476,23.76083162222635,23.089362412117268,-7.300249078784764,-9.471962110537701,0.282042735,-0.133117335,0.897885885,-21.10458,2.0601,-8.75924,70.0
1774822701.5065951,0.0061092376708984375,2026-03-29T22:18:21.506,2026-03-29T18:18:21.506,-33707.835,-46429.155,-85117.5,-50180.85,-12722.67,-18007.29,6443.505,-35616.6,-7.993326703166244,6.2224561357697095,15.979617804341345,25.010971499944837,24.45454525208211,26.16373178749471,5.072908823695931,-7.102255779187374,0.28893969,-0.11376924000000001,0.889463055,-38.95878,4.4254,-10.55992,70.0
1774822701.5066154,2.0265579223632812e-05,2026-03-29T22:18:21.506,2026-03-29T18:18:21.506,-33691.455,-46420.74,-85117.815,-50177.744999999995,-12720.779999999999,-18015.434999999998,6440.535,-35622.854999999996,-2.764060997749238,0.8558687142153377,2.5892723073130237,9.904179235831272,13.494640586108343,17.094129067453657,14.621327061836924,-1.9349257722651374,0.28893969,-0.11376924000000001,0.889463055,-38.95878,4.4254,-10.55992,70.0
1774822701.509636,0.0030205249786376953,2026-03-29T22:18:21.509,2026-03-29T18:18:21.509,-33638.58,-46376.549999999996,-85084.37999999999,-50145.615,-12686.76,-18008.055,6462.495,-35617.905,3.977257975187897,-4.320097978390839,-11.33024073707144,-9.560324213961664,-3.188003877722924,0.9027145643278868,16.508705483846157,3.962008823985124,0.28893969,-0.11376924000000001,0.889463055,-38.95878,4.4254,-10.55992,70.0
1774822701.5096548,1.8835067749023438e-05,2026-03-29T22:18:21.509,2026-03-29T18:18:21.509,-33591.6,-46353.915,-85074.075,-50137.29,-12659.984999999999,-17972.325,6482.565,-35612.595,9.82661365143872,-6.359566746061178,-18.594839678675562,-23.66662739840575,-17.243404419916015,-14.440430560088739,9.8539838840973,8.26280222413416,0.28893969,-0.11376924000000001,0.889463055,-38.95878,4.4254,-10.55992,70.0
1774822701.5173433,0.0076885223388671875,2026-03-29T22:18:21.517,2026-03-29T18:18:21.517,-33608.79,-46382.22,-85103.50499999999,-50177.07,-12684.105,-17962.695,6526.349999999999,-35623.35,12.36016287859414,-4.295306919720668,-15.772241582711693,-25.636074177115844,-22.078711391907653,-21.949521601007866,-1.8336243054284915,9.276897101901088,0.28893969,-0.11376924000000001,0.889463055,-38.95878,4.4254,-10.55992,70.0
1774822701.5173633,2.002716064453125e-05,2026-03-29T22:18:21.517,2026-03-29T18:18:21.517,-33673.409999999996,-46431.99,-85139.28,-50213.744999999995,-12737.43,-18029.52,6467.535,-35663.49,10.132104553180481,0.3965665599334929,-4.809834383382792,-14.89070427198812,-15.962660319255674,-18.818469397560495,-12.465948769414627,6.593914846520445,0.28893969,-0.11376924000000001,0.889463055,-38.95878,4.4254,-10.55992,70.0
1774822701.517382,1.8596649169921875e-05,2026-03-29T22:18:21.517,2026-03-29T18:18:21.517,-33688.215,-46418.4,-85106.565,-50172.93,-12700.935,-18001.934999999998,6442.38,-35697.689999999995,3.475743830530706,4.721793144742254,8.174516845384693,2.845962791262074,-2.5895468463389255,-7.410264115317838,-16.51232361101515,1.2460970503768838,0.28893969,-0.11376924000000001,0.889463055,-38.95878,4.4254,-10.55992,70.0
1774822701.51739,8.106231689453125e-06,2026-03-29T22:18:21.517,2026-03-29T18:18:21.517,-33640.965,-46371.78,-85050.09,-50103.99,-12637.395,-17952.524999999998,6476.49,-35704.034999999996,-5.327665580152292,5.940927325967211,16.229220643599927,18.57394521605793,11.04589988278808,6.272636351142645,-11.85751253500839,-4.674165048200387,0.28893969,-0.11376924000000001,0.889463055,-38.95878,4.4254,-10.55992,70.0
1774822701.5221202,0.004730224609375,2026-03-29T22:18:21.522,2026-03-29T18:18:21.522,-33634.665,-46371.24,-85039.065,-50073.705,-12609.72,-17916.57,6549.66,-35706.915,-12.742583257039724,3.1847494820935336,15.240797269809864,24.576943616905705,18.276386917160497,15.717682126490262,-0.9107456134870416,-8.808929067305145,0.28893969,-0.11376924000000001,0.889463055,-38.95878,4.4254,-10.55992,70.0
1774822701.5221417,2.1457672119140625e-05,2026-03-29T22:18:21.522,2026-03-29T18:18:21.522,-33647.895,-46394.685,-85103.81999999999,-50147.955,-12681.585,-17958.555,6583.365,-35722.395,-15.381135478967078,-2.001778328451672,6.01848792385872,18.206891947646966,16.020809704474907,17.009260166956405,10.616794898652921,-9.453992338855087,0.28893969,-0.11376924000000001,0.889463055,-38.95878,4.4254,-10.55992,70.0
1774822701.5252995,0.0031578540802001953,2026-03-29T22:18:21.525,2026-03-29T18:18:21.525,-33654.78,-46388.43,-85122.58499999999,-50164.29,-12689.955,-17969.805,6559.0199999999995,-35750.25,-11.567928831053631,-6.505896434714381,-6.259880952107687,3.0344283717093496,6.0794910319462545,10.42631608698188,16.654489091979578,-6.256047799911296,0.296813205,-0.103454325,0.88879167,-76.33051999999999,6.027699999999999,-17.7016,70.0
1774822701.5253189,1.9311904907226562e-05,2026-03-29T22:18:21.525,2026-03-29T18:18:21.525,-33703.065,-46425.869999999995,-85161.915,-50208.659999999996,-12727.305,-18021.42,6518.384999999999,-35802.494999999995,-2.337202975204334,-7.427655074793401,-14.892383088569938,-13.126087603969301,-6.06929168172835,-0.10696963994830068,13.931734568849896,-0.4054834762353222,0.296813205,-0.103454325,0.88879167,-76.33051999999999,6.027699999999999,-17.7016,70.0
1774822701.529352,0.004033088684082031,2026-03-29T22:18:21.529,2026-03-29T18:18:21.529,-33666.165,-46416.465,-85157.19,-50237.28,-12746.43,-18032.445,6496.92,-35818.604999999996,8.708672207048066,-3.8064667588123418,-15.247985925273449,-22.23568531257365,-14.231407829150092,-9.259224131961629,3.7230640615021544,5.780213755135218,0.296813205,-0.103454325,0.88879167,-76.33051999999999,6.027699999999999,-17.7016,70.0
1774822701.52937,1.811981201171875e-05,2026-03-29T22:18:21.529,2026-03-29T18:18:21.529,-33632.595,-46388.25,-85097.52,-50196.33,-12718.619999999999,-18015.255,6475.094999999999,-35835.659999999996,16.771943378284142,2.689289597330756,-7.2059741464510285,-20.027440321280597,-14.636199790465097,-12.976955927199016,-8.74281751975932,9.753112566505012,0.296813205,-0.103454325,0.88879167,-76.33051999999999,6.027699999999999,-17.7016,70.0
1774822701.535215,0.005844831466674805,2026-03-29T22:18:21.535,2026-03-29T18:18:21.535,-33663.06,-46417.095,-85088.565,-50172.299999999996,-12710.025,-18005.85,6463.575,-35873.955,17.95956188223223,8.543163370971072,4.829733658342778,-7.992069561633806,-7.667380672279385,-10.268020012949851,-16.93880288157129,9.77716067323554,0.296813205,-0.103454325,0.88879167,-76.33051999999999,6.027699999999999,-17.7016,70.0
1774822701.5352464,3.147125244140625e-05,2026-03-29T22:18:21.535,2026-03-29T18:18:21.535,-33651.72,-46385.82,-85049.145,-50128.784999999996,-12679.965,-17983.89,6499.44,-35904.869999999995,11.183885740845641,10.271283448184287,14.31891200252647,7.5668486714417,2.6047595679848494,-3.304527445090017,-16.41885307365459,5.693949773235825,0.296813205,-0.103454325,0.88879167,-76.33051999999999,6.027699999999999,-17.7016,70.0
1774822701.5389044,0.0036580562591552734,2026-03-29T22:18:21.538,2026-03-29T18:18:21.538,-33621.57,-46326.735,-84999.59999999999,-50084.009999999995,-12653.865,-17982.495,6539.985,-35928.18,-1.0731262630223493,6.405960148829259,16.09010103478639,18.834121594784722,10.725668476480664,4.026785293766687,-7.184805241070758,-0.92950355532077,0.296813205,-0.103454325,0.88879167,-76.33051999999999,6.027699999999999,-17.7016,70.0
1774822701.5389342,2.9802322387695312e-05,2026-03-29T22:18:21.538,2026-03-29T18:18:21.538,-33641.82,-46363.68,-85051.75499999999,-50135.67,-12699.18,-18032.985,6511.905,-35965.08,-13.61373732419168,-1.5158231093598142,9.101745252978889,20.411845191568887,12.71866779834848,8.238315584423828,6.203610194597886,-7.377496693759685,0.296813205,-0.103454325,0.88879167,-76.33051999999999,6.027699999999999,-17.7016,70.0
1774822701.5416045,0.0026702880859375,2026-03-29T22:18:21.541,2026-03-29T18:18:21.541,-33691.275,-46440.54,-85157.325,-50238.72,-12765.914999999999,-18052.335,6522.884999999999,-36013.185,-20.736045957354893,-9.56188023275572,-2.9947027546649294,11.897694681176965,8.017043148734997,7.889466991887777,16.879077761061154,-10.889493908513725,0.296813205,-0.103454325,0.88879167,-76.33051999999999,6.027699999999999,-17.7016,70.0
1774822701.541649,4.458427429199219e-05,2026-03-29T22:18:21.541,2026-03-29T18:18:21.541,-33713.865,-46468.53,-85182.48,-50247.045,-12755.52,-18014.625,6574.32,-36068.85,-18.859210117003773,-13.371542397438688,-13.778536049720739,-2.116925351016617,-0.46750968984584346,3.994145973983411,19.16692745318215,-9.8480017453477,0.296813205,-0.103454325,0.88879167,-76.33051999999999,6.027699999999999,-17.7016,70.0
1774822701.5453317,0.0036826133728027344,2026-03-29T22:18:21.545,2026-03-29T18:18:21.545,-33711.255,-46459.575,-85162.14,-50221.53,-12732.525,-18005.67,6547.455,-36122.715,-8.338596983985331,-10.489875508347039,-17.45133109863809,-14.523648030264999,-8.067975682702155,-0.8686428029121639,11.55901856048343,-4.536321262636708,0.28601001,-0.107970915,0.887143725,-119.91308,12.269039999999999,-19.532799999999998,70.0
1774822701.54536,2.8371810913085938e-05,2026-03-29T22:18:21.545,2026-03-29T18:18:21.545,-33674.58,-46421.955,-85125.825,-50198.04,-12713.039999999999,-17989.065,6516.63,-36166.32,6.455070431409804,-1.831199302345105,-11.91104088604083,-19.31440591994683,-10.887234022920222,-4.1208990433255925,-2.3820737910026835,2.8949730601801726,0.28601001,-0.107970915,0.887143725,-119.91308,12.269039999999999,-19.532799999999998,70.0
1774822701.5497632,0.004403114318847656,2026-03-29T22:18:21.549,2026-03-29T18:18:21.549,-33621.75,-46382.715,-85097.34,-50180.265,-12708.855,-17991.18,6500.025,-36201.6,18.94613011079616,8.562301287969742,0.1052857141910623,-14.493171617164533,-7.774947967340457,-4.5228147054288925,-15.7034642245317,9.28592342269345,0.28601001,-0.107970915,0.887143725,-119.91308,12.269039999999999,-19.532799999999998,70.0
1774822701.549781,1.7881393432617188e-05,2026-03-29T22:18:21.549,2026-03-29T18:18:21.549,-33605.64,-46381.994999999995,-85114.08,-50205.06,-12742.47,-18032.94,6509.429999999999,-36245.52,23.307373573581113,15.434928481685303,12.411155067862877,-2.8690964590009123,-0.760789696843932,-2.5978270639325776,-21.52925034633433,11.814655170556806,0.28601001,-0.107970915,0.887143725,-119.91308,12.269039999999999,-19.532799999999998,70.0
1774822701.5534549,0.0036737918853759766,2026-03-29T22:18:21.553,2026-03-29T18:18:21.553,-33644.34,-46418.13,-85148.09999999999,-50238.494999999995,-12775.77,-18068.13,6529.995,-36311.085,17.215636996360196,14.985998145438465,18.57179598693828,9.562083087109691,6.197690983926661,-0.03008008151656663,-16.585248645439602,9.258069526902764,0.28601001,-0.107970915,0.887143725,-119.91308,12.269039999999999,-19.532799999999998,70.0
1774822701.5534708,1.5974044799804688e-05,2026-03-29T22:18:21.553,2026-03-29T18:18:21.553,-33710.67,-46414.485,-85095.54,-50168.97,-12700.215,-17992.575,6528.78,-36419.805,3.090009841457777,6.933257328015617,15.25406147456455,16.72676259956914,9.408456767440962,1.5036911061202136,-2.9830466045199113,2.595233989834799,0.28601001,-0.107970915,0.887143725,-119.91308,12.269039999999999,-19.532799999999998,70.0
1774822701.5575757,0.0041048526763916016,2026-03-29T22:18:21.557,2026-03-29T18:18:21.557,-33707.7,-46403.369999999995,-85078.035,-50150.79,-12679.92,-17976.915,6519.78,-36505.89,-12.846515044443496,-5.13440127758259,3.98661430839116,15.454959962229376,7.3803256870643965,1.335491103107934,12.68920995395428,-5.349423883025427,0.28601001,-0.107970915,0.887143725,-119.91308,12.269039999999999,-19.532799999999998,70.0
1774822701.5575902,1.4543533325195312e-05,2026-03-29T22:18:21.557,2026-03-29T18:18:21.557,-33694.92,-46420.604999999996,-85110.25499999999,-50190.615,-12724.38,-18026.64,6513.884999999999,-36575.28,-23.3305386522991,-15.380104071006022,-9.5834935416459,6.864803894879376,1.494731121023317,0.07206725926712684,22.57470870832379,-11.104066018553468,0.28601001,-0.107970915,0.887143725,-119.91308,12.269039999999999,-19.532799999999998,70.0
1774822701.5613399,0.0037496089935302734,2026-03-29T22:18:21.561,2026-03-29T18:18:21.561,-33693.84,-46428.479999999996,-85117.77,-50200.064999999995,-12744.9,-18043.515,6520.995,-36658.034999999996,-23.409303823023432,-18.572698320353613,-18.558497315117464,-4.444894063006189,-4.878845268295028,-0.9664478865132985,21.48536109787991,-12.080304373795888,0.28601001,-0.107970915,0.887143725,-119.91308,12.269039999999999,-19.532799999999998,70.0
1774822701.5613596,1.9788742065429688e-05,2026-03-29T22:18:21.561,2026-03-29T18:18:21.561,-33681.15,-46417.14,-85108.77,-50193.09,-12736.305,-18018.809999999998,6529.679999999999,-36743.4,-12.814702868669404,-12.76265978225783,-18.310276932953197,-12.863876374489694,-8.281246162936094,-0.7278750149834312,9.595618768393589,-7.755192165932302,0.28601001,-0.107970915,0.887143725,-119.91308,12.269039999999999,-19.532799999999998,70.0
1774822701.5666556,0.005295991897583008,2026-03-29T22:18:21.566,2026-03-29T18:18:21.566,-33642.945,-46381.86,-85082.44499999999,-50158.08,-12695.58,-17987.94,6515.054999999999,-36827.64,3.792406877760803,-0.40954121736435434,-8.850936483110678,-14.575333239865483,-7.02049827228115,0.8117054804352472,-7.495324048994904,0.04397662579944474,0.297789765,-0.136169085,0.884580255,-152.87467999999998,22.035439999999998,-12.86418,70.0
1774822701.5666869,3.123283386230469e-05,2026-03-29T22:18:21.566,2026-03-29T18:18:21.566,-33625.89,-46370.43,-85067.055,-50130.674999999996,-12666.555,-17972.594999999998,6465.69,-36924.795,18.88242083653434,12.669251982489044,5.154450535237706,-9.285626271782766,-1.9992371011322758,2.592177820805089,-21.424673272129507,7.908472830467491,0.297789765,-0.136169085,0.884580255,-152.87467999999998,22.035439999999998,-12.86418,70.0
1774822701.5692797,0.002592802047729492,2026-03-29T22:18:21.569,2026-03-29T18:18:21.569,-33673.365,-46404.72,-85096.34999999999,-50153.354999999996,-12682.395,-17983.934999999998,6440.849999999999,-37057.95,25.50635620269313,20.07382260658404,16.733365443474217,-0.09624879793793895,3.8859913322834476,3.1565493340464617,-25.17534739475703,12.348898448570047,0.297789765,-0.136169085,0.884580255,-152.87467999999998,22.035439999999998,-12.86418,70.0
1774822701.5692973,1.7642974853515625e-05,2026-03-29T22:18:21.569,2026-03-29T18:18:21.569,-33667.244999999995,-46386.0,-85092.93,-50161.68,-12689.369999999999,-17978.445,6496.0199999999995,-37206.405,20.537795459381623,17.981258304736652,20.111624542563632,8.283387887629814,7.393558724696165,1.65457412686948,-16.606899963527674,11.361782415384589,0.297789765,-0.136169085,0.884580255,-152.87467999999998,22.035439999999998,-12.86418,70.0
1774822701.573704,0.00440669059753418,2026-03-29T22:18:21.573,2026-03-29T18:18:21.573,-33650.28,-46369.485,-85073.985,-50140.215,-12663.99,-17944.2,6572.025,-37373.354999999996,6.176174697783598,7.117775360446112,13.602486535433426,11.967943317659717,6.706747908189602,-1.472231320726193,0.3673032924618494,5.3497364991672205,0.297789765,-0.136169085,0.884580255,-152.87467999999998,22.035439999999998,-12.86418,70.0
1774822701.573727,2.288818359375e-05,2026-03-29T22:18:21.573,2026-03-29T18:18:21.573,-33624.045,-46346.354999999996,-85052.34,-50122.259999999995,-12651.615,-17942.85,6547.905,-37548.494999999995,-11.022949988275313,-7.472847559371601,0.429705121508591,9.71112024441669,2.3663766534018404,-4.585791834413297,17.588550110726185,-3.0350787124214227,0.297789765,-0.136169085,0.884580255,-152.87467999999998,22.035439999999998,-12.86418,70.0
1774822701.5773427,0.003615856170654297,2026-03-29T22:18:21.577,2026-03-29T18:18:21.577,-33615.045,-46340.595,-85044.42,-50115.915,-12644.324999999999,-17939.114999999998,6558.929999999999,-37718.955,-23.164756968499766,-18.80259491223756,-12.90869956807422,3.250788089944695,-3.108795710968999,-5.729498907571902,26.60176216859293,-10.067704277405694,0.297789765,-0.136169085,0.884580255,-152.87467999999998,22.035439999999998,-12.86418,70.0
1774822701.5773551,1.239776611328125e-05,2026-03-29T22:18:21.577,2026-03-29T18:18:21.577,-33634.619999999995,-46363.95,-85065.48,-50139.54,-12668.22,-17959.454999999998,6581.07,-37894.14,-24.679321136654202,-21.32310934219684,-19.88911366962851,-3.8571396727040317,-6.665095737672309,-3.81165320634366,22.82194714883931,-12.62188649638922,0.297789765,-0.136169085,0.884580255,-152.87467999999998,22.035439999999998,-12.86418,70.0
1774822701.581658,0.0043027400970458984,2026-03-29T22:18:21.581,2026-03-29T18:18:21.581,-33646.68,-46385.729999999996,-85087.125,-50152.5,-12680.775,-17974.125,6565.679999999999,-38076.39,-14.914215558513508,-13.665426209760033,-17.181339418630188,-8.187907583147569,-6.403742725546268,0.6015140094405858,7.858619016785874,-9.578196966659029,0.297789765,-0.136169085,0.884580255,-152.87467999999998,22.035439999999998,-12.86418,70.0
1774822701.581692,3.409385681152344e-05,2026-03-29T22:18:21.581,2026-03-29T18:18:21.581,-33622.155,-46373.354999999996,-85075.155,-50136.299999999996,-12664.529999999999,-17965.53,6564.87,-38264.715,1.5678483146551252,0.6266095058684616,-6.237934190104417,-8.117574943546868,-2.58998542788564,5.3971208385241365,-11.1770350996092,-2.3257260152994808,0.297789765,-0.136169085,0.884580255,-152.87467999999998,22.035439999999998,-12.86418,70.0
1774822701.5854836,0.0037915706634521484,2026-03-29T22:18:21.585,2026-03-29T18:18:21.585,-33599.655,-46363.545,-85070.11499999999,-50132.97,-12659.355,-17952.57,6552.405,-38473.604999999996,17.12970934024505,14.757788450623982,7.504054844531229,-4.391954049648767,2.551622110432741,7.950452465259677,-25.08023668833692,5.872783606522997,0.28893969,-0.18530226,0.8902565100000001,-167.81422,27.757939999999998,-11.76546,70.0
1774822701.5855024,1.8835067749023438e-05,2026-03-29T22:18:21.585,2026-03-29T18:18:21.585,-33580.53,-46356.93,-85075.83,-50137.92,-12666.689999999999,-17954.46,6512.04,-38692.08,24.629931376927317,21.94885156413511,17.36408365569819,0.5785151900724179,6.114769164636329,6.565785813904631,-27.03024959625733,11.361585724841285,0.28893969,-0.18530226,0.8902565100000001,-167.81422,27.757939999999998,-11.76546,70.0
1774822701.5902672,0.0047647953033447266,2026-03-29T22:18:21.590,2026-03-29T18:18:21.590,-33584.805,-46359.045,-85085.55,-50132.88,-12667.32,-17968.995,6533.73,-38920.5,20.739104416400778,18.722519506370954,18.703774781656445,4.188541482983807,6.137716001712377,1.532484359165425,-15.948202018953621,11.740250042148771,0.28893969,-0.18530226,0.8902565100000001,-167.81422,27.757939999999998,-11.76546,70.0
1774822701.5902944,2.7179718017578125e-05,2026-03-29T22:18:21.590,2026-03-29T18:18:21.590,-33640.65,-46431.314999999995,-85156.73999999999,-50182.155,-12718.395,-18021.195,6566.3099999999995,-39185.729999999996,7.444656342841296,6.6010048781523425,11.125625400767325,5.00970002778471,2.677098359858947,-4.834566877855265,2.9226585373859733,6.927749227017662,0.28893969,-0.18530226,0.8902565100000001,-167.81422,27.757939999999998,-11.76546,70.0
1774822701.5954833,0.005188941955566406,2026-03-29T22:18:21.595,2026-03-29T18:18:21.595,-33651.315,-46464.57,-85181.44499999999,-50157.405,-12693.06,-18000.989999999998,6603.48,-39460.68,-8.948260161636124,-8.62006208795529,-1.4638307611008816,3.3412580213925684,-2.2542710991513415,-9.27519528396081,20.520048725334405,-0.8362710470401623,0.28893969,-0.18530226,0.8902565100000001,-167.81422,27.757939999999998,-11.76546,70.0
1774822701.595504,2.0742416381835938e-05,2026-03-29T22:18:21.595,2026-03-29T18:18:21.595,-33673.994999999995,-46471.814999999995,-85188.42,-50143.095,-12674.97,-17973.63,6598.98,-39767.939999999995,-20.822931973984605,-19.67090709888188,-12.889615019634238,0.7375026622549294,-5.836640751414047,-9.272658450332898,28.344179562400296,-8.03979984125235,0.28893969,-0.18530226,0.8902565100000001,-167.81422,27.757939999999998,-11.76546,70.0
1774822701.630021,0.03451704978942871,2026-03-29T22:18:21.630,2026-03-29T18:18:21.630,-33709.994999999995,-46452.96,-85144.455,-50119.875,-12646.664999999999,-17934.48,6557.355,-40118.534999999996,-22.8234317498324,-21.315393910350963,-17.773763099097547,-1.1028489749725385,-6.032410930440103,-4.468378353688673,22.58657196289666,-11.502650121845674,0.28893969,-0.18530226,0.8902565100000001,-167.81422,27.757939999999998,-11.76546,70.0
1774822701.6300516,3.0517578125e-05,2026-03-29T22:18:21.630,2026-03-29T18:18:21.630,-33656.354999999996,-46369.08,-85050.27,-50095.259999999995,-12635.82,-17919.405,6541.469999999999,-40446.765,-14.302492937903171,-12.859282570785645,-14.093954202158283,-1.3741220226830773,-2.730227296438512,2.9859693954152546,5.9908061816065095,-9.796378024644442,0.28893969,-0.18530226,0.8902565100000001,-167.81422,27.757939999999998,-11.76546,70.0
1774822701.6300702,1.8596649169921875e-05,2026-03-29T22:18:21.630,2026-03-29T18:18:21.630,-33636.33,-46314.314999999995,-84987.765,-50071.994999999995,-12612.285,-17900.19,6567.929999999999,-40788.81,0.48856815060875736,1.55404978584166,-4.0070937610344375,-0.5203816749655121,2.1906754292186914,9.397719024075899,-13.466493207267103,-3.838313507338311,0.28893969,-0.18530226,0.8902565100000001,-167.81422,27.757939999999998,-11.76546,70.0
1774822701.6300764,6.198883056640625e-06,2026-03-29T22:18:21.630,2026-03-29T18:18:21.630,-33622.244999999995,-46305.225,-85004.73,-50130.45,-12631.32,-17919.765,6571.304999999999,-41138.729999999996,14.512707899367689,14.987026030935676,7.388085161640133,0.2471563719753935,5.912140203992744,11.383791221948535,-26.434820502948796,3.5898404565163533,0.28893969,-0.18530226,0.8902565100000001,-167.81422,27.757939999999998,-11.76546,70.0
1774822701.6300833,6.9141387939453125e-06,2026-03-29T22:18:21.630,2026-03-29T18:18:21.630,-33616.35,-46323.63,-85041.18,-50185.619999999995,-12679.289999999999,-17963.505,6554.16,-41481.72,21.315097287748483,21.076466164380655,14.65038898829125,-0.08870472178457274,6.262908747127847,7.6655335692944115,-26.710862202951162,9.15019085454782,0.24352965000000001,-0.271300575,0.90771252,-160.51994,28.0784,-11.12454,70.0
1774822701.630088,4.76837158203125e-06,2026-03-29T22:18:21.630,2026-03-29T18:18:21.630,-33617.655,-46339.335,-85043.87999999999,-50138.1,-12667.23,-17963.594999999998,6533.325,-41828.085,18.024890898677704,17.078881025904597,14.623933112666094,-1.5552347637376909,2.957898280252147,-0.14753816077352033,-14.223647411989587,10.463858312351318,0.24352965000000001,-0.271300575,0.90771252,-160.51994,28.0784,-11.12454,70.0
1774822701.630094,5.9604644775390625e-06,2026-03-29T22:18:21.630,2026-03-29T18:18:21.630,-33583.905,-46303.65,-84996.54,-50063.445,-12614.13,-17925.704999999998,6558.165,-42154.65,6.580763903866728,5.121757640287536,7.813484786890013,-3.0883418704793013,-2.2045191776538866,-8.249454718986911,4.960120127085594,7.138105278155911,0.24352965000000001,-0.271300575,0.90771252,-160.51994,28.0784,-11.12454,70.0
1774822701.6300993,5.245208740234375e-06,2026-03-29T22:18:21.630,2026-03-29T18:18:21.630,-33579.045,-46299.78,-84999.645,-50067.405,-12601.935,-17901.989999999998,6595.65,-42478.965,-7.349897164304906,-8.916209952081248,-2.09187280422319,-3.2152386605646783,-6.312406560941744,-12.509967585379057,21.599029851469147,0.8572592010381149,0.24352965000000001,-0.271300575,0.90771252,-160.51994,28.0784,-11.12454,70.0
1774822701.6301053,5.9604644775390625e-06,2026-03-29T22:18:21.630,2026-03-29T18:18:21.630,-33585.345,-46314.45,-85027.095,-50096.475,-12627.359999999999,-17921.52,6619.86,-42785.369999999995,-17.175609771734976,-18.310673930150514,-10.204450309312769,-1.1094738084894187,-6.9570527097398855,-10.597588313188844,27.75395817575772,-5.4659433570884595,0.24352965000000001,-0.271300575,0.90771252,-160.51994,28.0784,-11.12454,70.0
1774822701.6301105,5.245208740234375e-06,2026-03-29T22:18:21.630,2026-03-29T18:18:21.630,-33611.22,-46343.43,-85073.44499999999,-50152.049999999996,-12683.609999999999,-17974.89,6605.009999999999,-43086.96,-18.521141148538014,-18.739996029894193,-12.869728873235037,2.6552294428922716,-3.6090980059897277,-3.2548872085610685,20.599093472971585,-9.052325517343156,0.24352965000000001,-0.271300575,0.90771252,-160.51994,28.0784,-11.12454,70.0
1774822701.6301167,6.198883056640625e-06,2026-03-29T22:18:21.630,2026-03-29T18:18:21.630,-33610.185,-46356.795,-85096.98,-50184.54,-12709.215,-18000.135,6597.179999999999,-43358.265,-11.197429860229022,-10.295452608073237,-9.3268227650919,6.183030895659462,2.0177875184646927,5.970145320911621,3.7276943432599037,-8.489391461953772,0.24352965000000001,-0.271300575,0.90771252,-160.51994,28.0784,-11.12454,70.0
1774822701.6301217,5.0067901611328125e-06,2026-03-29T22:18:21.630,2026-03-29T18:18:21.630,-33570.135,-46317.15,-85046.715,-50145.525,-12667.005,-17954.684999999998,6568.74,-43597.439999999995,0.8961745298754666,2.6912164158340923,-1.8383034053003116,7.218256949871906,6.844789957328489,12.451526821176232,-14.654051665981454,-4.282812760853716,0.24352965000000001,-0.271300575,0.90771252,-160.51994,28.0784,-11.12454,70.0
1774822701.6301274,5.7220458984375e-06,2026-03-29T22:18:21.630,2026-03-29T18:18:21.630,-33565.77,-46302.57,-85014.27,-50106.645,-12638.835,-17926.739999999998,6559.605,-43832.159999999996,11.812195034886331,13.86321195350396,5.663243718495825,4.4995863982401625,8.096737592482253,12.824077815607218,-25.73593484706342,1.4866169858728135,0.24352965000000001,-0.271300575,0.90771252,-160.51994,28.0784,-11.12454,70.0
1774822701.6301324,5.0067901611328125e-06,2026-03-29T22:18:21.630,2026-03-29T18:18:21.630,-33582.825,-46317.825,-85025.34,-50105.115,-12639.555,-17924.805,6552.585,-44065.619999999995,16.48301263312023,17.965992966113514,9.633002339564834,-1.2770697162879225,4.863311238591401,6.742650414088198,-24.348874456052425,6.192611615841571,0.24352965000000001,-0.271300575,0.90771252,-160.51994,28.0784,-11.12454,70.0
1774822701.6301389,6.4373016357421875e-06,2026-03-29T22:18:21.630,2026-03-29T18:18:21.630,-33584.13,-46332.854999999996,-85045.77,-50119.515,-12654.135,-17945.55,6556.23,-44275.994999999995,13.092826493591675,13.34102227775127,8.602805467403599,-7.518938773706513,-1.3122883222045267,-2.8625463531458095,-11.390759952035516,7.869568663775293,0.213805605,-0.308776065,0.922910235,-146.54178,40.19484,-15.00058,70.0
1774822701.630144,5.0067901611328125e-06,2026-03-29T22:18:21.630,2026-03-29T18:18:21.630,-33605.82,-46341.63,-85038.97499999999,-50104.619999999995,-12637.215,-17929.44,6607.53,-44487.945,3.7741593185980724,2.592807338383989,3.691614573044028,-10.915625582281065,-7.174824883604709,-11.20490691801133,6.711792758919938,6.0362111414617665,0.213805605,-0.308776065,0.922910235,-146.54178,40.19484,-15.00058,70.0
1774822701.63015,6.198883056640625e-06,2026-03-29T22:18:21.630,2026-03-29T18:18:21.630,-33647.22,-46358.145,-85042.035,-50104.799999999996,-12641.355,-17935.515,6612.21,-44725.32,-6.633610505028999,-8.836599831227135,-2.218621860174006,-9.193170807276886,-9.469880818102826,-14.044013320346659,21.196803674986207,1.7901302689557763,0.213805605,-0.308776065,0.922910235,-146.54178,40.19484,-15.00058,70.0
1774822701.6301548,4.76837158203125e-06,2026-03-29T22:18:21.630,2026-03-29T18:18:21.630,-33649.244999999995,-46363.95,-85052.06999999999,-50111.82,-12650.175,-17947.8,6571.62,-44930.924999999996,-13.072671700256576,-15.419846339063145,-6.111484978836334,-2.5140024045566856,-6.727750124796843,-9.858030549160619,25.225303330298978,-2.8142366464654325,0.213805605,-0.308776065,0.922910235,-146.54178,40.19484,-15.00058,70.0
1774822701.6337724,0.003617525100708008,2026-03-29T22:18:21.633,2026-03-29T18:18:21.633,-33598.71,-46357.92,-85072.815,-50115.06,-12660.795,-17963.415,6556.455,-45081.36,-12.731357776614868,-14.23203724506233,-6.371134866617695,6.299259140980842,-0.14941416369235447,-0.6656979229613769,17.12696287722214,-5.763344763132176,0.213805605,-0.308776065,0.922910235,-146.54178,40.19484,-15.00058,70.0
1774822701.6337845,1.2159347534179688e-05,2026-03-29T22:18:21.633,2026-03-29T18:18:21.633,-33599.88,-46379.43,-85118.84999999999,-50096.205,-12643.38,-17948.475,6552.2699999999995,-45254.115,-6.280179411224847,-6.260541708886702,-3.4450681278262465,12.962792823316688,6.92026550971644,8.948015144816694,1.0851455581083065,-5.971518221773547,0.213805605,-0.308776065,0.922910235,-146.54178,40.19484,-15.00058,70.0
1774822701.6383717,0.0045871734619140625,2026-03-29T22:18:21.638,2026-03-29T18:18:21.638,-33642.494999999995,-46385.055,-85119.435,-50065.515,-12599.595,-17898.66,6553.9349999999995,-45455.85,2.6684569847037714,4.25414956962455,0.6313341666546727,13.841061901926345,10.700888110348169,14.131856260549048,-15.014973657586337,-3.663206687328418,0.213805605,-0.308776065,0.922910235,-146.54178,40.19484,-15.00058,70.0
1774822701.6384077,3.600120544433594e-05,2026-03-29T22:18:21.638,2026-03-29T18:18:21.638,-33647.67,-46369.305,-85100.715,-50064.03,-12598.605,-17896.905,6531.57,-45645.975,9.522647180737414,12.046477817936307,3.4988463227199236,7.9159340207133,8.990520489491864,12.234135440831334,-23.47136233334242,-0.12566166020968314,0.213805605,-0.308776065,0.922910235,-146.54178,40.19484,-15.00058,70.0
1774822701.6417234,0.0033156871795654297,2026-03-29T22:18:21.641,2026-03-29T18:18:21.641,-33613.92,-46355.939999999995,-85093.2,-50116.185,-12639.15,-17937.09,6533.1449999999995,-45780.479999999996,11.050873613637894,13.462132498845849,3.7873811173150265,-2.445192089577605,2.415405467552273,4.173281084257505,-20.46433195356215,2.988640100564977,0.213805605,-0.308776065,0.922910235,-146.54178,40.19484,-15.00058,70.0
1774822701.6417384,1.5020370483398438e-05,2026-03-29T22:18:21.641,2026-03-29T18:18:21.641,-33611.04,-46338.345,-85087.845,-50219.009999999995,-12694.365,-17983.305,6529.59,-45926.865,6.91255794972372,8.182279914901692,1.765759245958329,-12.4238575153189,-5.781503239814471,-6.00112503873659,-7.786296810889228,4.4389682096567915,0.213805605,-0.308776065,0.922910235,-146.54178,40.19484,-15.00058,70.0
1774822701.645678,0.003939628601074219,2026-03-29T22:18:21.645,2026-03-29T18:18:21.645,-33578.865,-46294.56,-85024.98,-50175.045,-12652.154999999999,-17958.015,6574.1849999999995,-46059.479999999996,-0.3495679129428591,-0.7826648132474795,-0.9770547312520865,-17.02534404106815,-11.353242378129012,-13.149566797205996,8.183088954433185,3.8848647421635145,0.21826116,-0.29699631,0.915463965,-151.69966,52.021339999999995,-20.7536,70.0
1774822701.6457024,2.4318695068359375e-05,2026-03-29T22:18:21.645,2026-03-29T18:18:21.645,-33616.979999999996,-46322.82,-85006.44,-50120.369999999995,-12646.125,-17969.265,6596.82,-46217.924999999996,-6.77699447508506,-8.75549166989215,-2.57591609109731,-13.604357211247041,-11.255086259404186,-13.653974196909843,19.685901047548757,1.8967599490835358,0.21826116,-0.29699631,0.915463965,-151.69966,52.021339999999995,-20.7536,70.0
1774822701.6498163,0.004113912582397461,2026-03-29T22:18:21.649,2026-03-29T18:18:21.649,-33584.94,-46309.68,-84989.06999999999,-50096.34,-12643.695,-17951.579999999998,6576.255,-46335.6,-9.107628021125455,-11.811931109981899,-2.0272981367261176,-3.3537530303460095,-5.295874916443093,-7.265726169616931,21.364625829627595,-0.4504037252472523,0.21826116,-0.29699631,0.915463965,-151.69966,52.021339999999995,-20.7536,70.0
1774822701.6498425,2.6226043701171875e-05,2026-03-29T22:18:21.649,2026-03-29T18:18:21.649,-33602.67,-46322.055,-85001.04,-50090.265,-12634.109999999999,-17922.149999999998,6580.755,-46473.119999999995,-6.421990726102163,-8.713053184039095,0.2341042659115095,9.068860952614818,3.656049415523445,2.760766353625105,12.76490298099121,-2.1471792182867975,0.21826116,-0.29699631,0.915463965,-151.69966,52.021339999999995,-20.7536,70.0
1774822701.6599271,0.01008462905883789,2026-03-29T22:18:21.659,2026-03-29T18:18:21.659,-33604.695,-46323.45,-85011.56999999999,-50089.77,-12614.67,-17883.719999999998,6617.025,-46608.255,-0.49536705717701707,-1.3976463547632194,2.634692598534458,17.686942256586637,11.066763491973463,11.325016853768723,-1.6104905802640836,-2.6849672784420706,0.21826116,-0.29699631,0.915463965,-151.69966,52.021339999999995,-20.7536,70.0
1774822701.6599615,3.4332275390625e-05,2026-03-29T22:18:21.659,2026-03-29T18:18:21.659,-33605.28,-46326.42,-85018.68,-50090.58,-12611.205,-17884.079999999998,6629.58,-46734.795,5.27367823136359,6.15570551600741,3.4455684005815828,18.120966544629436,13.047403492774496,14.084450432757466,-14.645009885550195,-2.168155684154001,0.21826116,-0.29699631,0.915463965,-151.69966,52.021339999999995,-20.7536,70.0
1774822701.659988,2.6464462280273438e-05,2026-03-29T22:18:21.659,2026-03-29T18:18:21.659,-33591.735,-46337.85,-85049.775,-50124.195,-12658.32,-17941.184999999998,6604.155,-46851.705,7.744534904706547,10.0541922045036,1.8697559957860348,9.834141283816455,8.398064868142605,9.671810889046293,-20.134833824536177,-1.1063590537983221,0.21826116,-0.29699631,0.915463965,-151.69966,52.021339999999995,-20.7536,70.0
1774822701.66,1.2159347534179688e-05,2026-03-29T22:18:21.660,2026-03-29T18:18:21.660,-33549.57,-46311.705,-85016.295,-50082.615,-12630.195,-17930.114999999998,6584.355,-46950.119999999995,5.708340261710013,8.48224755965519,-1.4056217904438941,-3.4514764790143793,-0.690266431646337,0.38716795628734363,-15.748580584793151,-0.055524291429799595,0.21826116,-0.29699631,0.915463965,-151.69966,52.021339999999995,-20.7536,70.0
1774822701.6614263,0.0014262199401855469,2026-03-29T22:18:21.661,2026-03-29T18:18:21.661,-33565.095,-46326.96,-85011.705,-50072.895,-12626.55,-17942.535,6561.99,-47065.005,0.47489465880934634,2.544937437695957,-4.528523773425678,-15.445321608377574,-9.676839659912293,-8.991852816260021,-4.004425806152122,0.6693506778357378,0.21826116,-0.29699631,0.915463965,-151.69966,52.021339999999995,-20.7536,70.0
1774822701.6614394,1.3113021850585938e-05,2026-03-29T22:18:21.661,2026-03-29T18:18:21.661,-33602.49,-46385.685,-85097.06999999999,-50173.155,-12709.98,-18009.0,6551.865,-47186.369999999995,-4.911387443721371,-4.428170563393829,-5.514852073070404,-20.308784416255914,-13.956893517578052,-13.66955143256994,9.137841966206794,1.0626223589070005,0.21826116,-0.29699631,0.915463965,-151.69966,52.021339999999995,-20.7536,70.0
1774822701.6655629,0.0041234493255615234,2026-03-29T22:18:21.665,2026-03-29T18:18:21.665,-33598.305,-46393.244999999995,-85106.025,-50197.634999999995,-12706.965,-17984.07,6584.94,-47281.905,-7.377632555303616,-8.70574170192935,-3.4253033256331906,-15.536902726871443,-11.234317318737297,-11.294510405271966,17.29706431906035,1.280889594478277,0.230407125,-0.28308033,0.89404068,-169.78276,53.867799999999995,-18.80032,70.0
1774822701.66558,1.71661376953125e-05,2026-03-29T22:18:21.665,2026-03-29T18:18:21.665,-33573.104999999996,-46385.145,-85098.555,-50172.705,-12679.425,-17961.3,6582.15,-47372.625,-5.5182569879555965,-8.122567993248234,0.9841240746638614,-3.2623579821139312,-2.753543250467454,-3.1562123541241687,16.773716595062396,1.4169039466217899,0.230407125,-0.28308033,0.89404068,-169.78276,53.867799999999995,-18.80032,70.0
1774822701.6693733,0.0037932395935058594,2026-03-29T22:18:21.669,2026-03-29T18:18:21.669,-33539.265,-46383.03,-85084.47,-50126.4,-12642.39,-17931.105,6593.085,-47448.314999999995,-0.3648739652870749,-3.1648649555687123,5.53703451221794,10.701748382836623,7.2697466956305306,6.499041987257623,8.22384533676181,1.3695042816418874,0.230407125,-0.28308033,0.89404068,-169.78276,53.867799999999995,-18.80032,70.0
1774822701.669401,2.765655517578125e-05,2026-03-29T22:18:21.669,2026-03-29T18:18:21.669,-33516.315,-46383.345,-85067.055,-50101.74,-12629.789999999999,-17930.204999999998,6562.17,-47532.465,5.18124493722563,3.367910567838153,7.734914963059546,19.64870066212241,13.758666593589684,12.675766429961223,-3.851913995129252,0.9095003068232906,0.230407125,-0.28308033,0.89404068,-169.78276,53.867799999999995,-18.80032,70.0
1774822701.6735096,0.0041086673736572266,2026-03-29T22:18:21.673,2026-03-29T18:18:21.673,-33511.815,-46405.215,-85103.145,-50147.369999999995,-12676.68,-17984.52,6497.19,-47616.795,7.945209028467817,7.909927870428045,6.115299209668435,19.24341956698038,13.363690716207241,12.215595571326066,-13.463522692306977,-0.09826050910423653,0.230407125,-0.28308033,0.89404068,-169.78276,53.867799999999995,-18.80032,70.0
1774822701.6735256,1.5974044799804688e-05,2026-03-29T22:18:21.673,2026-03-29T18:18:21.673,-33505.47,-46380.915,-85113.45,-50184.945,-12700.98,-18006.704999999998,6459.57,-47699.28,6.239901652999452,8.043155228145217,1.1373646894044853,9.657373633940482,6.2030438131004,5.422425457647004,-16.103880990565155,-1.4732744737298404,0.230407125,-0.28308033,0.89404068,-169.78276,53.867799999999995,-18.80032,70.0
1774822701.6797688,0.006243228912353516,2026-03-29T22:18:21.679,2026-03-29T18:18:21.679,-33491.25,-46342.08,-85066.73999999999,-50141.61,-12644.955,-17946.225,6510.195,-47783.115,0.8361617426683216,3.7631237660657337,-4.91410011996121,-4.492474292212511,-4.153529527518761,-4.113883224780885,-10.862159985234783,-2.6740801558172023,0.230407125,-0.28308033,0.89404068,-169.78276,53.867799999999995,-18.80032,70.0
1774822701.6797884,1.9550323486328125e-05,2026-03-29T22:18:21.679,2026-03-29T18:18:21.679,-33464.61,-46345.185,-85059.495,-50138.235,-12650.58,-17951.265,6605.28,-47842.83,-5.396538349569494,-2.5592188198885992,-9.00876980862717,-16.385485596316585,-12.472171242553332,-11.399893453888057,-0.6868917639445525,-3.0089223837871897,0.230407125,-0.28308033,0.89404068,-169.78276,53.867799999999995,-18.80032,70.0
1774822701.6819682,0.002179861068725586,2026-03-29T22:18:21.681,2026-03-29T18:18:21.681,-33478.695,-46383.345,-85087.395,-50162.085,-12686.939999999999,-17981.145,6625.665,-47924.82,-9.007067636299327,-7.477664160903385,-8.91068743724196,-20.32295177614155,-14.515087436481418,-12.645429535513355,9.242219313438937,-2.0219213904631017,0.230407125,-0.28308033,0.89404068,-169.78276,53.867799999999995,-18.80032,70.0
1774822701.6819832,1.5020370483398438e-05,2026-03-29T22:18:21.681,2026-03-29T18:18:21.681,-33448.005,-46389.15,-85088.205,-50156.729999999996,-12685.77,-17982.54,6583.455,-47982.555,-7.839068288777919,-8.326545813371611,-4.387292891506869,-14.499456513673207,-9.215235569272052,-7.23688091925535,14.146788907669464,0.15598671694134647,0.230407125,-0.28308033,0.89404068,-169.78276,53.867799999999995,-18.80032,70.0
