unix_time_s,dt_s,UTC,LOCAL,EMG1_Raw,EMG2_Raw,EMG3_Raw,EMG4_Raw,EMG5_Raw,EMG6_Raw,EMG7_Raw,EMG8_Raw,EMG1_Filtered,EMG2_Filtered,EMG3_Filtered,EMG4_Filtered,EMG5_Filtered,EMG6_Filtered,EMG7_Filtered,EMG8_Filtered,Accel1_Raw,Accel2_Raw,Accel3_Raw,Gyro1_Raw,Gyro2_Raw,Gyro3_Raw,Battery
1774822922.5806544,,2026-03-29T22:22:02.580,2026-03-29T18:22:02.580,-32518.89,-45899.729999999996,-85092.3,-49971.465,-12552.255,-17374.635,6776.235,-53262.27,1.2843435850543174,3.1069488678011106,1.7594076595721317,0.21870572957201723,-0.44186886863953917,-1.4331692229055517,-0.7118556995393258,0.32857061095037876,-0.11157198,0.292662825,0.944394555,-14.86324,7.35532,-3.41824,69.0
1774822922.5806737,1.9311904907226562e-05,2026-03-29T22:22:02.580,2026-03-29T18:22:02.580,-32524.379999999997,-45898.784999999996,-85094.81999999999,-49977.9,-12559.814999999999,-17378.19,6784.38,-53257.905,1.840090322024013,2.131988442179536,3.4672310020634876,5.721398327700535,6.769809216062581,7.633709998317501,1.9968573975046366,2.481133515697512,-0.11157198,0.292662825,0.944394555,-14.86324,7.35532,-3.41824,69.0
1774822922.5848153,0.004141569137573242,2026-03-29T22:22:02.584,2026-03-29T18:22:02.584,-32524.199999999997,-45901.89,-85098.735,-49969.799999999996,-12551.265,-17369.864999999998,6778.71,-53253.765,1.3246063034119169,-0.38556425734181504,3.14819269231292,8.41595810235177,10.802033918329927,13.309962590982957,3.9311044530285724,3.5187298220764327,-0.11157198,0.292662825,0.944394555,-14.86324,7.35532,-3.41824,69.0
1774822922.584836,2.0742416381835938e-05,2026-03-29T22:22:02.584,2026-03-29T18:22:02.584,-32520.329999999998,-45896.22,-85088.97,-49952.97,-12528.63,-17342.235,6790.634999999999,-53251.92,-0.09018307035195351,-3.4307050809314927,0.8349350490557987,7.053584337512501,9.854282599890837,13.133392899422658,4.29906472113683,2.9813118434494537,-0.11157198,0.292662825,0.944394555,-14.86324,7.35532,-3.41824,69.0
1774822922.5894876,0.004651546478271484,2026-03-29T22:22:02.589,2026-03-29T18:22:02.589,-32516.504999999997,-45889.155,-85081.00499999999,-49947.435,-12518.1,-17327.61,6813.945,-53245.71,-1.6755285882140505,-5.403706830926376,-2.24802722923778,2.3617372723229644,4.448269882900486,7.24419276727372,2.9265250789885475,1.1213666116770964,-0.11157198,0.292662825,0.944394555,-14.86324,7.35532,-3.41824,69.0
1774822922.589605,0.00011754035949707031,2026-03-29T22:22:02.589,2026-03-29T18:22:02.589,-32518.574999999997,-45893.564999999995,-85095.09,-49971.869999999995,-12553.83,-17373.915,6795.2699999999995,-53243.1,-2.51860841234496,-4.949400738720937,-4.32126955258786,-3.339326852434582,-2.855003482931737,-1.7154018566915847,0.3387700159390867,-1.2151546781223146,-0.11157198,0.292662825,0.944394555,-14.86324,7.35532,-3.41824,69.0
1774822922.5950513,0.005446195602416992,2026-03-29T22:22:02.595,2026-03-29T18:22:02.595,-32520.87,-45892.485,-85100.805,-49987.53,-12580.244999999999,-17405.954999999998,6775.29,-53248.95,-2.0335689544898514,-1.79865206854868,-4.048069938727871,-7.2916674233798,-8.681220073039634,-9.805144793856023,-2.4352624907375744,-2.9773180050887853,-0.107238495,0.285704835,0.942929715,-15.12266,9.75114,-4.02864,69.0
1774822922.595084,3.266334533691406e-05,2026-03-29T22:22:02.595,2026-03-29T18:22:02.595,-32521.14,-45888.255,-85095.94499999999,-49988.655,-12585.24,-17409.69,6768.315,-53255.97,-0.3301244722273416,2.8725378452982784,-1.344393127023637,-7.647959080848062,-10.419035924928533,-13.53703708918431,-4.266702745875437,-3.3870663664240968,-0.107238495,0.285704835,0.942929715,-15.12266,9.75114,-4.02864,69.0
1774822922.5951145,3.0517578125e-05,2026-03-29T22:22:02.595,2026-03-29T18:22:02.595,-32528.745,-45895.814999999995,-85095.54,-49977.314999999995,-12564.9,-17383.68,6774.84,-53260.74,1.7800979493390787,6.849100762155281,2.47146131175459,-4.34750926511934,-7.402444625276135,-11.386170453952552,-4.383322047491483,-2.2868423640798285,-0.107238495,0.285704835,0.942929715,-15.12266,9.75114,-4.02864,69.0
1774822922.5951304,1.5974044799804688e-05,2026-03-29T22:22:02.595,2026-03-29T18:22:02.595,-32529.78,-45904.725,-85102.245,-49977.18,-12562.56,-17379.989999999998,6774.4349999999995,-53260.02,3.1714894704317933,7.929512711834159,5.317533162818307,0.9012001078423043,-1.1584435880878194,-4.404863155680396,-2.696200504970161,-0.19975352651433861,-0.107238495,0.285704835,0.942929715,-15.12266,9.75114,-4.02864,69.0
1774822922.6006148,0.005484342575073242,2026-03-29T22:22:02.600,2026-03-29T18:22:02.600,-32520.555,-45891.765,-85090.00499999999,-49972.32,-12564.404999999999,-17386.38,6766.155,-53249.759999999995,3.0009927374759537,5.124328713942616,5.467910188930507,5.503207678170953,5.367496542539585,4.301735881859959,0.14206215668441047,1.9205426339211213,-0.107238495,0.285704835,0.942929715,-15.12266,9.75114,-4.02864,69.0
1774822922.6006389,2.4080276489257812e-05,2026-03-29T22:22:02.600,2026-03-29T18:22:02.600,-32516.774999999998,-45886.68,-85085.37,-49966.515,-12556.98,-17378.19,6769.755,-53241.255,1.1987106956249378,-0.6439773456611654,2.557639721697874,7.269443601326474,9.214332956372155,10.973093004046493,2.9830682720695023,3.1300314441860637,-0.107238495,0.285704835,0.942929715,-15.12266,9.75114,-4.02864,69.0
1774822922.6044793,0.0038404464721679688,2026-03-29T22:22:02.604,2026-03-29T18:22:02.604,-32520.6,-45891.09,-85087.125,-49964.895,-12549.869999999999,-17365.454999999998,6785.73,-53234.505,-1.4256270839105483,-6.784888056369646,-2.0969840241621425,5.470929489701279,8.762393471482458,12.827222394356074,4.643898010070262,2.9194105016005976,-0.107238495,0.285704835,0.942929715,-15.12266,9.75114,-4.02864,69.0
1774822922.604497,1.7642974853515625e-05,2026-03-29T22:22:02.604,2026-03-29T18:22:02.604,-32529.149999999998,-45902.34,-85101.97499999999,-49984.47,-12572.55,-17387.46,6790.545,-53237.655,-3.547214001287302,-10.205560521141948,-6.08927431640143,1.141340425041705,4.416492495035584,9.217042785033836,4.4009043608638825,1.4304031538747004,-0.107238495,0.285704835,0.942929715,-15.12266,9.75114,-4.02864,69.0
1774822922.6085477,0.004050731658935547,2026-03-29T22:22:02.608,2026-03-29T18:22:02.608,-32524.875,-45900.63,-85104.09,-49991.49,-12582.539999999999,-17401.454999999998,6781.59,-53239.005,-3.9976874112102267,-8.873696023295047,-7.161723891796031,-3.4984598800127538,-1.6729455145605412,1.8314145183478563,2.3095420894644527,-0.629492096003017,-0.107238495,0.285704835,0.942929715,-15.12266,9.75114,-4.02864,69.0
1774822922.6085637,1.5974044799804688e-05,2026-03-29T22:22:02.608,2026-03-29T18:22:02.608,-32518.89,-45887.805,-85084.92,-49972.814999999995,-12561.795,-17381.385,6777.8099999999995,-53241.435,-2.402220317906182,-2.985784880125969,-4.457774380208703,-6.180032833037959,-6.677891042812713,-6.105183511793648,-0.79330784086983,-2.3254947093100515,-0.107238495,0.285704835,0.942929715,-15.12266,9.75114,-4.02864,69.0
1774822922.6139174,0.005353689193725586,2026-03-29T22:22:02.613,2026-03-29T18:22:02.613,-32517.945,-45878.13,-85078.44,-49972.32,-12562.064999999999,-17381.79,6777.179999999999,-53245.439999999995,0.5626260674276363,4.916194193896938,0.8987296807428189,-5.705879743501456,-8.417375048250824,-11.250339247828641,-3.6196409431448067,-2.9242357619477013,-0.100158435,0.28308033,0.939389685,-16.05352,11.368699999999999,-3.55558,69.0
1774822922.6139452,2.7894973754882812e-05,2026-03-29T22:22:02.613,2026-03-29T18:22:02.613,-32513.399999999998,-45866.295,-85072.00499999999,-49972.185,-12562.244999999999,-17381.34,6777.63,-53245.799999999996,3.452944309926875,11.03791235778224,6.258333261856678,-2.4911551725432965,-6.313286706280771,-11.55117950809269,-4.965787077765103,-2.2139315901587295,-0.100158435,0.28308033,0.939389685,-16.05352,11.368699999999999,-3.55558,69.0
1774822922.6167371,0.002791881561279297,2026-03-29T22:22:02.616,2026-03-29T18:22:02.616,-32498.82,-45838.845,-85046.265,-49954.5,-12549.285,-17369.46,6779.79,-53242.064999999995,4.766172758925755,12.168968924761714,8.75846746622775,1.7196089241923223,-1.5563801583762518,-7.050137472369674,-4.2303555049741215,-0.57475883376481,-0.100158435,0.28308033,0.939389685,-16.05352,11.368699999999999,-3.55558,69.0
1774822922.6167552,1.811981201171875e-05,2026-03-29T22:22:02.616,2026-03-29T18:22:02.616,-32500.754999999997,-45850.77,-85050.405,-49947.84,-12541.095,-17360.145,6779.295,-53237.79,3.724356411480544,7.367520540241144,6.8424874510072025,4.7863242606751735,3.5477320992021206,0.21895923812850476,-1.6892728926806497,1.22132005695709,-0.100158435,0.28308033,0.939389685,-16.05352,11.368699999999999,-3.55558,69.0
1774822922.6209557,0.004200458526611328,2026-03-29T22:22:02.620,2026-03-29T18:22:02.620,-32515.875,-45906.03,-85091.535,-49957.515,-12540.869999999999,-17358.12,6782.13,-53237.204999999994,0.7229083751655342,-1.3909896361225276,1.183005158238493,5.26240060882438,6.700095780169452,7.156391679848041,1.6009284753167874,2.377000218446644,-0.100158435,0.28308033,0.939389685,-16.05352,11.368699999999999,-3.55558,69.0
1774822922.6209822,2.6464462280273438e-05,2026-03-29T22:22:02.620,2026-03-29T18:22:02.620,-32517.449999999997,-45904.545,-85093.02,-49961.34,-12543.435,-17360.28,6787.844999999999,-53236.665,-2.809253794355403,-10.010490624694109,-5.521580284136884,3.084006614475446,6.649944266427489,10.919692354179816,4.242070921831277,2.426981883420703,-0.100158435,0.28308033,0.939389685,-16.05352,11.368699999999999,-3.55558,69.0
1774822922.627349,0.006366729736328125,2026-03-29T22:22:02.627,2026-03-29T18:22:02.627,-32529.87,-45903.645,-85090.95,-49961.97,-12542.085,-17357.489999999998,6786.45,-53242.424999999996,-5.095365260254648,-14.20499913686319,-9.8380695337195,-0.4718442035887993,3.6820018857032997,10.08003830516118,5.093680302403536,1.4243887147545677,-0.100158435,0.28308033,0.939389685,-16.05352,11.368699999999999,-3.55558,69.0
1774822922.627376,2.7179718017578125e-05,2026-03-29T22:22:02.627,2026-03-29T18:22:02.627,-32526.855,-45896.354999999996,-85092.84,-49975.515,-12559.5,-17373.105,6786.675,-53241.525,-4.910976871026142,-11.646709612897089,-9.35724935768027,-3.5075081004909068,-0.6345774618099891,5.1470879570569465,3.7734188432373115,-0.11792831856724051,-0.100158435,0.28308033,0.939389685,-16.05352,11.368699999999999,-3.55558,69.0
1774822922.633139,0.005762815475463867,2026-03-29T22:22:02.633,2026-03-29T18:22:02.633,-32526.899999999998,-45898.02,-85097.52,-49983.255,-12573.27,-17392.59,6779.745,-53240.895,-2.239908618995967,-3.2475481187511064,-4.018777506950634,-4.506647873554717,-4.263721274887942,-1.719805354301527,0.8351355376392336,-1.4884775681993885,-0.100158435,0.28308033,0.939389685,-16.05352,11.368699999999999,-3.55558,69.0
1774822922.6331604,2.1457672119140625e-05,2026-03-29T22:22:02.633,2026-03-29T18:22:02.633,-32520.149999999998,-45892.08,-85084.47,-49966.2,-12557.88,-17380.755,6775.245,-53238.42,1.6652668319922186,7.126826100449462,3.7187387659854716,-3.092647823185892,-5.66464949930049,-7.656875284651821,-2.4614351800707603,-2.107976458460217,-0.100158435,0.28308033,0.939389685,-16.05352,11.368699999999999,-3.55558,69.0
1774822922.6331818,2.1457672119140625e-05,2026-03-29T22:22:02.633,2026-03-29T18:22:02.633,-32520.42,-45887.67,-85086.18,-49974.165,-12570.119999999999,-17397.809999999998,6769.665,-53237.924999999996,4.874032984364341,14.44718241770642,10.013291748361176,-0.16368039168755652,-4.443387441934903,-10.284715920029178,-4.694901518297008,-1.7747848233425723,-0.11199922500000001,0.28051686,0.940122105,-18.40356,10.69726,-5.66146,69.0
1774822922.6331887,6.9141387939453125e-06,2026-03-29T22:22:02.633,2026-03-29T18:22:02.633,-32518.934999999998,-45874.665,-85080.23999999999,-49969.305,-12560.805,-17389.934999999998,6777.495,-53241.57,5.739873905627993,14.981157398371813,11.554662170790309,2.639490978662249,-1.4203043766556087,-8.651316990634138,-4.903418720699341,-0.7206477032504921,-0.11199922500000001,0.28051686,0.940122105,-18.40356,10.69726,-5.66146,69.0
1774822922.6378596,0.004670858383178711,2026-03-29T22:22:02.637,2026-03-29T18:22:02.637,-32512.454999999998,-45853.65,-85054.23,-49955.265,-12546.765,-17369.46,6782.58,-53237.475,3.750700149248618,8.210149658751885,7.300761632665366,3.8297647643194446,1.8644322838438565,-3.562333649719523,-3.00736771783461,0.5321706156056659,-0.11199922500000001,0.28051686,0.940122105,-18.40356,10.69726,-5.66146,69.0
1774822922.637885,2.5510787963867188e-05,2026-03-29T22:22:02.637,2026-03-29T18:22:02.637,-32506.605,-45844.11,-85040.86499999999,-49957.424999999996,-12559.32,-17379.72,6770.384999999999,-53234.549999999996,-0.17375184281760847,-2.7876992182974214,-0.8742678314847881,2.8523395323373806,3.9258204026595127,2.8076072954817466,0.15644502237296729,1.4295105488839353,-0.11199922500000001,0.28051686,0.940122105,-18.40356,10.69726,-5.66146,69.0
1774822922.6408808,0.002995729446411133,2026-03-29T22:22:02.640,2026-03-29T18:22:02.640,-32512.41,-45858.645,-85040.50499999999,-49946.895,-12553.515,-17365.635,6776.775,-53236.53,-4.107750184500765,-12.741153868385283,-9.004549247146214,0.3417316729960386,4.003088991399132,7.838816928137875,3.2060520113932105,1.6314566857288584,-0.11199922500000001,0.28051686,0.940122105,-18.40356,10.69726,-5.66146,69.0
1774822922.640904,2.3126602172851562e-05,2026-03-29T22:22:02.640,2026-03-29T18:22:02.640,-32520.555,-45881.235,-85066.515,-49956.93,-12555.72,-17375.76,6776.1449999999995,-53235.54,-6.071239967606082,-16.734284373171946,-12.967633451873747,-2.260841469074778,2.3231075518843434,9.537080230643204,4.825544301632007,1.1361265870673654,-0.11199922500000001,0.28051686,0.940122105,-18.40356,10.69726,-5.66146,69.0
1774822922.644441,0.0035369396209716797,2026-03-29T22:22:02.644,2026-03-29T18:22:02.644,-32529.059999999998,-45904.14,-85104.405,-49981.229999999996,-12566.654999999999,-17380.934999999998,6776.91,-53236.439999999995,-5.033944444037277,-12.657364495490416,-10.580451861519846,-3.5081978352196224,-0.12189458929982627,7.318168473948834,4.342335410615259,0.2389445347458618,-0.11199922500000001,0.28051686,0.940122105,-18.40356,10.69726,-5.66146,69.0
1774822922.6444628,2.193450927734375e-05,2026-03-29T22:22:02.644,2026-03-29T18:22:02.644,-32524.695,-45890.055,-85092.75,-49971.915,-12562.02,-17372.61,6783.03,-53235.765,-1.4593957565058229,-2.327943349361306,-2.7872362376541364,-2.730150309932114,-2.125910580040951,2.2012730625114267,2.01258794068046,-0.634477186099944,-0.11199922500000001,0.28051686,0.940122105,-18.40356,10.69726,-5.66146,69.0
1774822922.6488223,0.00435948371887207,2026-03-29T22:22:02.648,2026-03-29T18:22:02.648,-32524.245,-45874.935,-85075.11,-49966.74,-12556.439999999999,-17371.035,6778.215,-53236.53,2.899627626443522,9.315963821052046,6.7015932813797985,-0.3826199933008375,-2.854580045284563,-3.649611624131697,-1.109590124236257,-1.1301957082727947,-0.11199922500000001,0.28051686,0.940122105,-18.40356,10.69726,-5.66146,69.0
1774822922.6488345,1.2159347534179688e-05,2026-03-29T22:22:02.648,2026-03-29T18:22:02.648,-32513.039999999997,-45845.28,-85052.25,-49962.555,-12560.76,-17381.79,6769.259999999999,-53234.145,5.86531581142965,16.594428432659605,13.188830453439058,2.2148702700234106,-2.184344622855053,-7.835128075108779,-3.6541725683131694,-1.1066685093434259,-0.11199922500000001,0.28051686,0.940122105,-18.40356,10.69726,-5.66146,69.0
1774822922.6504774,0.0016429424285888672,2026-03-29T22:22:02.650,2026-03-29T18:22:02.650,-32508.495,-45832.814999999995,-85042.98,-49950.945,-12553.154999999999,-17378.28,6772.094999999999,-53229.689999999995,5.930217257403032,15.881567911724094,13.328467904533113,3.6038707922414184,-0.6627301762152917,-8.702757781255366,-4.545679644470064,-0.6599343328282584,-0.11852997,0.27490164,0.942197295,-17.83894,10.681999999999999,-6.04296,69.0
1774822922.6504872,9.775161743164062e-06,2026-03-29T22:22:02.650,2026-03-29T18:22:02.650,-32510.43,-45843.795,-85057.02,-49959.09,-12565.574999999999,-17395.515,6761.205,-53227.71,3.0293945623600296,7.430703688956118,6.852057978293332,2.981619807121129,0.8468898679543432,-6.001275877013211,-3.46557131090185,-0.04041944045064067,-0.11852997,0.27490164,0.942197295,-17.83894,10.681999999999999,-6.04296,69.0
1774822922.6579845,0.007497310638427734,2026-03-29T22:22:02.657,2026-03-29T18:22:02.657,-32525.414999999997,-45895.275,-85089.015,-49970.159999999996,-12558.015,-17375.445,6775.605,-53226.18,-1.4087631750221934,-4.698531055541521,-3.2082850389032767,0.6409474549408875,1.627432474338943,-0.9466625036081496,-0.9637307030233558,0.48212985252026735,-0.11852997,0.27490164,0.942197295,-17.83894,10.681999999999999,-6.04296,69.0
1774822922.6580014,1.6927719116210938e-05,2026-03-29T22:22:02.658,2026-03-29T18:22:02.658,-32545.62,-45936.225,-85126.59,-49976.505,-12545.82,-17360.73,6783.705,-53232.57,-5.1684698038246495,-14.602485534706398,-11.952080593697668,-2.17752860493812,1.4392436858896223,4.316544516579046,1.8191057118336753,0.7344504825334093,-0.11852997,0.27490164,0.942197295,-17.83894,10.681999999999999,-6.04296,69.0
1774822922.660444,0.002442598342895508,2026-03-29T22:22:02.660,2026-03-29T18:22:02.660,-32540.94,-45924.57,-85120.425,-49968.945,-12539.025,-17344.125,6791.3099999999995,-53232.615,-6.358852878660541,-17.43061933591871,-15.015228312105284,-3.941724347368235,0.5719921801981429,7.624798565778004,3.678628091472839,0.687438361433439,-0.11852997,0.27490164,0.942197295,-17.83894,10.681999999999999,-6.04296,69.0
1774822922.6604605,1.6450881958007812e-05,2026-03-29T22:22:02.660,2026-03-29T18:22:02.660,-32535.36,-45904.634999999995,-85099.00499999999,-49963.005,-12533.76,-17315.954999999998,6792.48,-53228.744999999995,-4.371209436150763,-11.78430515629804,-10.758525608431174,-3.645837602347822,-0.37741637943527817,7.6910984896811545,3.8768251962762266,0.42926383626715153,-0.11852997,0.27490164,0.942197295,-17.83894,10.681999999999999,-6.04296,69.0
1774822922.6643505,0.0038900375366210938,2026-03-29T22:22:02.664,2026-03-29T18:22:02.664,-32535.27,-45887.13,-85076.055,-49952.97,-12539.205,-17315.415,6786.2699999999995,-53227.034999999996,-0.1936038722280378,-0.42000132255102074,-1.1369776699185232,-1.358220272072988,-0.8594005443121712,4.612490085238913,2.4369650244609558,0.09527190700825154,-0.11852997,0.27490164,0.942197295,-17.83894,10.681999999999999,-6.04296,69.0
1774822922.66437,1.9550323486328125e-05,2026-03-29T22:22:02.664,2026-03-29T18:22:02.664,-32532.164999999997,-45877.77,-85073.895,-49965.39,-12564.09,-17391.915,6763.724999999999,-53228.07,4.081161456874472,11.101874186383986,9.208579199001683,1.7904137502386681,-0.6637433911047725,-0.21563405022460957,0.08441915255645625,-0.1997365267587339,-0.11852997,0.27490164,0.942197295,-17.83894,10.681999999999999,-6.04296,69.0
1774822922.6671412,0.002771139144897461,2026-03-29T22:22:02.667,2026-03-29T18:22:02.667,-32509.44,-45845.189999999995,-85033.98,-49925.295,-12511.305,-17371.98,6771.195,-53219.204999999994,6.308504284476336,17.157180032098843,15.210480280814966,4.176515415748231,-0.0027457185906568098,-4.728404552807475,-2.118646374416156,-0.3941199926300932,-0.11852997,0.27490164,0.942197295,-17.83894,10.681999999999999,-6.04296,69.0
1774822922.6671586,1.7404556274414062e-05,2026-03-29T22:22:02.667,2026-03-29T18:22:02.667,-32504.219999999998,-45851.4,-85053.645,-49953.33,-12545.73,-17384.085,6763.455,-53213.715,5.37369914823014,14.827338996279726,13.874405242529896,4.519354837716374,0.6423598535336329,-7.082158767680451,-3.2605425904835137,-0.4724136017919032,-0.11852997,0.27490164,0.942197295,-17.83894,10.681999999999999,-6.04296,69.0
1774822922.6780674,0.010908842086791992,2026-03-29T22:22:02.678,2026-03-29T18:22:02.678,-32523.48,-45887.85,-85095.54,-49965.93,-12549.015,-17376.255,6771.509999999999,-53216.549999999996,1.7537256248978628,5.322468178661268,5.778440815789949,2.552916024176011,0.8152227053069597,-6.418918637730619,-2.9620051910023486,-0.43905778156794184,-0.111877155,0.26867607,0.941342805,-16.38924,11.490779999999999,-4.83742,69.0
1774822922.678089,2.1457672119140625e-05,2026-03-29T22:22:02.678,2026-03-29T18:22:02.678,-32553.629999999997,-45913.455,-85118.895,-49987.485,-12571.154999999999,-17393.579999999998,6778.17,-53226.854999999996,-2.725770681627533,-6.643516644650312,-5.182530278753386,-0.812898714804059,0.3540427423295205,-3.180946594454702,-1.4902271484082719,-0.3002137471965828,-0.111877155,0.26867607,0.941342805,-16.38924,11.490779999999999,-4.83742,69.0
1774822922.678108,1.9073486328125e-05,2026-03-29T22:22:02.678,2026-03-29T18:22:02.678,-32555.879999999997,-45910.259999999995,-85117.095,-50001.255,-12591.539999999999,-17414.73,6768.0,-53227.305,-5.814550585294611,-15.204427177526211,-13.691483703118633,-3.9286399561286016,-0.5080255816639383,1.1430665857421718,0.42231336031226635,-0.0683987813610111,-0.111877155,0.26867607,0.941342805,-16.38924,11.490779999999999,-4.83742,69.0
1774822922.6781125,4.5299530029296875e-06,2026-03-29T22:22:02.678,2026-03-29T18:22:02.678,-32536.305,-45883.575,-85081.14,-49966.47,-12556.529999999999,-17378.235,6766.605,-53218.89,-5.973276074656789,-16.24016455747232,-15.611675572455367,-5.222777290117241,-1.2642871948878083,4.7059439715632365,1.9442120414591122,0.21721043575133167,-0.111877155,0.26867607,0.941342805,-16.38924,11.490779999999999,-4.83742,69.0
1774822922.6808035,0.002691030502319336,2026-03-29T22:22:02.680,2026-03-29T18:22:02.680,-32527.44,-45874.215,-85070.52,-49957.965,-12546.72,-17366.489999999998,6769.3949999999995,-53210.384999999995,-3.1447202161555046,-9.378928640530068,-10.012090032324256,-3.9910616807687793,-1.413365606562363,6.104311940274486,2.51242494115578,0.477444542614058,-0.111877155,0.26867607,0.941342805,-16.38924,11.490779999999999,-4.83742,69.0
1774822922.6808279,2.4318695068359375e-05,2026-03-29T22:22:02.680,2026-03-29T18:22:02.680,-32524.425,-45871.2,-85066.965,-49956.39,-12545.324999999999,-17361.855,6769.53,-53204.4,1.2278187827242895,1.8792376458585751,0.38290543423196366,-0.7625112978054731,-0.7486857128723713,4.939529946155255,2.035182963771295,0.6076525609706158,-0.111877155,0.26867607,0.941342805,-16.38924,11.490779999999999,-4.83742,69.0
1774822922.687572,0.0067441463470458984,2026-03-29T22:22:02.687,2026-03-29T18:22:02.687,-32532.975,-45879.57,-85078.75499999999,-49969.17,-12558.6,-17373.329999999998,6777.405,-53207.28,4.939416453001461,11.952892250965512,10.536599369326353,2.9418556067782062,0.4959454711842235,1.9072355714758593,0.8601298626362405,0.5225466625577261,-0.111877155,0.26867607,0.941342805,-16.38924,11.490779999999999,-4.83742,69.0
1774822922.6876104,3.838539123535156e-05,2026-03-29T22:22:02.687,2026-03-29T18:22:02.687,-32532.57,-45877.994999999995,-85075.785,-49966.65,-12556.26,-17370.989999999998,6790.5,-53205.165,6.140170468846595,15.96527227279728,15.56599193517959,5.340192752063071,1.7288639937770978,-1.5907102416433578,-0.4447990626822891,0.21052658706872154,-0.111877155,0.26867607,0.941342805,-16.38924,11.490779999999999,-4.83742,69.0
1774822922.687641,3.0517578125e-05,2026-03-29T22:22:02.687,2026-03-29T18:22:02.687,-32545.395,-45886.455,-85073.805,-49955.13,-12536.145,-17342.954999999998,6794.009999999999,-53205.255,4.26159746831456,12.126233477363908,13.111824025405468,5.252888111334854,2.281333639121008,-4.103790230348626,-1.3689858172646092,-0.23615700995158456,-0.111877155,0.26867607,0.941342805,-16.38924,11.490779999999999,-4.83742,69.0
1774822922.6876533,1.239776611328125e-05,2026-03-29T22:22:02.687,2026-03-29T18:22:02.687,-32551.965,-45896.22,-85084.33499999999,-49972.905,-12565.98,-17381.43,6775.245,-53204.265,0.2865230360943543,2.536392832317988,4.452021973209914,2.6770197759652787,1.7541816832470627,-4.746362500668252,-1.657914864831007,-0.6414931681452777,-0.111877155,0.26867607,0.941342805,-16.38924,11.490779999999999,-4.83742,69.0
1774822922.7007482,0.013094902038574219,2026-03-29T22:22:02.700,2026-03-29T18:22:02.700,-32543.37,-45888.795,-85084.875,-49985.505,-12591.359999999999,-17415.495,6760.035,-53196.84,-3.76619757442166,-7.950885049451887,-6.170478394140856,-1.2049072768087985,0.25707699295465486,-3.5003268234736944,-1.3559955001843407,-0.8165409882663148,-0.11975067,0.26391534,0.946347675,-10.7583,10.056339999999999,-3.8760399999999997,69.0
1774822922.7007713,2.3126602172851562e-05,2026-03-29T22:22:02.700,2026-03-29T18:22:02.700,-32539.77,-45886.365,-85087.575,-49982.22,-12583.35,-17405.82,6761.429999999999,-53193.375,-5.871563328177368,-14.197945259306762,-13.649916808300045,-4.583303716090532,-1.5898759794915809,-1.107112621243258,-0.7064067742727898,-0.6514281870410049,-0.11975067,0.26391534,0.946347675,-10.7583,10.056339999999999,-3.8760399999999997,69.0
1774822922.700796,2.4557113647460938e-05,2026-03-29T22:22:02.700,2026-03-29T18:22:02.700,-32532.84,-45875.43,-85075.065,-49964.58,-12558.914999999999,-17374.184999999998,6776.28,-53186.534999999996,-5.015372898914179,-13.32078654204043,-14.498371329378871,-5.876190967486095,-2.913102249561636,1.3519695027555096,0.009447602535868118,-0.1819239560575734,-0.11975067,0.26391534,0.946347675,-10.7583,10.056339999999999,-3.8760399999999997,69.0
1774822922.700806,1.0013580322265625e-05,2026-03-29T22:22:02.700,2026-03-29T18:22:02.700,-32534.864999999998,-45873.045,-85079.655,-49971.015,-12567.42,-17386.02,6769.349999999999,-53185.86,-1.6849623413342387,-6.0328915116575415,-8.487700392705191,-4.471870029927637,-2.9952969057895094,2.9558586161962648,0.5956932150191255,0.40865897952010427,-0.11975067,0.26391534,0.946347675,-10.7583,10.056339999999999,-3.8760399999999997,69.0
1774822922.700819,1.3113021850585938e-05,2026-03-29T22:22:02.700,2026-03-29T18:22:02.700,-32530.454999999998,-45853.515,-85068.18,-49970.88,-12570.029999999999,-17388.63,6764.94,-53185.095,2.4049639831098744,3.837611165586747,1.32753611267297,-1.0105997432439378,-1.6483025957960216,3.2865238957333234,0.9733080778295695,0.8614824046629309,-0.11975067,0.26391534,0.946347675,-10.7583,10.056339999999999,-3.8760399999999997,69.0
1774822922.7008283,9.298324584960938e-06,2026-03-29T22:22:02.700,2026-03-29T18:22:02.700,-32531.985,-45851.445,-85061.11499999999,-49959.63,-12555.404999999999,-17371.8,6775.065,-53182.845,5.19878684516511,11.358051239302123,10.17533428716055,2.9204494645542365,0.6382904033828795,2.4864777943406273,1.1306568647945858,0.9593040765335779,-0.11975067,0.26391534,0.946347675,-10.7583,10.056339999999999,-3.8760399999999997,69.0
1774822922.7045074,0.003679037094116211,2026-03-29T22:22:02.704,2026-03-29T18:22:02.704,-32540.489999999998,-45879.93,-85075.605,-49964.759999999995,-12563.279999999999,-17385.57,6771.6449999999995,-53181.405,5.3389759474188665,12.973757509798533,13.912818610905997,5.527569919807642,2.8666471169890846,1.0618292487715844,1.0551970038122092,0.6337730699701152,-0.11975067,0.26391534,0.946347675,-10.7583,10.056339999999999,-3.8760399999999997,69.0
1774822922.704528,2.0742416381835938e-05,2026-03-29T22:22:02.704,2026-03-29T18:22:02.704,-32540.085,-45884.655,-85076.415,-49968.09,-12566.205,-17388.945,6768.405,-53179.47,2.829833243638784,8.20594327564369,10.98892294874653,5.635476553148658,3.965051791713621,-0.4182614977045029,0.711967771454261,0.008583602918499909,-0.11975067,0.26391534,0.946347675,-10.7583,10.056339999999999,-3.8760399999999997,69.0
1774822922.709041,0.0045130252838134766,2026-03-29T22:22:02.709,2026-03-29T18:22:02.709,-32535.899999999998,-45877.905,-85071.555,-49971.195,-12568.725,-17384.175,6768.8099999999995,-53178.615,-1.0005961568135513,-0.25452468253129884,3.0830024393518665,3.2151721264537634,3.2999030757832886,-1.552635438581022,0.09174266252300746,-0.6471744934786129,-0.11975067,0.26391534,0.946347675,-10.7583,10.056339999999999,-3.8760399999999997,69.0
1774822922.7090523,1.1205673217773438e-05,2026-03-29T22:22:02.709,2026-03-29T18:22:02.709,-32528.925,-45857.97,-85053.915,-49955.715,-12557.07,-17370.18,6774.884999999999,-53175.689999999995,-4.204128014222777,-8.039852872183433,-5.840782651187333,-0.6206479264530024,1.023219762065601,-2.172585077244209,-0.7079521062907566,-1.0378135152049668,-0.11975067,0.26391534,0.946347675,-10.7583,10.056339999999999,-3.8760399999999997,69.0
1774822922.71428,0.005227565765380859,2026-03-29T22:22:02.714,2026-03-29T18:22:02.714,-32530.635,-45862.56,-85056.61499999999,-49949.235,-12547.98,-17365.635,6773.085,-53175.329999999994,-5.20882537585686,-11.367342712375741,-11.539052364247812,-4.140028217054027,-1.9284715949885147,-2.261819119209826,-1.4418690778377503,-0.9778754768660193,-0.127380045,0.26660088,0.950742195,-8.13358,8.07254,-5.0358,69.0
1774822922.7143006,2.0742416381835938e-05,2026-03-29T22:22:02.714,2026-03-29T18:22:02.714,-32528.699999999997,-45862.784999999996,-85063.05,-49964.49,-12563.865,-17382.059999999998,6764.625,-53174.97,-3.596350003101051,-8.89677202682561,-11.533233011995186,-5.782108479862703,-4.214948047663549,-1.8407517735805279,-1.7749002012778485,-0.48195160593219166,-0.127380045,0.26660088,0.950742195,-8.13358,8.07254,-5.0358,69.0
1774822922.7169871,0.0026865005493164062,2026-03-29T22:22:02.716,2026-03-29T18:22:02.716,-32532.614999999998,-45883.395,-85068.045,-49960.845,-12562.47,-17372.385,6778.8,-53173.575,-0.2731770516891548,-2.2625572279344883,-6.1961258805271076,-4.851654063914364,-4.701636135983091,-0.9269247318588538,-1.4374777471445217,0.23673583689335087,-0.127380045,0.26660088,0.950742195,-8.13358,8.07254,-5.0358,69.0
1774822922.7170143,2.7179718017578125e-05,2026-03-29T22:22:02.717,2026-03-29T18:22:02.717,-32537.61,-45884.025,-85069.575,-49956.615,-12573.359999999999,-17374.454999999998,6784.38,-53176.409999999996,3.032769108813637,4.926542078990199,1.5992312134857076,-1.8086104041828597,-3.021386212717939,0.393915457386812,-0.405754580707207,0.8603454043958222,-0.127380045,0.26660088,0.950742195,-8.13358,8.07254,-5.0358,69.0
1774822922.7209072,0.0038928985595703125,2026-03-29T22:22:02.720,2026-03-29T18:22:02.720,-32526.315,-45851.265,-85051.08,-49963.275,-12589.47,-17397.09,6773.8949999999995,-53178.165,4.673426655592291,9.035621054937264,8.018987762991717,1.9647311377186614,0.18838313212635416,1.8541292802424378,1.003471862005181,1.1102149062765982,-0.127380045,0.26660088,0.950742195,-8.13358,8.07254,-5.0358,69.0
1774822922.7209327,2.5510787963867188e-05,2026-03-29T22:22:02.720,2026-03-29T18:22:02.720,-32515.965,-45817.38,-85015.395,-49950.765,-12567.195,-17391.375,6766.0199999999995,-53178.119999999995,3.9088871205741396,8.254867230776643,10.175210733248337,4.79910561075317,3.5152938964538216,2.9715491716594387,2.2066469784524783,0.8737091014930686,-0.127380045,0.26660088,0.950742195,-8.13358,8.07254,-5.0358,69.0
1774822922.724805,0.003872394561767578,2026-03-29T22:22:02.724,2026-03-29T18:22:02.724,-32519.204999999998,-45814.77,-85012.065,-49949.235,-12552.57,-17383.23,6761.5199999999995,-53179.47,1.243673219592869,3.405961932420707,7.443307555769565,5.481439122868658,5.393953335731153,3.186433473996224,2.5956087118445628,0.2552597167359406,-0.127380045,0.26660088,0.950742195,-8.13358,8.07254,-5.0358,69.0
1774822922.7248306,2.5510787963867188e-05,2026-03-29T22:22:02.724,2026-03-29T18:22:02.724,-32541.48,-45881.955,-85072.995,-49949.775,-12541.32,-17356.41,6785.19,-53176.185,-1.8829835366865044,-2.6600224526101104,1.5810539929358693,3.773758457488734,4.8475724217872935,2.1449590555361664,1.8476931102898115,-0.47155344230189405,-0.127380045,0.26660088,0.950742195,-8.13358,8.07254,-5.0358,69.0
1774822922.7290285,0.004197835922241211,2026-03-29T22:22:02.729,2026-03-29T18:22:02.729,-32552.684999999998,-45925.695,-85109.94,-49951.17,-12542.355,-17354.52,6787.98,-53176.275,-3.8708424091793887,-6.686680409866125,-4.327205437224778,0.4868780479215879,1.9965500706173704,-0.014547384558687478,0.14497007591250807,-0.9878704270747082,-0.127380045,0.26660088,0.950742195,-8.13358,8.07254,-5.0358,69.0
1774822922.729044,1.5497207641601562e-05,2026-03-29T22:22:02.729,2026-03-29T18:22:02.729,-32552.73,-45908.729999999996,-85096.89,-49944.015,-12538.395,-17348.67,6776.955,-53182.305,-3.7822554749343604,-6.753407997764884,-7.492849403467935,-2.9078899447618256,-1.9308119628135214,-2.5646263971657017,-1.8332820631410003,-1.0717808010302408,-0.127380045,0.26660088,0.950742195,-8.13358,8.07254,-5.0358,69.0
1774822922.733968,0.00492405891418457,2026-03-29T22:22:02.733,2026-03-29T18:22:02.733,-32542.829999999998,-45869.939999999995,-85074.39,-49939.965,-12514.545,-17325.18,6771.554999999999,-53183.34,-1.7902550720437735,-3.206596112709069,-6.759731995052439,-4.942180016755346,-5.124597298407468,-4.403086567705253,-3.177889979205841,-0.6942840837780698,-0.11498994,0.27673269,0.95397705,-11.078759999999999,9.72062,-1.43444,69.0
1774822922.7339904,2.2411346435546875e-05,2026-03-29T22:22:02.733,2026-03-29T18:22:02.733,-32530.68,-45845.46,-85067.28,-49961.43,-12544.695,-17353.755,6773.3099999999995,-53180.729999999996,0.9654000351158902,1.6766853394688168,-3.006270866358061,-4.7887662643365285,-6.033930158989339,-4.536627773253737,-3.174106126860311,-0.027257745774397667,-0.11498994,0.27673269,0.95397705,-11.078759999999999,9.72062,-1.43444,69.0
1774822922.7370155,0.003025054931640625,2026-03-29T22:22:02.737,2026-03-29T18:22:02.737,-32518.62,-45843.119999999995,-85058.64,-49968.854999999996,-12577.365,-17400.465,6765.705,-53176.049999999996,3.016261937914651,5.053397091695395,1.5148118068908956,-2.5966052303316323,-4.129574296952639,-2.6190944128499845,-1.6823117966211485,0.6371695926122675,-0.11498994,0.27673269,0.95397705,-11.078759999999999,9.72062,-1.43444,69.0
1774822922.7370365,2.09808349609375e-05,2026-03-29T22:22:02.737,2026-03-29T18:22:02.737,-32539.454999999998,-45899.415,-85088.565,-49967.145,-12563.279999999999,-17377.02,6783.12,-53173.935,3.3457910321948603,5.122732292522025,4.47248532577657,0.6118949728295318,-0.2098444532424831,0.7468590303800646,0.7275147878590514,1.016808503778843,-0.11498994,0.27673269,0.95397705,-11.078759999999999,9.72062,-1.43444,69.0
1774822922.7409673,0.003930807113647461,2026-03-29T22:22:02.740,2026-03-29T18:22:02.740,-32556.914999999997,-45942.795,-85129.37999999999,-49978.259999999995,-12562.289999999999,-17372.925,6784.155,-53172.54,1.8988135079281236,2.0866128234983514,4.664192728446789,3.4193918777859302,3.925647788404271,4.155564457491046,2.984590180158875,0.9599812968178087,-0.11498994,0.27673269,0.95397705,-11.078759999999999,9.72062,-1.43444,69.0
1774822922.7409918,2.4557113647460938e-05,2026-03-29T22:22:02.740,2026-03-29T18:22:02.740,-32558.94,-45921.689999999995,-85108.00499999999,-49964.265,-12557.205,-17368.649999999998,6771.509999999999,-53177.939999999995,-0.43746003474563727,-2.0485446197804125,2.507779720407092,4.644041054927766,6.306808958062812,5.988220117652112,3.998441635456323,0.5046271470674478,-0.11498994,0.27673269,0.95397705,-11.078759999999999,9.72062,-1.43444,69.0
1774822922.7462113,0.005219459533691406,2026-03-29T22:22:02.746,2026-03-29T18:22:02.746,-32542.425,-45889.92,-85070.655,-49940.28,-12537.855,-17346.555,6782.085,-53168.85,-2.3511389923048043,-4.688762755877098,-0.3834671266338216,3.8403719779559435,5.743799019046121,5.199052263059517,3.193994737417438,-0.14613987244825644,-0.11498994,0.27673269,0.95397705,-11.078759999999999,9.72062,-1.43444,69.0
1774822922.746234,2.2649765014648438e-05,2026-03-29T22:22:02.746,2026-03-29T18:22:02.746,-32536.934999999998,-45884.97,-85086.27,-49963.049999999996,-12560.805,-17378.505,6781.275,-53166.78,-2.8292147241415293,-4.184757110817881,-2.2380843184995753,1.4572135205901313,2.434085930687478,1.9091698065727358,0.8348186643009379,-0.7167002012953095,-0.11498994,0.27673269,0.95397705,-11.078759999999999,9.72062,-1.43444,69.0
1774822922.7504597,0.004225730895996094,2026-03-29T22:22:02.750,2026-03-29T18:22:02.750,-32541.93,-45887.13,-85089.735,-49968.09,-12566.88,-17385.48,6775.29,-53168.985,-1.6932522051057415,-0.8073176814746472,-2.15698062048132,-1.4014487188897273,-2.0888362641102716,-2.526628733122679,-2.045453525146389,-0.9765060590962606,-0.11498994,0.27673269,0.95397705,-11.078759999999999,9.72062,-1.43444,69.0
1774822922.7504897,3.0040740966796875e-05,2026-03-29T22:22:02.750,2026-03-29T18:22:02.750,-32544.719999999998,-45889.155,-85090.545,-49972.095,-12572.234999999999,-17386.739999999998,6776.55,-53168.04,0.3353237962256503,3.3907694399531354,-0.5575434643718085,-3.4897944171503816,-5.6657786058869695,-6.073784872402341,-4.098353611743377,-0.8320046321222287,-0.11498994,0.27673269,0.95397705,-11.078759999999999,9.72062,-1.43444,69.0
1774822922.7529044,0.002414703369140625,2026-03-29T22:22:02.752,2026-03-29T18:22:02.752,-32544.629999999997,-45886.185,-85088.925,-49971.735,-12573.045,-17389.44,6774.705,-53166.24,2.063174346587511,5.75743871182126,1.1904853103675566,-3.9689967799588226,-6.553163313218349,-6.969439501801836,-4.301142242245644,-0.3570322297815494,-0.109435755,0.28430103,0.95531982,-13.703479999999999,10.26998,0.35097999999999996,69.0
1774822922.7529316,2.7179718017578125e-05,2026-03-29T22:22:02.752,2026-03-29T18:22:02.752,-32539.59,-45877.545,-85077.62999999999,-49963.049999999996,-12568.904999999999,-17388.495,6774.12,-53164.439999999995,2.5021531979645513,4.608619737055829,1.6898760099678751,-2.7476604370554654,-4.289091715878685,-4.618928676749891,-2.474516942551711,0.24600071140165913,-0.109435755,0.28430103,0.95531982,-13.703479999999999,10.26998,0.35097999999999996,69.0
1774822922.7569728,0.004041194915771484,2026-03-29T22:22:02.756,2026-03-29T18:22:02.756,-32539.454999999998,-45878.67,-85078.62,-49963.725,-12567.465,-17384.445,6773.759999999999,-53162.909999999996,1.4204205076800978,0.2897491582488273,0.43668642353474435,-0.4738170026177934,0.05258636778945324,0.026221178805674213,0.5877109569114346,0.7333015590467699,-0.109435755,0.28430103,0.95531982,-13.703479999999999,10.26998,0.35097999999999996,69.0
1774822922.7569947,2.193450927734375e-05,2026-03-29T22:22:02.756,2026-03-29T18:22:02.756,-32542.559999999998,-45879.75,-85078.395,-49959.09,-12556.395,-17367.975,6774.615,-53165.34,-0.5342156001067728,-4.895987009685121,-1.8184513823891328,1.7991042040849072,4.3646284343758674,4.840979947586942,3.462160626074063,0.9172629976114441,-0.109435755,0.28430103,0.95531982,-13.703479999999999,10.26998,0.35097999999999996,69.0
1774822922.761354,0.004359245300292969,2026-03-29T22:22:02.761,2026-03-29T18:22:02.761,-32540.625,-45874.935,-85067.055,-49942.305,-12532.77,-17339.715,6779.88,-53166.329999999994,-2.204151958596012,-7.9006550240341324,-3.4957985302012227,3.1043426805614205,6.533879608496839,7.512149615100359,4.76496205858795,0.7360037358515413,-0.109435755,0.28430103,0.95531982,-13.703479999999999,10.26998,0.35097999999999996,69.0
1774822922.7613788,2.47955322265625e-05,2026-03-29T22:22:02.761,2026-03-29T18:22:02.761,-32531.355,-45864.585,-85054.31999999999,-49926.78,-12516.3,-17323.38,6786.045,-53162.28,-2.5796900255478468,-6.651482205710639,-3.164480507486334,2.9809659453880513,5.491321242675808,6.674116054987925,3.8286453440607073,0.2707786179393455,-0.109435755,0.28430103,0.95531982,-13.703479999999999,10.26998,0.35097999999999996,69.0
1774822922.7665415,0.005162715911865234,2026-03-29T22:22:02.766,2026-03-29T18:22:02.766,-32533.875,-45870.255,-85071.015,-49955.13,-12557.744999999999,-17373.42,6776.6849999999995,-53160.75,-1.3805260047009726,-1.331520133287138,-0.5041351709837782,1.634793167429153,1.7571653947697403,2.6275697062228045,1.051313036643363,-0.2912753317269627,-0.109435755,0.28430103,0.95531982,-13.703479999999999,10.26998,0.35097999999999996,69.0
1774822922.766558,1.6450881958007812e-05,2026-03-29T22:22:02.766,2026-03-29T18:22:02.766,-32538.149999999998,-45877.814999999995,-85089.42,-49982.13,-12595.185,-17417.024999999998,6760.844999999999,-53161.064999999995,0.763680291358316,5.525049386520334,3.3340944204434018,-0.21509067055608505,-2.804221908786536,-2.7441157668372353,-2.2670944132205126,-0.7316217298235812,-0.109435755,0.28430103,0.95531982,-13.703479999999999,10.26998,0.35097999999999996,69.0
1774822922.7689648,0.0024068355560302734,2026-03-29T22:22:02.768,2026-03-29T18:22:02.768,-32537.969999999998,-45877.095,-85083.48,-49966.02,-12571.064999999999,-17388.18,6769.17,-53158.814999999995,2.6414426398227833,10.249584474718818,6.2307950389494655,-1.7111069300358037,-5.910530596971015,-6.855301756716825,-4.537255101344646,-0.882944524689327,-0.109435755,0.28430103,0.95531982,-13.703479999999999,10.26998,0.35097999999999996,69.0
1774822922.7689812,1.6450881958007812e-05,2026-03-29T22:22:02.768,2026-03-29T18:22:02.768,-32536.035,-45873.54,-85073.58,-49955.445,-12559.14,-17373.645,6768.405,-53159.085,3.125736384022555,9.978071147859595,6.242310653485598,-2.261871086159149,-6.010828417265739,-7.682420002882358,-4.651345028020035,-0.6901497340158254,-0.109435755,0.28430103,0.95531982,-13.703479999999999,10.26998,0.35097999999999996,69.0
1774822922.7791972,0.010215997695922852,2026-03-29T22:22:02.779,2026-03-29T18:22:02.779,-32533.559999999998,-45870.39,-85073.805,-49953.24,-12553.109999999999,-17364.015,6771.554999999999,-53156.924999999996,1.8182131254103038,4.295439269537804,2.776369592854514,-1.783194955759815,-3.076525835749515,-4.786070098755365,-2.534272659102987,-0.22909542082516446,-0.126159345,0.27758718,0.9525732450000001,-9.26282,8.36248,-0.06104,69.0
1774822922.7792103,1.3113021850585938e-05,2026-03-29T22:22:02.779,2026-03-29T18:22:02.779,-32532.975,-45873.54,-85075.56,-49952.07,-12546.765,-17355.78,6781.005,-53155.125,-0.6859781514763956,-4.328592157788308,-2.8738910183067405,-0.6731258453195906,1.375760735900819,0.43531242228832184,0.8033817970413467,0.3225344703736331,-0.126159345,0.27758718,0.9525732450000001,-9.26282,8.36248,-0.06104,69.0
1774822922.7792225,1.2159347534179688e-05,2026-03-29T22:22:02.779,2026-03-29T18:22:02.779,-32532.03,-45868.634999999995,-85070.205,-49951.71,-12553.38,-17366.445,6774.929999999999,-53158.049999999996,-3.0728741869086096,-11.625207227378407,-8.001572044285837,0.4443751927669325,5.052877677106475,5.411975875115932,3.7473505691141025,0.7515665368653752,-0.126159345,0.27758718,0.9525732450000001,-9.26282,8.36248,-0.06104,69.0
1774822922.779227,4.5299530029296875e-06,2026-03-29T22:22:02.779,2026-03-29T18:22:02.779,-32536.89,-45872.82,-85077.54,-49963.994999999995,-12572.46,-17390.204999999998,6764.67,-53159.445,-3.9949796987509925,-13.649688184009003,-9.79630575044434,1.059434911519232,6.0616443626226335,7.67556668672433,4.866831366786887,0.8895227205949431,-0.126159345,0.27758718,0.9525732450000001,-9.26282,8.36248,-0.06104,69.0
1774822922.7833393,0.00411224365234375,2026-03-29T22:22:02.783,2026-03-29T18:22:02.783,-32541.48,-45878.58,-85080.59999999999,-49964.67,-12569.625,-17383.14,6771.285,-53157.329999999994,-2.810842809498459,-8.880331234434681,-6.851890312593153,1.019021742818547,3.891566475903635,6.104610299365186,3.6201488611252355,0.6778715208523897,-0.126159345,0.27758718,0.9525732450000001,-9.26282,8.36248,-0.06104,69.0
1774822922.7833555,1.621246337890625e-05,2026-03-29T22:22:02.783,2026-03-29T18:22:02.783,-32544.18,-45879.93,-85082.94,-49974.255,-12587.58,-17405.64,6768.675,-53155.17,0.019758427901384306,0.8124758917976291,-0.0730510604010203,0.5527784203711918,-0.3089912762509797,1.5063785335861861,0.6265300395850256,0.19358910148374942,-0.126159345,0.27758718,0.9525732450000001,-9.26282,8.36248,-0.06104,69.0
1774822922.78337,1.4543533325195312e-05,2026-03-29T22:22:02.783,2026-03-29T18:22:02.783,-32542.515,-45878.04,-85082.44499999999,-49972.275,-12584.654999999999,-17406.18,6763.724999999999,-53153.549999999996,3.113701619983947,10.897757864531895,7.5545820417882,0.08405418141106728,-4.318678192019759,-3.776173573336658,-2.636326869855073,-0.37661313336772534,-0.126159345,0.27758718,0.9525732450000001,-9.26282,8.36248,-0.06104,69.0
1774822922.7833772,7.152557373046875e-06,2026-03-29T22:22:02.783,2026-03-29T18:22:02.783,-32540.265,-45875.655,-85071.23999999999,-49958.189999999995,-12567.914999999999,-17388.765,6761.16,-53151.39,4.8466587050891645,16.330330259754025,12.302930725836012,-0.05453574913856817,-6.000161681287096,-7.049164966801198,-4.563164280458023,-0.8063436086512662,-0.126159345,0.27758718,0.9525732450000001,-9.26282,8.36248,-0.06104,69.0
1774822922.79027,0.0068929195404052734,2026-03-29T22:22:02.790,2026-03-29T18:22:02.790,-32540.489999999998,-45876.869999999995,-85064.355,-49946.49,-12550.949999999999,-17364.555,6763.545,-53148.329999999994,4.199948703265479,14.081586239382508,11.536334115620727,0.16831010858076612,-4.432283316094765,-6.6484812491110885,-4.218195927130944,-0.9188668180972285,-0.126159345,0.27758718,0.9525732450000001,-9.26282,8.36248,-0.06104,69.0
1774822922.7902822,1.2159347534179688e-05,2026-03-29T22:22:02.790,2026-03-29T18:22:02.790,-32542.829999999998,-45878.805,-85076.81999999999,-49958.505,-12556.17,-17371.035,6762.735,-53153.055,1.3323322330468845,4.780634276279402,5.132907559947059,0.4708085793420452,-0.4207981692756883,-2.806504749701693,-1.7993399049720644,-0.660836397419682,-0.126159345,0.27758718,0.9525732450000001,-9.26282,8.36248,-0.06104,69.0
1774822922.7927487,0.002466440200805664,2026-03-29T22:22:02.792,2026-03-29T18:22:02.792,-32537.204999999998,-45867.825,-85069.26,-49961.07,-12560.67,-17376.66,6761.295,-53153.729999999996,-2.43534678390147,-7.4079119196413235,-4.260708373119995,0.4545910343926012,3.8964656051930633,2.453456571389152,1.4647744707238264,-0.12903531254457307,-0.131774565,0.2648919,0.9531225600000001,-2.71628,6.9433,0.10682,69.0
1774822922.7927625,1.3828277587890625e-05,2026-03-29T22:22:02.792,2026-03-29T18:22:02.792,-32534.82,-45863.145,-85066.02,-49968.494999999995,-12578.895,-17393.13,6759.495,-53156.34,-5.23976900890677,-16.68289874165525,-12.342790971509771,-0.10506363167684551,6.163908095256654,6.357391133304568,3.9348826391731793,0.4640543068128498,-0.131774565,0.2648919,0.9531225600000001,-2.71628,6.9433,0.10682,69.0
1774822922.8046207,0.011858224868774414,2026-03-29T22:22:02.804,2026-03-29T18:22:02.804,-32531.67,-45859.545,-85062.465,-49957.155,-12566.52,-17380.755,6771.285,-53155.89,-5.6030157251891275,-18.39995299048354,-15.15903912528583,-1.0528621847566846,5.070130251086586,6.829497189333655,4.386601887225121,0.874943415817398,-0.131774565,0.2648919,0.9531225600000001,-2.71628,6.9433,0.10682,69.0
1774822922.8046467,2.5987625122070312e-05,2026-03-29T22:22:02.804,2026-03-29T18:22:02.804,-32533.289999999997,-45869.895,-85068.58499999999,-49954.365,-12558.6,-17375.445,6771.87,-53155.395,-3.2034974511644516,-11.398749328910693,-11.046111424096607,-1.8718447967337146,1.0902093508731374,3.5983200159470434,2.6244705299458535,0.9305815635499229,-0.131774565,0.2648919,0.9531225600000001,-2.71628,6.9433,0.10682,69.0
1774822922.8046725,2.574920654296875e-05,2026-03-29T22:22:02.804,2026-03-29T18:22:02.804,-32538.375,-45887.58,-85080.825,-49961.88,-12566.52,-17383.95,6769.259999999999,-53155.979999999996,0.9097533969047612,1.3044500437892625,-1.555615597697079,-1.9451697110309858,-3.705037918414257,-1.6291314550573925,-0.42651279653418317,0.6034985869379826,-0.131774565,0.2648919,0.9531225600000001,-2.71628,6.9433,0.10682,69.0
1774822922.8046827,1.0251998901367188e-05,2026-03-29T22:22:02.804,2026-03-29T18:22:02.804,-32536.664999999997,-45873.765,-85072.59,-49965.57,-12572.414999999999,-17390.745,6764.67,-53161.11,4.787078317956294,13.84725775378296,9.136884719066815,-0.9355474526757485,-6.704814042148555,-6.038945777842079,-3.19811635356361,0.026722448596968016,-0.131774565,0.2648919,0.9531225600000001,-2.71628,6.9433,0.10682,69.0
1774822922.804692,9.298324584960938e-06,2026-03-29T22:22:02.804,2026-03-29T18:22:02.804,-32528.114999999998,-45851.985,-85051.53,-49956.345,-12565.619999999999,-17382.329999999998,6767.594999999999,-53161.155,6.516358605245288,20.272491514267912,16.108165288994186,0.9301228794324076,-6.148672349935082,-7.192874132321443,-4.2815431805527915,-0.560307096035395,-0.131774565,0.2648919,0.9531225600000001,-2.71628,6.9433,0.10682,69.0
1774822922.8046985,6.4373016357421875e-06,2026-03-29T22:22:02.804,2026-03-29T18:22:02.804,-32522.355,-45835.965,-85035.42,-49950.045,-12561.93,-17378.01,6766.335,-53159.354999999996,5.1714550733057045,17.387620640487906,15.986520375705798,2.8574298693126363,-2.1221565653668146,-4.352009894708227,-3.1456794810285063,-0.9130445197450789,-0.131774565,0.2648919,0.9531225600000001,-2.71628,6.9433,0.10682,69.0
1774822922.8092844,0.004585981369018555,2026-03-29T22:22:02.809,2026-03-29T18:22:02.809,-32519.835,-45826.155,-85023.54,-49948.244999999995,-12567.195,-17384.67,6756.03,-53158.59,1.297647959136428,6.345199033705779,8.584341554018337,3.81321114891823,3.3918487337529957,1.0676851265555243,-0.403601801655708,-0.8865855066531632,-0.131774565,0.2648919,0.9531225600000001,-2.71628,6.9433,0.10682,69.0
1774822922.8093092,2.47955322265625e-05,2026-03-29T22:22:02.809,2026-03-29T18:22:02.809,-32526.855,-45851.715,-85049.50499999999,-49952.52,-12562.02,-17376.434999999998,6761.07,-53156.115,-3.316995850629086,-7.837350491227399,-2.928639518115037,3.055355209826429,7.477617790964952,6.180210984704471,2.5089977664176866,-0.497433142758123,-0.131774565,0.2648919,0.9531225600000001,-2.71628,6.9433,0.10682,69.0
1774822922.812828,0.003518819808959961,2026-03-29T22:22:02.812,2026-03-29T18:22:02.812,-32541.795,-45911.07,-85097.97,-49955.13,-12546.9,-17360.325,6775.425,-53153.505,-6.484393609170188,-18.60774731525529,-13.420891068709528,0.6002143778266906,7.802292029178827,8.131198518656154,4.077992974070663,0.08540378279907897,-0.11737030500000001,0.25988703,0.9478735500000001,-2.8994,8.97288,-0.97664,69.0
1774822922.812844,1.5974044799804688e-05,2026-03-29T22:22:02.812,2026-03-29T18:22:02.812,-32545.98,-45909.945,-85095.72,-49950.405,-12537.404999999999,-17347.77,6778.71,-53150.579999999994,-6.668158624257378,-20.95331723447001,-18.129764891215526,-2.640234109890278,3.9040288780171437,5.64697068386653,3.4943400128760165,0.6157702265784938,-0.11737030500000001,0.25988703,0.9478735500000001,-2.8994,8.97288,-0.97664,69.0
1774822922.8170476,0.0042035579681396484,2026-03-29T22:22:02.817,2026-03-29T18:22:02.817,-32533.245,-45871.29,-85063.635,-49941.405,-12535.38,-17345.204999999998,6782.3099999999995,-53146.53,-3.7321760605517387,-13.755039539372515,-14.847627091650187,-5.178266657873965,-2.4434000668202893,-0.19419948500313816,1.0724871289571958,0.8777631933048047,-0.11737030500000001,0.25988703,0.9478735500000001,-2.8994,8.97288,-0.97664,69.0
1774822922.817073,2.5510787963867188e-05,2026-03-29T22:22:02.817,2026-03-29T18:22:02.817,-32521.05,-45838.259999999995,-85052.47499999999,-49974.705,-12594.33,-17408.024999999998,6753.195,-53151.704999999994,0.9805838641498629,-0.30508876801239254,-4.947950228889869,-5.626359130755202,-8.032196212801496,-6.41547270391702,-1.913364227783108,0.7765931301855504,-0.11737030500000001,0.25988703,0.9478735500000001,-2.8994,8.97288,-0.97664,69.0
1774822922.8256385,0.008565425872802734,2026-03-29T22:22:02.825,2026-03-29T18:22:02.825,-32519.34,-45820.439999999995,-85034.745,-49972.365,-12593.475,-17383.364999999998,6756.48,-53151.345,5.2796088684041775,13.245029439657655,7.22229699111618,-3.4252582745623736,-9.828669486873856,-9.636326963749134,-3.8918507463614223,0.3729727625314796,-0.11737030500000001,0.25988703,0.9478735500000001,-2.8994,8.97288,-0.97664,69.0
1774822922.8256595,2.09808349609375e-05,2026-03-29T22:22:02.825,2026-03-29T18:22:02.825,-32515.515,-45804.6,-85005.62999999999,-49953.104999999996,-12587.85,-17377.605,6754.86,-53153.729999999996,7.163951582949302,20.75343585464334,16.29837147610172,0.7475851572108921,-6.586035616162429,-7.865657383572599,-3.813911999097154,-0.15180110004095929,-0.11737030500000001,0.25988703,0.9478735500000001,-2.8994,8.97288,-0.97664,69.0
1774822922.8299568,0.0042972564697265625,2026-03-29T22:22:02.829,2026-03-29T18:22:02.829,-32519.43,-45817.83,-85015.035,-49948.604999999996,-12576.105,-17410.905,6756.4349999999995,-53151.03,5.765246430971215,18.910159777101967,18.29883737475564,5.142623160410034,0.3837820424280385,-1.6567923470930186,-1.7041618490433403,-0.5806683107529118,-0.11737030500000001,0.25988703,0.9478735500000001,-2.8994,8.97288,-0.97664,69.0
1774822922.8299856,2.8848648071289062e-05,2026-03-29T22:22:02.829,2026-03-29T18:22:02.829,-32531.489999999998,-45875.115,-85062.69,-49947.975,-12552.705,-17406.72,6764.49,-53144.325,1.7467227493958253,8.697561724208015,12.379673344949994,7.665570031209404,7.7294402559580675,6.0210165779528255,1.34408823965651,-0.7543792882389531,-0.11737030500000001,0.25988703,0.9478735500000001,-2.8994,8.97288,-0.97664,69.0
1774822922.830004,1.8358230590820312e-05,2026-03-29T22:22:02.830,2026-03-29T18:22:02.830,-32538.87,-45910.979999999996,-85091.625,-49964.265,-12571.515,-17396.82,6764.715,-53137.125,-3.0247471539365183,-5.156140858921976,1.1649869864859415,6.868706323381047,11.671739806554447,11.196958252416302,3.7314255286499116,-0.6314983958935165,-0.11737030500000001,0.25988703,0.9478735500000001,-2.8994,8.97288,-0.97664,69.0
1774822922.8300142,1.0251998901367188e-05,2026-03-29T22:22:02.830,2026-03-29T18:22:02.830,-32543.46,-45921.869999999995,-85109.31,-49960.665,-12554.82,-17370.09,6774.525,-53133.165,-6.365809383284937,-16.419909688313542,-10.460783440380208,2.739449051452555,9.931809370381744,10.926722437505916,4.184256986517132,-0.29145944149160835,-0.11737030500000001,0.25988703,0.9478735500000001,-2.8994,8.97288,-0.97664,69.0
1774822922.8392897,0.009275436401367188,2026-03-29T22:22:02.839,2026-03-29T18:22:02.839,-32546.565,-45917.685,-85103.73,-49951.485,-12544.605,-17355.915,6782.4,-53134.02,-6.792516577658345,-20.211164853916962,-17.522196027484984,-3.129696454355028,2.9972904508612523,4.906682421377151,2.42561243870589,0.11410308785395507,-0.11108370000000001,0.26623467,0.9436621350000001,-9.11022,12.08592,1.25132,69.0
1774822922.8393025,1.2874603271484375e-05,2026-03-29T22:22:02.839,2026-03-29T18:22:02.839,-32540.355,-45901.979999999996,-85084.29,-49949.415,-12548.97,-17363.114999999998,6774.4349999999995,-53135.64,-4.184527826965002,-15.12772541982284,-17.099756295428694,-8.14021918854444,-5.959912010973974,-4.190692390125288,-0.6656725225208614,0.4330591814649071,-0.11108370000000001,0.26623467,0.9436621350000001,-9.11022,12.08592,1.25132,69.0
1774822922.8393142,1.1682510375976562e-05,2026-03-29T22:22:02.839,2026-03-29T18:22:02.839,-32525.37,-45872.64,-85073.535,-49953.509999999995,-12558.015,-17376.614999999998,6754.545,-53136.225,0.20200832978325223,-3.7223308409298834,-9.519740298435183,-9.839144910652896,-12.542288915868541,-11.905770068825714,-3.495668362255784,0.571815195268502,-0.11108370000000001,0.26623467,0.9436621350000001,-9.11022,12.08592,1.25132,69.0
1774822922.8393188,4.5299530029296875e-06,2026-03-29T22:22:02.839,2026-03-29T18:22:02.839,-32510.385,-45846.045,-85049.055,-49939.244999999995,-12550.185,-17368.425,6748.29,-53135.909999999996,4.3554920403110495,8.812727407516235,1.8878019481815476,-7.112521736039675,-13.287324649076506,-14.1749209459235,-4.574103062702632,0.5174556983447693,-0.11108370000000001,0.26623467,0.9436621350000001,-9.11022,12.08592,1.25132,69.0
1774822922.8409572,0.0016384124755859375,2026-03-29T22:22:02.840,2026-03-29T18:22:02.840,-32503.274999999998,-45829.665,-85031.415,-49930.424999999996,-12546.63,-17364.69,6762.0599999999995,-53126.82,6.450092380087289,17.06040480468235,12.29424113876826,-0.8426212690958986,-7.466670669734195,-9.438961120609317,-3.2913042003454063,0.3209858415269891,-0.11108370000000001,0.26623467,0.9436621350000001,-9.11022,12.08592,1.25132,69.0
1774822922.840974,1.6927719116210938e-05,2026-03-29T22:22:02.840,2026-03-29T18:22:02.840,-32538.015,-45890.189999999995,-85070.79,-49956.884999999995,-12562.92,-17375.489999999998,6784.74,-53128.079999999994,5.6582972395396505,17.746789900245943,17.440224491595178,6.337758465942712,2.403779322218443,0.4068290488405688,-0.2507470275402549,0.05963292543390026,-0.11108370000000001,0.26623467,0.9436621350000001,-9.11022,12.08592,1.25132,69.0
1774822922.844764,0.0037899017333984375,2026-03-29T22:22:02.844,2026-03-29T18:22:02.844,-32556.6,-45915.615,-85098.465,-49968.99,-12564.404999999999,-17372.385,6785.505,-53129.115,2.4686544651684197,11.01451939302056,15.369162157452987,11.151123194840263,11.658802057940962,10.765737916764545,3.0202031864841055,-0.19682391365199786,-0.11108370000000001,0.26623467,0.9436621350000001,-9.11022,12.08592,1.25132,69.0
1774822922.8447888,2.47955322265625e-05,2026-03-29T22:22:02.844,2026-03-29T18:22:02.844,-32551.695,-45905.04,-85095.765,-49966.38,-12560.939999999999,-17370.225,6777.855,-53125.2,-1.6076790129120722,0.12219581181479641,7.127420008914804,11.177307231790568,15.703961443222633,16.499828530188687,4.840263582577546,-0.3992462370668652,-0.11108370000000001,0.26623467,0.9436621350000001,-9.11022,12.08592,1.25132,69.0
1774822922.849089,0.004300117492675781,2026-03-29T22:22:02.849,2026-03-29T18:22:02.849,-32545.44,-45892.845,-85087.44,-49973.31,-12576.734999999999,-17392.995,6765.21,-53121.645,-4.769094741722407,-10.170743882093596,-3.791999318925974,6.060588951832287,12.297096774307546,14.475162622159715,4.235246535853856,-0.5127448477352067,-0.11108370000000001,0.26623467,0.9436621350000001,-9.11022,12.08592,1.25132,69.0
1774822922.8490996,1.0728836059570312e-05,2026-03-29T22:22:02.849,2026-03-29T18:22:02.849,-32537.43,-45879.75,-85072.59,-49959.674999999996,-12562.695,-17379.36,6767.955,-53116.155,-5.7327067786855626,-15.717545000773002,-12.956826867357039,-2.1771759813406057,2.7565401212687717,5.230641986894587,1.4498835547373725,-0.5060439547286207,-0.11108370000000001,0.26623467,0.9436621350000001,-9.11022,12.08592,1.25132,69.0
1774822922.8529832,0.0038836002349853516,2026-03-29T22:22:02.852,2026-03-29T18:22:02.852,-32536.305,-45879.615,-85077.135,-49964.04,-12567.105,-17383.454999999998,6765.255,-53111.97,-4.251265727239952,-14.641893794099765,-16.790457300864645,-9.92799151140497,-8.543769848907349,-7.104006879393972,-2.155257226729105,-0.35393973960752023,-0.113586135,0.27075126,0.941342805,-18.20518,14.6496,0.62566,69.0
1774822922.852999,1.5735626220703125e-05,2026-03-29T22:22:02.852,2026-03-29T18:22:02.852,-32530.995,-45873.494999999995,-85077.58499999999,-49972.229999999996,-12582.494999999999,-17404.785,6756.48,-53109.9,-1.1320938439979185,-7.885660284656641,-13.931139676763708,-13.588615801298285,-16.202091704408677,-16.674954815691418,-4.7760470664388315,-0.05830464175349265,-0.113586135,0.27075126,0.941342805,-18.20518,14.6496,0.62566,69.0
1774822922.8575335,0.004534482955932617,2026-03-29T22:22:02.857,2026-03-29T18:22:02.857,-32526.18,-45865.439999999995,-85067.50499999999,-49963.77,-12574.17,-17397.36,6761.474999999999,-53104.59,2.203933376996781,1.4549097158913082,-5.66119406894332,-11.244819714283874,-16.389093428626442,-18.701716852161525,-5.070591028388131,0.32488192620661177,-0.113586135,0.27075126,0.941342805,-18.20518,14.6496,0.62566,69.0
1774822922.857571,3.743171691894531e-05,2026-03-29T22:22:02.857,2026-03-29T18:22:02.857,-32525.82,-45859.86,-85059.62999999999,-49959.54,-12568.994999999999,-17390.385,6763.679999999999,-53102.744999999995,4.3825335210640075,9.57989634682129,4.693028925892259,-3.657263232264276,-8.75991697459818,-11.858871132410071,-2.842099073197255,0.6765206345203433,-0.113586135,0.27075126,0.941342805,-18.20518,14.6496,0.62566,69.0
1774822922.8612328,0.0036618709564208984,2026-03-29T22:22:02.861,2026-03-29T18:22:02.861,-32527.53,-45854.009999999995,-85053.735,-49956.84,-12563.73,-17381.25,6762.78,-53100.765,4.642947992822414,13.529798710355172,13.098628992091424,5.9540725988880325,3.277084561657586,0.9441082873408407,0.8474587082916163,0.842992355443776,-0.113586135,0.27075126,0.941342805,-18.20518,14.6496,0.62566,69.0
1774822922.8612535,2.0742416381835938e-05,2026-03-29T22:22:02.861,2026-03-29T18:22:02.861,-32524.965,-45846.09,-85038.165,-49937.13,-12538.484999999999,-17352.72,6773.355,-53098.92,3.0780063857182878,12.198082282152376,16.354682694172215,13.285934896610337,14.1067005211189,13.819332668006416,4.1937225752823135,0.7014765870126675,-0.113586135,0.27075126,0.941342805,-18.20518,14.6496,0.62566,69.0
1774822922.8647757,0.003522157669067383,2026-03-29T22:22:02.864,2026-03-29T18:22:02.864,-32521.454999999998,-45848.34,-85048.065,-49950.225,-12557.52,-17378.595,6759.405,-53100.494999999995,0.4882353049867019,6.506657176095226,13.264657633838969,14.89627359182547,18.555919871821885,20.641470434696902,5.5406746203045545,0.2351423573162636,-0.113586135,0.27075126,0.941342805,-18.20518,14.6496,0.62566,69.0
1774822922.8647907,1.5020370483398438e-05,2026-03-29T22:22:02.864,2026-03-29T18:22:02.864,-32522.895,-45851.939999999995,-85039.785,-49919.445,-12513.779999999999,-17328.465,6773.849999999999,-53095.454999999994,-2.0319460221654624,-1.1767386253028764,5.041658672377601,9.830340621067425,14.38220176262997,17.981770930552575,4.202186586543091,-0.42408079005483784,-0.113586135,0.27075126,0.941342805,-18.20518,14.6496,0.62566,69.0
1774822922.8696315,0.004840850830078125,2026-03-29T22:22:02.869,2026-03-29T18:22:02.869,-32544.945,-45889.965,-85073.84999999999,-49943.79,-12534.705,-17349.345,6766.0199999999995,-53098.335,-3.5605936983451443,-8.030003787866473,-5.169129552875906,0.15503030830065484,3.395348384739755,6.819689293977205,0.8055885954235862,-1.0202066777704877,-0.113586135,0.27075126,0.941342805,-18.20518,14.6496,0.62566,69.0
1774822922.8696508,1.9311904907226562e-05,2026-03-29T22:22:02.869,2026-03-29T18:22:02.869,-32544.045,-45892.439999999995,-85092.84,-49980.735,-12580.47,-17400.69,6759.585,-53090.729999999996,-3.6670491705959756,-11.759809483615225,-13.462737067481854,-9.888079325857438,-9.3462650375391,-7.8194958111270285,-3.0126816220442962,-1.2701299526559848,-0.113586135,0.27075126,0.941342805,-18.20518,14.6496,0.62566,69.0
1774822922.8733585,0.0037076473236083984,2026-03-29T22:22:02.873,2026-03-29T18:22:02.873,-32538.329999999998,-45898.155,-85110.93,-50004.854999999996,-12614.58,-17443.44,6756.344999999999,-53078.22,-2.484598153379942,-11.267249647303553,-16.623430654362487,-15.762709193485213,-17.89938800021253,-19.165466437885435,-5.407132356800394,-0.997635213083661,-0.113586135,0.272887485,0.93713139,-25.85044,18.785059999999998,-0.97664,69.0
1774822922.8733869,2.8371810913085938e-05,2026-03-29T22:22:02.873,2026-03-29T18:22:02.873,-32541.3,-45891.9,-85094.50499999999,-49978.08,-12578.535,-17406.135,6767.28,-53077.59,-0.56268050571578,-6.870302834289702,-13.339737089673593,-14.708290444510038,-18.23914190407437,-21.871048068489152,-5.222656036239509,-0.24115733569486814,-0.113586135,0.272887485,0.93713139,-25.85044,18.785059999999998,-0.97664,69.0
1774822922.8772955,0.003908634185791016,2026-03-29T22:22:02.877,2026-03-29T18:22:02.877,-32538.51,-45882.9,-85086.09,-49973.625,-12572.865,-17400.149999999998,6767.82,-53078.49,1.391673411384685,-0.11307891828221793,-4.745323798517635,-7.0457621577686975,-10.16498709483462,-14.547933315715037,-2.551536056988551,0.7263123934288637,-0.113586135,0.272887485,0.93713139,-25.85044,18.785059999999998,-0.97664,69.0
1774822922.8773131,1.7642974853515625e-05,2026-03-29T22:22:02.877,2026-03-29T18:22:02.877,-32537.565,-45881.955,-85082.76,-49970.97,-12568.005,-17391.329999999998,6765.525,-53075.97,2.760373791294817,6.729247133283773,5.935828293867547,3.9034566884759947,2.5994987288404103,-0.45933451999625047,1.3206654412404129,1.4911413530142785,-0.113586135,0.272887485,0.93713139,-25.85044,18.785059999999998,-0.97664,69.0
1774822922.8817155,0.0044023990631103516,2026-03-29T22:22:02.881,2026-03-29T18:22:02.881,-32535.315,-45876.104999999996,-85074.12,-49964.31,-12564.99,-17383.364999999998,6764.085,-53071.56,3.171508649170823,11.321937692235018,14.552851027564245,13.275852267877529,14.157289119403181,13.969693788106774,4.5461753832935115,1.6774028689048721,-0.113586135,0.272887485,0.93713139,-25.85044,18.785059999999998,-0.97664,69.0
1774822922.881734,1.8358230590820312e-05,2026-03-29T22:22:02.881,2026-03-29T18:22:02.881,-32533.515,-45869.895,-85058.415,-49940.325,-12536.595,-17354.25,6771.0599999999995,-53068.994999999995,2.553963060544701,11.982864896396196,17.60840043667133,16.85274206320723,19.20108111985273,22.12803003118386,5.6079054958597405,1.1321727631835787,-0.113586135,0.272887485,0.93713139,-25.85044,18.785059999999998,-0.97664,69.0
1774822922.8849628,0.003228902816772461,2026-03-29T22:22:02.884,2026-03-29T18:22:02.884,-32541.524999999998,-45877.229999999996,-85060.62,-49939.92,-12526.38,-17339.85,6777.63,-53067.6,1.1180712862775173,8.272274182916666,13.67391298781832,12.980039240458652,15.476400246552979,20.28124276650952,4.037718308034994,0.026047451445738126,-0.113586135,0.272887485,0.93713139,-25.85044,18.785059999999998,-0.97664,69.0
1774822922.884987,2.4318695068359375e-05,2026-03-29T22:22:02.884,2026-03-29T18:22:02.884,-32527.305,-45859.14,-85063.5,-49973.939999999995,-12582.27,-17404.605,6763.41,-53061.57,-0.705599101776271,1.268359065133765,4.069672177069342,3.337316156612797,4.789085842047723,9.286640293717289,0.6178361914082318,-1.1914724517898565,-0.113586135,0.272887485,0.93713139,-25.85044,18.785059999999998,-0.97664,69.0
1774822922.892416,0.007428884506225586,2026-03-29T22:22:02.892,2026-03-29T18:22:02.892,-32519.565,-45841.409999999996,-85052.925,-49979.835,-12598.965,-17428.095,6750.945,-53057.88,-2.3589769665864613,-6.638345323066161,-7.520222150347241,-7.80384859279962,-7.893331337004215,-5.830207231942976,-3.0185594282910944,-1.9761096805905056,-0.113586135,0.272887485,0.93713139,-25.85044,18.785059999999998,-0.97664,69.0
1774822922.8924348,1.8835067749023438e-05,2026-03-29T22:22:02.892,2026-03-29T18:22:02.892,-32518.395,-45830.475,-85035.015,-49963.455,-12579.975,-17411.085,6750.405,-53054.865,-3.2876747241249955,-12.474869602909052,-16.42467975934644,-15.498838310126404,-16.79007870812276,-18.218070267826633,-5.1797684113451705,-1.936575225425802,-0.113586135,0.272887485,0.93713139,-25.85044,18.785059999999998,-0.97664,69.0
1774822922.8924494,1.4543533325195312e-05,2026-03-29T22:22:02.892,2026-03-29T18:22:02.892,-32523.93,-45839.205,-85045.68,-49960.755,-12566.744999999999,-17395.875,6756.705,-53051.805,-3.1077153397643817,-13.77253694890794,-18.861670166169965,-16.35194746260598,-17.977513863837697,-22.349497066396758,-4.911098739535156,-1.0311719222951254,-0.11975067,0.269713665,0.933164115,-34.22818,21.42504,-1.95328,69.0
1774822922.892454,4.5299530029296875e-06,2026-03-29T22:22:02.892,2026-03-29T18:22:02.892,-32534.145,-45874.619999999995,-85071.555,-49959.99,-12558.465,-17384.04,6762.96,-53047.079999999994,-1.7694918829019595,-9.631138632439542,-13.564451177766779,-10.030027792807802,-11.131421008444482,-16.509013461759523,-2.415586984439256,0.3864355263048933,-0.11975067,0.269713665,0.933164115,-34.22818,21.42504,-1.95328,69.0
1774822922.8972886,0.004834651947021484,2026-03-29T22:22:02.897,2026-03-29T18:22:02.897,-32516.145,-45831.15,-85024.305,-49932.27,-12536.595,-17361.405,6768.2699999999995,-53038.665,0.35405514988010894,-1.2912837183458397,-2.448785940121093,0.6141513027128229,0.43813375332142734,-3.489810625540036,1.0847372759735927,1.705848357169952,-0.11975067,0.269713665,0.933164115,-34.22818,21.42504,-1.95328,69.0
1774822922.8973298,4.124641418457031e-05,2026-03-29T22:22:02.897,2026-03-29T18:22:02.897,-32503.815,-45798.884999999995,-84990.19499999999,-49911.165,-12513.195,-17336.114999999998,6772.05,-53035.244999999995,2.528606946095202,8.131865127545698,10.033940793708375,10.850749797479748,11.416766916752682,10.775380389284058,3.957931147718427,2.3287846876357317,-0.11975067,0.269713665,0.933164115,-34.22818,21.42504,-1.95328,69.0
1774822922.9010756,0.0037457942962646484,2026-03-29T22:22:02.901,2026-03-29T18:22:02.901,-32501.789999999997,-45779.13,-84963.78,-49889.564999999995,-12490.695,-17315.82,6771.375,-53032.545,3.892287792217368,14.773864194590344,18.668269446044533,16.203784375938408,16.965674342825665,19.96453714139959,4.933601548283644,1.9470942822788784,-0.11975067,0.269713665,0.933164115,-34.22818,21.42504,-1.95328,69.0
1774822922.901088,1.239776611328125e-05,2026-03-29T22:22:02.901,2026-03-29T18:22:02.901,-32504.67,-45777.645,-84967.02,-49910.445,-12521.43,-17352.135,6761.07,-53031.689999999995,3.7999492019175447,15.621346304770459,19.672974550055,14.430673600728365,14.876728575578984,20.20186344957896,3.667424687072882,0.6975987544989528,-0.11975067,0.269713665,0.933164115,-34.22818,21.42504,-1.95328,69.0
1774822922.9092915,0.008203506469726562,2026-03-29T22:22:02.909,2026-03-29T18:22:02.909,-32533.155,-45857.655,-85054.545,-49976.189999999995,-12583.755,-17419.545,6744.735,-53032.634999999995,2.1386918644019484,9.91664125441049,12.390377751789645,6.4644763330285,6.43253740697395,11.691404488517016,0.8468396265211072,-0.8854669954689797,-0.11975067,0.269713665,0.933164115,-34.22818,21.42504,-1.95328,69.0
1774822922.909305,1.3589859008789062e-05,2026-03-29T22:22:02.909,2026-03-29T18:22:02.909,-32549.715,-45917.909999999996,-85113.09,-49988.97,-12577.68,-17407.53,6756.929999999999,-53025.075,-0.5442753916017448,-0.3056375931377046,-0.3041794069747028,-4.07819978157683,-4.35265332999964,-1.5384354339588548,-2.1838081790991355,-2.105262591031264,-0.11975067,0.269713665,0.933164115,-34.22818,21.42504,-1.95328,69.0
1774822922.909319,1.3828277587890625e-05,2026-03-29T22:22:02.909,2026-03-29T18:22:02.909,-32546.385,-45933.84,-85122.09,-49984.56,-12574.8,-17410.005,6757.92,-53018.82,-3.1980360532666907,-10.894063507102032,-13.119250417003311,-12.564001983698052,-12.673532454713534,-13.57872228971997,-4.074129074865551,-2.418570937345125,-0.11975067,0.269713665,0.933164115,-34.22818,21.42504,-1.95328,69.0
1774822922.9093263,7.3909759521484375e-06,2026-03-29T22:22:02.909,2026-03-29T18:22:02.909,-32554.125,-45932.985,-85122.98999999999,-49985.82,-12566.97,-17398.845,6768.315,-53014.634999999995,-4.679413550899175,-17.274841828691315,-20.567951639847625,-15.40500740798068,-15.103880799555656,-19.31871637232597,-4.0752055163490155,-1.6856303893470421,-0.11975067,0.269713665,0.933164115,-34.22818,21.42504,-1.95328,69.0
1774822922.913094,0.003767728805541992,2026-03-29T22:22:02.913,2026-03-29T18:22:02.913,-32554.71,-45925.2,-85123.53,-49977.0,-12551.4,-17380.845,6773.625,-53007.75,-4.258358116622196,-16.469623133688064,-19.353744888184277,-11.586601062231523,-11.002974671874734,-16.62740147662035,-2.3280375640111726,-0.23471151119500586,-0.13207974,0.25805598,0.93517827,-41.24778,24.00398,-2.39582,69.0
1774822922.9131098,1.5735626220703125e-05,2026-03-29T22:22:02.913,2026-03-29T18:22:02.913,-32544.495,-45893.205,-85098.915,-49969.619999999995,-12552.93,-17386.2,6762.825,-53001.585,-1.9874698247323395,-8.5260954270298,-9.866478503417099,-3.0055932669961565,-2.584116356246323,-7.101657375817959,0.2730775792731781,1.2900581140296574,-0.13207974,0.25805598,0.93517827,-41.24778,24.00398,-2.39582,69.0
1774822922.917232,0.004122257232666016,2026-03-29T22:22:02.917,2026-03-29T18:22:02.917,-32525.414999999997,-45843.21,-85052.205,-49951.755,-12542.67,-17377.47,6764.355,-52992.405,1.2552831881733422,3.3436044275138834,3.907698726979251,6.479351857761008,6.277360853078423,4.855478101192325,2.5427594917041607,2.225408742695324,-0.13207974,0.25805598,0.93517827,-41.24778,24.00398,-2.39582,69.0
1774822922.9172578,2.574920654296875e-05,2026-03-29T22:22:02.917,2026-03-29T18:22:02.917,-32530.635,-45859.994999999995,-85071.19499999999,-49984.29,-12584.564999999999,-17423.415,6742.8,-52990.604999999996,4.102589707660122,14.061103259900499,16.068378748200715,12.806643962556576,11.856569152282255,14.105376621326654,3.5519761031361745,2.1889472605250893,-0.13207974,0.25805598,0.93517827,-41.24778,24.00398,-2.39582,69.0
1774822922.9226787,0.0054209232330322266,2026-03-29T22:22:02.922,2026-03-29T18:22:02.922,-32531.895,-45864.99,-85063.14,-49968.585,-12561.119999999999,-17392.095,6752.205,-52986.509999999995,5.285818836974892,18.89306200556342,21.3625115798622,13.467656666778314,12.151873890450378,17.00441409437796,3.004869176541312,1.2412415625700666,-0.13207974,0.25805598,0.93517827,-41.24778,24.00398,-2.39582,69.0
1774822922.9227006,2.193450927734375e-05,2026-03-29T22:22:02.922,2026-03-29T18:22:02.922,-32517.539999999997,-45828.045,-85029.165,-49947.299999999996,-12548.295,-17358.975,6758.054999999999,-52979.445,4.216440174540617,15.594234365945173,17.497639859374804,8.49306479231014,7.551351316006913,12.816610461113386,1.294460790845245,-0.16229467847312437,-0.13207974,0.25805598,0.93517827,-41.24778,24.00398,-2.39582,69.0
1774822922.9251027,0.002402067184448242,2026-03-29T22:22:02.925,2026-03-29T18:22:02.925,-32521.68,-45840.645,-85038.84,-49949.505,-12551.715,-17342.37,6770.835,-52970.67,1.2869150308387465,5.487483756867463,6.167225516244879,0.2868813539779741,0.40310047138320965,3.7741151502755037,-0.7493615805184501,-1.3988040781502815,-0.13207974,0.25805598,0.93517827,-41.24778,24.00398,-2.39582,69.0
1774822922.9251347,3.1948089599609375e-05,2026-03-29T22:22:02.925,2026-03-29T18:22:02.925,-32549.039999999997,-45894.509999999995,-85076.19,-49948.74,-12531.914999999999,-17344.934999999998,6782.4,-52966.935,-2.2658179283204967,-7.054729427144122,-7.686212504304826,-7.545318863486906,-6.190908348583266,-6.110921304114337,-2.267667488181295,-1.968333930668659,-0.13207974,0.25805598,0.93517827,-41.24778,24.00398,-2.39582,69.0
1774822922.930313,0.0051784515380859375,2026-03-29T22:22:02.930,2026-03-29T18:22:02.930,-32557.635,-45920.43,-85105.395,-49965.165,-12531.869999999999,-17401.32,6768.134999999999,-52966.079999999994,-4.891267615524246,-16.531518196514302,-18.052651524889114,-11.798657962333396,-9.73535938516508,-12.852386390191912,-2.733783252566619,-1.7056337154581866,-0.13207974,0.25805598,0.93517827,-41.24778,24.00398,-2.39582,69.0
1774822922.9303296,1.6450881958007812e-05,2026-03-29T22:22:02.930,2026-03-29T18:22:02.930,-32541.39,-45884.564999999995,-85086.54,-49971.42,-12556.215,-17418.195,6754.1849999999995,-52963.155,-5.4186144170642505,-18.77968402993008,-20.50654327844891,-10.981767519914094,-9.25362880852665,-14.089978472519187,-2.116367191297487,-0.8181892607341722,-0.13207974,0.25805598,0.93517827,-41.24778,24.00398,-2.39582,69.0
1774822922.93472,0.0043904781341552734,2026-03-29T22:22:02.934,2026-03-29T18:22:02.934,-32536.305,-45872.325,-85080.915,-49975.244999999995,-12575.654999999999,-17425.89,6753.6449999999995,-52956.314999999995,-3.5945347179434504,-12.85435664343383,-14.138322286795677,-5.802543715279897,-5.43738518157486,-9.845945186866794,-0.8065140896268649,0.25280669119094384,-0.136291155,0.246154155,0.9321875550000001,-47.44334,28.658279999999998,-6.31764,69.0
1774822922.9347491,2.9087066650390625e-05,2026-03-29T22:22:02.934,2026-03-29T18:22:02.934,-32538.914999999997,-45891.45,-85082.44499999999,-49962.689999999995,-12567.96,-17400.465,6766.335,-52948.845,-0.21147466144405055,-1.4504236253647638,-1.902118812607521,1.3087930452869916,-0.10479010704992298,-2.2394954660566806,0.6154142083840183,1.0632928636948074,-0.136291155,0.246154155,0.9321875550000001,-47.44334,28.658279999999998,-6.31764,69.0
1774822922.9392202,0.0044710636138916016,2026-03-29T22:22:02.939,2026-03-29T18:22:02.939,-32526.899999999998,-45880.965,-85067.86499999999,-49946.354999999996,-12542.22,-17378.28,6771.87,-52940.25,3.2410639787563027,10.335507401631494,10.760706742065494,7.349878786534088,4.675774814829044,5.579783470346389,1.6394850646871095,1.3645738250828148,-0.136291155,0.246154155,0.9321875550000001,-47.44334,28.658279999999998,-6.31764,69.0
1774822922.939237,1.6927719116210938e-05,2026-03-29T22:22:02.939,2026-03-29T18:22:02.939,-32529.329999999998,-45867.915,-85046.04,-49920.39,-12483.045,-17324.91,6778.53,-52935.659999999996,5.246698014125526,17.328679777826345,18.378444009758766,10.021191121691121,7.370265529289285,10.739873399791746,1.995297309685682,1.1733210826561287,-0.136291155,0.246154155,0.9321875550000001,-47.44334,28.658279999999998,-6.31764,69.0
1774822922.9426055,0.003368377685546875,2026-03-29T22:22:02.942,2026-03-29T18:22:02.942,-32544.765,-45879.84,-85050.45,-49914.765,-12471.705,-17304.93,6790.005,-52935.75,4.945649355711543,16.605389796986312,17.86045055131292,8.581611819755198,7.3850966732208345,11.65162683428343,1.6830948313686478,0.6957823354503031,-0.136291155,0.246154155,0.9321875550000001,-47.44334,28.658279999999998,-6.31764,69.0
1774822922.9426217,1.621246337890625e-05,2026-03-29T22:22:02.942,2026-03-29T18:22:02.942,-32544.719999999998,-45887.805,-85081.815,-49973.354999999996,-12557.564999999999,-17401.005,6759.179999999999,-52935.21,2.5154316474215346,8.75285822023923,9.778307417967845,3.9778212979406846,5.045662370540185,8.389254224656874,0.8966213100449643,0.170737192387249,-0.136291155,0.246154155,0.9321875550000001,-47.44334,28.658279999999998,-6.31764,69.0
1774822922.94698,0.0043582916259765625,2026-03-29T22:22:02.946,2026-03-29T18:22:02.946,-32537.25,-45881.82,-85088.52,-49993.29,-12590.1,-17447.579999999998,6736.455,-52929.854999999996,-0.9255762938885387,-2.5022137066387673,-2.0289087248594293,-1.7186545350574456,1.2937709603864493,2.430354932996658,-0.09018351620386451,-0.26466157440392074,-0.136291155,0.246154155,0.9321875550000001,-47.44334,28.658279999999998,-6.31764,69.0
1774822922.9470177,3.7670135498046875e-05,2026-03-29T22:22:02.947,2026-03-29T18:22:02.947,-32529.69,-45868.229999999996,-85065.75,-49961.295,-12549.015,-17399.79,6747.4349999999995,-52919.505,-3.8417776012400657,-12.08549874852919,-12.291857052912682,-6.249865908156242,-2.6856327344601603,-4.020132958403089,-1.008898537302873,-0.6064316256963855,-0.136291155,0.246154155,0.9321875550000001,-47.44334,28.658279999999998,-6.31764,69.0
1774822922.949736,0.0027184486389160156,2026-03-29T22:22:02.949,2026-03-29T18:22:02.949,-32530.68,-45858.78,-85049.01,-49940.325,-12516.75,-17356.77,6762.735,-52911.765,-4.982128102434885,-15.916145823117583,-16.70579157758433,-8.057828619963871,-5.764522528184625,-8.810164333517271,-1.6342421484370029,-0.9054058695434133,-0.136291155,0.246154155,0.9321875550000001,-47.44334,28.658279999999998,-6.31764,69.0
1774822922.9497545,1.8358230590820312e-05,2026-03-29T22:22:02.949,2026-03-29T18:22:02.949,-32530.725,-45841.95,-85032.09,-49940.685,-12520.215,-17354.43,6769.3949999999995,-52907.939999999995,-3.9318862346558974,-12.693117870725539,-13.775147944624447,-6.776362732687785,-7.074015794719907,-10.470439093892836,-1.7966975257175863,-1.1474657049028292,-0.136291155,0.246154155,0.9321875550000001,-47.44334,28.658279999999998,-6.31764,69.0
1774822922.9546442,0.004889726638793945,2026-03-29T22:22:02.954,2026-03-29T18:22:02.954,-32518.934999999998,-45815.445,-85019.48999999999,-49956.884999999995,-12560.22,-17408.88,6746.13,-52903.395,-1.263817618399119,-4.320896257616068,-5.298007222632821,-3.1998354751468714,-6.161220872744985,-8.56624005800908,-1.4069316155343676,-1.192186485162964,-0.137511855,0.2331537,0.93273687,-52.60122,33.90772,-7.87416,69.0
1774822922.9546623,1.811981201171875e-05,2026-03-29T22:22:02.954,2026-03-29T18:22:02.954,-32511.824999999997,-45796.905,-84994.155,-49938.075,-12540.24,-17391.915,6747.03,-52893.854999999996,1.7670132296518524,5.158311499569455,4.65640543995804,1.1698927083145596,-3.1380292073590796,-3.754915275294808,-0.5053736712485422,-0.8343322342309454,-0.137511855,0.2331537,0.93273687,-52.60122,33.90772,-7.87416,69.0
1774822922.9575741,0.002911806106567383,2026-03-29T22:22:02.957,2026-03-29T18:22:02.957,-32522.175,-45808.604999999996,-84988.75499999999,-49912.424999999996,-12496.5,-17338.995,6761.925,-52883.954999999994,3.8247716822917077,11.546462499070124,11.721021359645851,4.752184071811725,1.2232732228926866,2.414996278061703,0.6906813003835517,0.03137140177898629,-0.137511855,0.2331537,0.93273687,-52.60122,33.90772,-7.87416,69.0
1774822922.9576015,2.7418136596679688e-05,2026-03-29T22:22:02.957,2026-03-29T18:22:02.957,-32548.545,-45874.439999999995,-85054.815,-49942.08,-12504.869999999999,-17335.98,6770.655,-52878.509999999995,4.09766973699515,12.401489731562657,13.189730248754488,6.43057097079941,5.563289639853531,7.918927497482764,1.7956709830983162,1.2440832384518499,-0.137511855,0.2331537,0.93273687,-52.60122,33.90772,-7.87416,69.0
1774822922.9617507,0.004149198532104492,2026-03-29T22:22:02.961,2026-03-29T18:22:02.961,-32524.829999999998,-45827.64,-84999.015,-49884.345,-12434.715,-17256.375,6805.575,-52859.384999999995,2.6247693259030203,7.983730742999248,9.06285559159064,5.840617584227893,8.275156650133425,10.830353908163575,2.3590592423855625,2.337412528837851,-0.137511855,0.2331537,0.93273687,-52.60122,33.90772,-7.87416,69.0
1774822922.9617672,1.6450881958007812e-05,2026-03-29T22:22:02.961,2026-03-29T18:22:02.961,-32493.329999999998,-45745.47,-84975.56999999999,-49971.375,-12582.045,-17434.17,6727.1849999999995,-52852.229999999996,0.2093639793933073,0.8609177751378826,1.7686336142516375,3.367520195284836,8.082744024088251,9.949453085466693,2.0496838013912,2.699271548757273,-0.137511855,0.2331537,0.93273687,-52.60122,33.90772,-7.87416,69.0
1774822922.9694352,0.007668018341064453,2026-03-29T22:22:02.969,2026-03-29T18:22:02.969,-32464.844999999998,-45677.924999999996,-84896.955,-49937.58,-12574.305,-17441.954999999998,6694.29,-52845.479999999996,-2.012323074889011,-5.529649306339952,-5.195956309511793,-0.0739381121567089,4.658350528602038,5.308301311714642,0.8454279675117372,1.8884185644709164,-0.137511855,0.2331537,0.93273687,-52.60122,33.90772,-7.87416,69.0
1774822922.9694486,1.33514404296875e-05,2026-03-29T22:22:02.969,2026-03-29T18:22:02.969,-32522.355,-45824.354999999996,-84996.54,-49927.634999999995,-12510.045,-17355.149999999998,6751.259999999999,-52833.195,-3.11808846963011,-8.575774710063563,-8.967397877482119,-3.3603774367160715,-1.0268462385175448,-1.6659651401646842,-0.8783604322445787,-0.047432736933536765,-0.137511855,0.2331537,0.93273687,-52.60122,33.90772,-7.87416,69.0
1774822922.9694605,1.1920928955078125e-05,2026-03-29T22:22:02.969,2026-03-29T18:22:02.969,-32560.605,-45939.689999999995,-85144.275,-50005.53,-12582.225,-17441.19,6752.07,-52823.204999999994,-2.7936149542607085,-7.591080694290148,-8.521078252788413,-5.47980198944727,-6.878331321060187,-8.491492058776597,-2.4401293109273663,-2.446777877450951,-0.137511855,0.2331537,0.93273687,-52.60122,33.90772,-7.87416,69.0
1774822922.969465,4.5299530029296875e-06,2026-03-29T22:22:02.969,2026-03-29T18:22:02.969,-32575.364999999998,-45961.965,-85158.405,-50012.055,-12586.365,-17445.78,6751.08,-52813.755,-1.399133668474219,-3.839517159206228,-4.857048534552285,-5.7888509688571235,-10.423144778684886,-12.463000980806495,-3.1188431904522114,-4.227154308411102,-0.137511855,0.2331537,0.93273687,-52.60122,33.90772,-7.87416,69.0
1774822922.9739988,0.0045337677001953125,2026-03-29T22:22:02.973,2026-03-29T18:22:02.973,-32561.414999999997,-45927.9,-85113.405,-49978.665,-12550.14,-17405.415,6754.32,-52802.145,0.2906356634291935,0.40895380266527553,-0.19510706198970404,-4.176516193166431,-9.874282335569065,-11.726351723276709,-2.4934333762149197,-4.361474487896092,-0.139342905,0.226256745,0.93395757,-61.513059999999996,39.27924,-13.39828,69.0
1774822922.9740136,1.4781951904296875e-05,2026-03-29T22:22:02.974,2026-03-29T18:22:02.974,-32548.5,-45881.775,-85079.7,-49959.72,-12529.574999999999,-17376.03,6769.125,-52786.71,1.510717028614971,3.1919710090880464,3.2986732798840865,-1.1115203242775566,-5.046583236247535,-6.168015003601275,-0.6923145296294856,-2.434001634700825,-0.139342905,0.226256745,0.93395757,-61.513059999999996,39.27924,-13.39828,69.0
1774822922.9771056,0.003092050552368164,2026-03-29T22:22:02.977,2026-03-29T18:22:02.977,-32537.43,-45845.909999999996,-85069.035,-49969.71,-12550.14,-17400.69,6762.0599999999995,-52769.34,1.8642143412783811,3.797995027145171,4.5466021363702245,2.451601057918629,2.351339080131386,2.3178562272484666,1.5904848629795882,1.0133007433584882,-0.139342905,0.226256745,0.93395757,-61.513059999999996,39.27924,-13.39828,69.0
1774822922.9771338,2.8133392333984375e-05,2026-03-29T22:22:02.977,2026-03-29T18:22:02.977,-32544.09,-45869.445,-85083.03,-49974.21,-12554.279999999999,-17413.2,6758.235,-52750.979999999996,1.4410575916870898,2.8683501838485936,3.8474684171999205,5.319572417454238,9.282833886363415,10.411444689044433,3.3560948274106273,4.5722463746857755,-0.139342905,0.226256745,0.93395757,-61.513059999999996,39.27924,-13.39828,69.0
1774822922.9823074,0.005173683166503906,2026-03-29T22:22:02.982,2026-03-29T18:22:02.982,-32562.945,-45917.415,-85100.94,-49957.695,-12515.13,-17362.53,6768.8099999999995,-52734.24,0.6667386721665441,1.6989839123356945,2.365369789610369,6.4286183578028675,12.642493584236448,14.659164545268498,3.744453503429078,6.5288920110460555,-0.139342905,0.226256745,0.93395757,-61.513059999999996,39.27924,-13.39828,69.0
1774822922.9823768,6.937980651855469e-05,2026-03-29T22:22:02.982,2026-03-29T18:22:02.982,-32576.129999999997,-45935.055,-85111.37999999999,-49949.189999999995,-12492.359999999999,-17324.415,6784.785,-52718.67,-0.0008744289622150023,1.242518739526917,1.2162985492304579,5.237732675541121,10.67988346164488,12.976191566620326,2.4607642027100836,5.678331083071234,-0.139342905,0.226256745,0.93395757,-61.513059999999996,39.27924,-13.39828,69.0
1774822922.9850056,0.002628803253173828,2026-03-29T22:22:02.985,2026-03-29T18:22:02.985,-32566.995,-45924.795,-85103.55,-49959.54,-12517.605,-17361.495,6767.325,-52700.31,-0.33601157977973506,1.4597696718795796,0.7458207777138253,2.0012987214579745,3.9196157125011206,5.6915185369003405,-0.029777819084893846,2.010596681210857,-0.139342905,0.226256745,0.93395757,-61.513059999999996,39.27924,-13.39828,69.0
1774822922.985018,1.239776611328125e-05,2026-03-29T22:22:02.985,2026-03-29T18:22:02.985,-32557.86,-45885.825,-85042.485,-49886.775,-12424.68,-17255.385,6802.155,-52681.814999999995,-0.4200896018355382,1.4281819028493516,0.4336847465112379,-2.2194750947321484,-4.9087007083887215,-4.397272063041266,-2.658836717962799,-3.105559187206615,-0.139342905,0.226256745,0.93395757,-61.513059999999996,39.27924,-13.39828,69.0
1774822922.9895716,0.004553556442260742,2026-03-29T22:22:02.989,2026-03-29T18:22:02.989,-32550.164999999997,-45876.104999999996,-85071.23999999999,-49964.265,-12534.39,-17383.95,6757.695,-52670.7,-0.5017991433748084,0.12784567643251568,-0.5493664289005006,-5.86816823527673,-11.977252425550859,-13.081746531532266,-4.217797975499009,-7.40687839309761,-0.139342905,0.226256745,0.93395757,-61.513059999999996,39.27924,-13.39828,69.0
1774822922.989596,2.4318695068359375e-05,2026-03-29T22:22:02.989,2026-03-29T18:22:02.989,-32540.489999999998,-45856.485,-85073.895,-49999.14,-12596.355,-17466.93,6724.844999999999,-52660.619999999995,-0.7515386681514065,-2.6173373070192376,-2.526577981503595,-7.457451389985531,-14.051961951655018,-16.5218210387478,-3.923979908476467,-8.73248983725579,-0.139342905,0.226256745,0.93395757,-61.513059999999996,39.27924,-13.39828,69.0
1774822922.994414,0.0048182010650634766,2026-03-29T22:22:02.994,2026-03-29T18:22:02.994,-32539.545,-45832.095,-85033.485,-49959.765,-12546.675,-17406.585,6746.355,-52646.354999999996,-1.0843459826485475,-5.696338194966133,-4.813873021871439,-6.185752159895343,-10.00570554328922,-12.981876982313242,-1.820132050002138,-6.096676965808265,-0.154479585,0.220153245,0.92870856,-69.41774,41.6598,-14.6496,69.0
1774822922.9944508,3.6716461181640625e-05,2026-03-29T22:22:02.994,2026-03-29T18:22:02.994,-32529.149999999998,-45802.53,-84997.34999999999,-49938.39,-12525.57,-17385.75,6749.594999999999,-52635.78,-1.1810864015372198,-7.144136552569247,-5.927873037124132,-2.345349336459206,-1.4293742968350438,-3.7206945263764872,1.199289322350243,-0.3093446103541291,-0.154479585,0.220153245,0.92870856,-69.41774,41.6598,-14.6496,69.0
1774822922.9975052,0.003054380416870117,2026-03-29T22:22:02.997,2026-03-29T18:22:02.997,-32545.89,-45856.439999999995,-85055.84999999999,-49968.045,-12543.164999999999,-17402.399999999998,6749.1449999999995,-52625.79,-0.7093068762573975,-5.294881483596644,-4.461288060130564,2.6865676694326077,7.989368072370457,7.426346462174414,3.77024705227996,6.216827098623333,-0.154479585,0.220153245,0.92870856,-69.41774,41.6598,-14.6496,69.0
1774822922.9975293,2.4080276489257812e-05,2026-03-29T22:22:02.997,2026-03-29T18:22:02.997,-32543.82,-45862.74,-85078.44,-49980.195,-12562.289999999999,-17421.12,6735.78,-52615.215,0.39084455821591113,-0.011006748593598695,-0.13694110572565926,6.923433071601478,14.078747293434418,15.651479526242209,4.685558288719774,10.465480917496865,-0.154479585,0.220153245,0.92870856,-69.41774,41.6598,-14.6496,69.0
1774822923.0122817,0.014752388000488281,2026-03-29T22:22:03.012,2026-03-29T18:22:03.012,-32542.425,-45856.89,-85059.54,-49953.915,-12532.275,-17392.815,6747.84,-52602.479999999996,1.749706175701888,6.795383959124207,5.632264001253274,8.556491813610476,14.067826039256717,17.28537524913726,3.473101129008831,10.212274327658724,-0.154479585,0.220153245,0.92870856,-69.41774,41.6598,-14.6496,69.0
1774822923.0122972,1.5497207641601562e-05,2026-03-29T22:22:03.012,2026-03-29T18:22:03.012,-32569.785,-45923.67,-85112.415,-49959.765,-12514.095,-17368.155,6770.07,-52591.814999999995,2.6745999439632766,11.807018282872077,10.136645640371183,6.739985378116362,7.874106797733141,11.46924803347573,0.6436943156978455,5.170444627402506,-0.154479585,0.220153245,0.92870856,-69.41774,41.6598,-14.6496,69.0
1774822923.0123112,1.4066696166992188e-05,2026-03-29T22:22:03.012,2026-03-29T18:22:03.012,-32573.789999999997,-45921.78,-85116.78,-49972.95,-12533.085,-17390.43,6766.965,-52580.655,2.5019666054471426,11.927037272608803,10.654531011353017,2.0280353248093377,-1.8165240831767422,0.6100078416166013,-2.523051217011254,-2.6973748833747138,-0.154479585,0.220153245,0.92870856,-69.41774,41.6598,-14.6496,69.0
1774822923.0123155,4.291534423828125e-06,2026-03-29T22:22:03.012,2026-03-29T18:22:03.012,-32576.219999999998,-45906.479999999996,-85104.855,-49973.22,-12536.1,-17392.5,6759.179999999999,-52565.445,1.0173121831051681,6.087448217409413,6.016549099468115,-3.7607514950993814,-10.73385195305168,-10.622976104077225,-4.565667482993053,-9.926380494394877,-0.154479585,0.220153245,0.92870856,-69.41774,41.6598,-14.6496,69.0
1774822923.0123208,5.245208740234375e-06,2026-03-29T22:22:03.012,2026-03-29T18:22:03.012,-32576.445,-45896.22,-85095.18,-49969.665,-12531.105,-17385.84,6760.125,-52549.829999999994,-1.3059870169807293,-3.7795971247787348,-2.421257320289737,-8.238989209515285,-14.938929787135478,-17.33641566723934,-4.527247692693393,-13.081204676207578,-0.154479585,0.220153245,0.92870856,-69.41774,41.6598,-14.6496,69.0
1774822923.0123248,4.0531158447265625e-06,2026-03-29T22:22:03.012,2026-03-29T18:22:03.012,-32571.809999999998,-45887.22,-85094.19,-49982.49,-12552.615,-17413.47,6749.1449999999995,-52531.2,-3.427279498074205,-13.28738363892448,-11.050941996123884,-9.443278187450254,-12.594969827427443,-16.580931572326715,-2.413247359876697,-10.39239422433546,-0.154479585,0.220153245,0.92870856,-69.41774,41.6598,-14.6496,69.0
1774822923.0123296,4.76837158203125e-06,2026-03-29T22:22:03.012,2026-03-29T18:22:03.012,-32570.82,-45877.814999999995,-85076.595,-49955.22,-12516.435,-17370.27,6762.42,-52513.784999999996,-4.210141131558531,-17.56840647791521,-15.570356826957976,-6.707882604703038,-4.78272365706048,-8.670244995318894,0.8026799771753015,-2.715904124011366,-0.17175249,0.196227525,0.932797905,-75.73537999999999,41.8124,-16.358719999999998,69.0
1774822923.0123336,4.0531158447265625e-06,2026-03-29T22:22:03.012,2026-03-29T18:22:03.012,-32563.98,-45863.549999999996,-85061.61,-49942.259999999995,-12505.455,-17361.18,6766.83,-52497.945,-3.029860799687867,-13.78051450639834,-13.148658758682837,-1.0260625917537796,5.0068436903230955,2.9484115160055437,3.632453679972995,6.693781898173804,-0.17175249,0.196227525,0.932797905,-75.73537999999999,41.8124,-16.358719999999998,69.0
1774822923.017342,0.0050084590911865234,2026-03-29T22:22:03.017,2026-03-29T18:22:03.017,-32558.129999999997,-45850.049999999996,-85060.035,-49961.744999999995,-12543.21,-17408.52,6748.514999999999,-52479.314999999995,-0.19351446484358098,-2.8509812351370694,-4.1031073648861245,5.292937801008042,12.458737705125824,13.217641471912914,4.772564942431598,13.567057071725573,-0.17175249,0.196227525,0.932797905,-75.73537999999999,41.8124,-16.358719999999998,69.0
1774822923.0173697,2.765655517578125e-05,2026-03-29T22:22:03.017,2026-03-29T18:22:03.017,-32548.815,-45804.555,-84986.415,-49869.045,-12418.02,-17261.145,6793.425,-52451.415,3.0879709031444036,10.56506626566724,7.872556767631446,9.562224707533755,14.364570012222021,17.701834887574663,3.714701177487804,14.569805448922763,-0.17175249,0.196227525,0.932797905,-75.73537999999999,41.8124,-16.358719999999998,69.0
1774822923.0224507,0.0050809383392333984,2026-03-29T22:22:03.022,2026-03-29T18:22:03.022,-32558.039999999997,-45789.705,-84952.485,-49832.82,-12356.055,-17179.829999999998,6818.8949999999995,-52429.77,5.219177245140286,20.080396345169135,17.214147634286775,9.870356928802732,10.019803747599655,14.527269012823988,0.9770208930584752,8.923853312056897,-0.17175249,0.196227525,0.932797905,-75.73537999999999,41.8124,-16.358719999999998,69.0
1774822923.022467,1.621246337890625e-05,2026-03-29T22:22:03.022,2026-03-29T18:22:03.022,-32552.055,-45774.54,-85025.47499999999,-50031.765,-12652.02,-17514.225,6685.5599999999995,-52426.89,5.008521578093391,20.667498342177986,19.118498811744228,5.950881914754539,1.4724028881960047,5.17094615072014,-2.151194929827089,-1.0924186405003895,-0.17175249,0.196227525,0.932797905,-75.73537999999999,41.8124,-16.358719999999998,69.0
1774822923.0285616,0.006094694137573242,2026-03-29T22:22:03.028,2026-03-29T18:22:03.028,-32545.934999999998,-45774.09,-85000.905,-49994.595,-12619.305,-17460.495,6711.929999999999,-52393.14,2.3316095734860696,11.329924935904533,12.037995658978362,-0.6315568883193876,-7.455949572946155,-6.234575581540071,-4.22438658823913,-11.059195907002719,-0.17175249,0.196227525,0.932797905,-75.73537999999999,41.8124,-16.358719999999998,69.0
1774822923.0285833,2.1696090698242188e-05,2026-03-29T22:22:03.028,2026-03-29T18:22:03.028,-32553.675,-45820.755,-85031.64,-49970.744999999995,-12573.675,-17423.505,6740.639999999999,-52351.829999999994,-1.6975472083269618,-4.070465392859203,-1.265422943826998,-7.095080630611451,-12.90018161667522,-14.746857751719904,-4.317620185527946,-16.381247449479226,-0.17175249,0.196227525,0.932797905,-75.73537999999999,41.8124,-16.358719999999998,69.0
1774822923.0308843,0.0023009777069091797,2026-03-29T22:22:03.030,2026-03-29T18:22:03.030,-32591.204999999998,-45944.82,-85105.305,-49957.38,-12516.885,-17428.68,6750.045,-52323.975,-5.18586342400097,-18.401433676451184,-14.768035468299711,-10.619588047752371,-12.639072928273581,-16.77412747309732,-2.44395481967447,-14.423065337317706,-0.17175249,0.196227525,0.932797905,-75.73537999999999,41.8124,-16.358719999999998,69.0
1774822923.030896,1.1682510375976562e-05,2026-03-29T22:22:03.030,2026-03-29T18:22:03.030,-32622.12,-46003.59,-85165.83,-49965.705,-12498.57,-17380.35,6767.82,-52305.299999999996,-6.36546999957085,-24.619535069119056,-21.95675677541199,-9.591239714807537,-6.99680596645699,-11.597552297260258,0.47828256095834265,-5.813267646267582,-0.17175249,0.196227525,0.932797905,-75.73537999999999,41.8124,-16.358719999999998,69.0
1774822923.0332043,0.002308368682861328,2026-03-29T22:22:03.033,2026-03-29T18:22:03.033,-32603.445,-45945.494999999995,-85124.385,-49954.455,-12494.564999999999,-17359.515,6773.355,-52285.005,-4.5055169778334125,-19.295854129141098,-19.032620638890283,-4.358859764348573,1.4022170656096176,-1.6092300553583767,3.079721587840385,5.727752207153926,-0.16796832,0.175231485,0.94067142,-72.5613,46.60404,-16.633399999999998,69.0
1774822923.033217,1.2636184692382812e-05,2026-03-29T22:22:03.033,2026-03-29T18:22:03.033,-32582.879999999997,-45891.765,-85075.02,-49918.409999999996,-12448.395,-17302.14,6781.41,-52247.475,-0.3556921770415553,-4.518209230136667,-6.945382910290586,2.8580154299730807,8.86398768766251,8.79959735616109,4.188241857418576,15.008627832841416,-0.16796832,0.175231485,0.94067142,-72.5613,46.60404,-16.633399999999998,69.0
1774822923.0372493,0.0040323734283447266,2026-03-29T22:22:03.037,2026-03-29T18:22:03.037,-32573.295,-45848.744999999995,-85055.44499999999,-49940.28,-12488.22,-17345.07,6763.005,-52227.314999999995,4.142625629797064,12.887116553902642,8.83875392270093,8.903335539564567,12.257439976695233,15.177680930926925,3.3605668418701105,17.724010708173132,-0.16796832,0.175231485,0.94067142,-72.5613,46.60404,-16.633399999999998,69.0
1774822923.0372608,1.1444091796875e-05,2026-03-29T22:22:03.037,2026-03-29T18:22:03.037,-32559.3,-45803.52,-85034.34,-49979.25,-12564.27,-17440.965,6724.755,-52227.494999999995,6.775261423440008,24.551157478836792,20.837597072082023,11.072771104106117,10.323820138281702,14.919381301525153,1.0541939656627235,12.467431785371016,-0.16796832,0.175231485,0.94067142,-72.5613,46.60404,-16.633399999999998,69.0
1774822923.0424185,0.0051577091217041016,2026-03-29T22:22:03.042,2026-03-29T18:22:03.042,-32538.6,-45765.27,-84993.84,-49953.104999999996,-12539.789999999999,-17413.245,6736.7699999999995,-52207.695,6.165536522860485,24.662768892789316,23.16755611997352,8.343797806395107,4.119952696888634,8.322153819787824,-1.6234141170269716,1.4516293904106632,-0.16796832,0.175231485,0.94067142,-72.5613,46.60404,-16.633399999999998,69.0
1774822923.0424292,1.0728836059570312e-05,2026-03-29T22:22:03.042,2026-03-29T18:22:03.042,-32553.989999999998,-45805.14,-85028.94,-49977.854999999996,-12563.01,-17434.17,6723.8099999999995,-52192.53,2.5115301513933757,12.93363900584017,14.498909041028654,1.8810306246956048,-3.543765255706764,-1.6258640298316132,-3.4508295156975217,-10.42978984444402,-0.16796832,0.175231485,0.94067142,-72.5613,46.60404,-16.633399999999998,69.0
1774822923.046558,0.004128694534301758,2026-03-29T22:22:03.046,2026-03-29T18:22:03.046,-32534.504999999997,-45784.845,-84969.27,-49916.79,-12503.97,-17376.434999999998,6744.735,-52159.32,-2.450202376956244,-5.112330240261701,-1.1603456796298395,-5.441127463741313,-9.374694355520875,-10.5947469027317,-3.651456447124047,-17.79801701085332,-0.16796832,0.175231485,0.94067142,-72.5613,46.60404,-16.633399999999998,69.0
1774822923.0465825,2.4557113647460938e-05,2026-03-29T22:22:03.046,2026-03-29T18:22:03.046,-32512.184999999998,-45737.189999999995,-84946.095,-49943.564999999995,-12557.88,-17449.29,6712.83,-52049.655,-6.27184816299215,-20.755068588960274,-16.318599364484655,-10.313724409908225,-11.003544776446939,-14.789691054385466,-2.218168678032774,-17.2466047091267,-0.16796832,0.175231485,0.94067142,-72.5613,46.60404,-16.633399999999998,69.0
1774822923.077853,0.031270503997802734,2026-03-29T22:22:03.077,2026-03-29T18:22:03.077,-32519.699999999997,-45766.034999999996,-84990.06,-49949.64,-12546.0,-17435.79,6724.62,-51838.02,-7.018385078644593,-26.356221141370593,-23.63667546679578,-10.503978691179892,-7.930535301309645,-12.547499674856919,0.12867697869508396,-8.927601668063206,-0.16796832,0.175231485,0.94067142,-72.5613,46.60404,-16.633399999999998,69.0
1774822923.077878,2.5033950805664062e-05,2026-03-29T22:22:03.077,2026-03-29T18:22:03.077,-32568.48,-45895.68,-85092.12,-49974.884999999995,-12545.595,-17420.985,6740.73,-51629.67,-4.270245602586528,-19.174277981874905,-19.560539491783185,-5.906912646143316,-1.6464051855091006,-4.989196210422087,2.3057225692750887,3.4773932476180978,-0.16796832,0.175231485,0.94067142,-72.5613,46.60404,-16.633399999999998,69.0
1774822923.0779028,2.47955322265625e-05,2026-03-29T22:22:03.077,2026-03-29T18:22:03.077,-32569.155,-45866.25,-85074.165,-49968.81,-12532.32,-17396.145,6742.71,-51432.84,0.6232963691133226,-2.7768494659827043,-6.120622952914701,1.368385214263648,5.076503825003555,4.520033721972303,3.367021240800769,14.404220495500276,-0.16577106,0.17040972000000001,0.94689699,-70.44015999999999,49.915459999999996,-18.6935,69.0
1774822923.0779135,1.0728836059570312e-05,2026-03-29T22:22:03.077,2026-03-29T18:22:03.077,-32608.89,-45991.799999999996,-85174.515,-49993.56,-12526.38,-17388.855,6756.884999999999,-51234.93,5.196795908215208,14.705319851542093,10.04265377508796,7.948217395400257,9.390181149890203,11.848815370429525,2.908262390437603,18.925808637339063,-0.16577106,0.17040972000000001,0.94689699,-70.44015999999999,49.915459999999996,-18.6935,69.0
1774822923.0779216,8.106231689453125e-06,2026-03-29T22:22:03.077,2026-03-29T18:22:03.077,-32617.62,-46021.725,-85212.495,-50004.81,-12535.289999999999,-17402.04,6750.719999999999,-51039.9,7.116146724401191,24.63928150343159,20.975408868608408,10.761399938243414,9.55856063995756,13.876269719864807,1.2056513715396597,14.992298794990504,-0.16577106,0.17040972000000001,0.94689699,-70.44015999999999,49.915459999999996,-18.6935,69.0
1774822923.077927,5.4836273193359375e-06,2026-03-29T22:22:03.077,2026-03-29T18:22:03.077,-32595.524999999998,-45942.21,-85125.465,-49954.5,-12484.845,-17344.079999999998,6756.4349999999995,-50848.92,5.387914834298704,22.22596917944958,21.38670536887301,8.49650890139278,5.644080904432296,9.815088019741902,-0.9479249520629844,4.36483871515053,-0.16577106,0.17040972000000001,0.94689699,-70.44015999999999,49.915459999999996,-18.6935,69.0
1774822923.0779347,7.62939453125e-06,2026-03-29T22:22:03.077,2026-03-29T18:22:03.077,-32599.035,-45921.689999999995,-85085.64,-49909.68,-12416.4,-17255.43,6783.48,-50669.28,0.8974369457776218,8.904308858444589,11.292263850392526,2.248954889247107,-0.5688411317547539,1.526703913877689,-2.612770680465554,-8.183924298046943,-0.16577106,0.17040972000000001,0.94689699,-70.44015999999999,49.915459999999996,-18.6935,69.0
1774822923.0779405,5.7220458984375e-06,2026-03-29T22:22:03.077,2026-03-29T18:22:03.077,-32574.78,-45883.259999999995,-85055.895,-49903.38,-12426.39,-17274.96,6778.349999999999,-50498.46,-4.0238003978584995,-8.416136608719603,-4.029304142534059,-4.975536640557338,-6.361569941888312,-7.300735560942597,-3.1045200679054106,-17.03403999796414,-0.16577106,0.17040972000000001,0.94689699,-70.44015999999999,49.915459999999996,-18.6935,69.0
1774822923.0779471,6.67572021484375e-06,2026-03-29T22:22:03.077,2026-03-29T18:22:03.077,-32589.945,-45919.979999999996,-85142.11499999999,-50042.88,-12613.005,-17489.25,6701.804999999999,-50339.07,-6.798470612683055,-20.91313887435571,-16.757335160892467,-9.690754692401628,-9.244517639916355,-12.762316753064836,-2.2603161303282446,-18.25578935775948,-0.16577106,0.17040972000000001,0.94689699,-70.44015999999999,49.915459999999996,-18.6935,69.0
1774822923.0779529,5.7220458984375e-06,2026-03-29T22:22:03.077,2026-03-29T18:22:03.077,-32596.02,-45946.619999999995,-85145.22,-50021.955,-12582.99,-17458.829999999998,6708.42,-50167.845,-5.957356832639288,-22.377546839465953,-20.53909001448422,-9.620489491822836,-8.013164950187544,-12.44805103032521,-0.4747126612636186,-11.365380613201323,-0.16577106,0.17040972000000001,0.94689699,-70.44015999999999,49.915459999999996,-18.6935,69.0
1774822923.0779603,7.3909759521484375e-06,2026-03-29T22:22:03.077,2026-03-29T18:22:03.077,-32583.105,-45914.174999999996,-85114.17,-49992.255,-12542.039999999999,-17406.18,6729.255,-49997.924999999996,-1.9344984551785618,-12.372569718661474,-13.72594279043677,-4.827355375718757,-3.2584797125395184,-6.5163573860079,1.4876970992497227,0.48997545047095653,-0.16577106,0.17040972000000001,0.94689699,-70.44015999999999,49.915459999999996,-18.6935,69.0
1774822923.0779657,5.4836273193359375e-06,2026-03-29T22:22:03.077,2026-03-29T18:22:03.077,-32552.01,-45838.89,-85061.79,-49980.869999999995,-12542.67,-17408.475,6725.565,-49830.165,3.1321196860990805,3.6101056729690177,-0.16179779719410367,2.291355097557686,2.886592179836628,2.351158644070692,2.811779663363177,11.983865742845923,-0.16577106,0.17040972000000001,0.94689699,-70.44015999999999,49.915459999999996,-18.6935,69.0
1774822923.0779731,7.3909759521484375e-06,2026-03-29T22:22:03.077,2026-03-29T18:22:03.077,-32538.285,-45765.27,-84980.52,-49932.72,-12495.779999999999,-17357.13,6729.21,-49669.92,6.513104358895861,17.077474426758883,12.885780996065616,8.167719747767688,7.669229416631668,10.119681416290508,2.9538787001831106,18.022507648454134,-0.176085975,0.170959035,0.951474615,-73.6295,53.165839999999996,-16.45028,69.0
1774822923.0779786,5.4836273193359375e-06,2026-03-29T22:22:03.077,2026-03-29T18:22:03.077,-32510.475,-45689.49,-84935.43,-49963.5,-12567.285,-17449.829999999998,6682.455,-49514.805,6.342876484019247,21.015014023156176,18.571161374141884,9.835800285774479,8.926716369340689,13.206357000288811,1.8488136091101781,16.015773110209746,-0.176085975,0.170959035,0.951474615,-73.6295,53.165839999999996,-16.45028,69.0
1774822923.0779855,6.9141387939453125e-06,2026-03-29T22:22:03.077,2026-03-29T18:22:03.077,-32494.454999999998,-45701.685,-84928.905,-49974.93,-12601.8,-17502.12,6667.245,-49349.025,2.6472932681532377,13.567899022939244,14.075230887940695,6.43828720010506,6.0652594299203875,10.128982224906588,-0.06678822791426016,6.989130104476524,-0.176085975,0.170959035,0.951474615,-73.6295,53.165839999999996,-16.45028,69.0
1774822923.0779912,5.7220458984375e-06,2026-03-29T22:22:03.077,2026-03-29T18:22:03.077,-32548.41,-45824.354999999996,-85007.06999999999,-49961.025,-12538.439999999999,-17422.29,6707.25,-49189.229999999996,-2.6206604887916183,-1.0180735726805354,2.0667761797650273,-0.3016094743635709,0.3655136524494589,2.242801616799184,-2.0188269926130378,-4.940213095435982,-0.176085975,0.170959035,0.951474615,-73.6295,53.165839999999996,-16.45028,69.0
1774822923.0817757,0.0037844181060791016,2026-03-29T22:22:03.081,2026-03-29T18:22:03.081,-32603.895,-46005.84,-85151.47499999999,-49969.979999999996,-12484.664999999999,-17349.885,6752.16,-49035.375,-6.586620401257172,-14.700352099471695,-10.760791917256872,-6.9125573441685,-5.551739157875586,-6.809971195483862,-3.1904131474219253,-14.454599303777275,-0.176085975,0.170959035,0.951474615,-73.6295,53.165839999999996,-16.45028,69.0
1774822923.0817952,1.9550323486328125e-05,2026-03-29T22:22:03.081,2026-03-29T18:22:03.081,-32659.605,-46102.005,-85227.20999999999,-49934.52,-12382.154999999999,-17205.48,6806.34,-48886.604999999996,-6.993201013599297,-19.9755785047566,-17.312020236088962,-9.925865939472015,-8.897118694510619,-12.738982288378006,-3.045581624285091,-17.419351429017198,-0.176085975,0.170959035,0.951474615,-73.6295,53.165839999999996,-16.45028,69.0
1774822923.0871282,0.00533294677734375,2026-03-29T22:22:03.087,2026-03-29T18:22:03.087,-32637.375,-46043.505,-85250.06999999999,-50074.83,-12591.585,-17446.545,6716.429999999999,-48741.39,-3.457994750667207,-13.943575776372729,-13.947124274812968,-7.675027776811292,-8.014183671470189,-12.616315422530604,-1.5645192212667431,-12.684364594713921,-0.176085975,0.170959035,0.951474615,-73.6295,53.165839999999996,-16.45028,69.0
1774822923.087188,5.984306335449219e-05,2026-03-29T22:22:03.087,2026-03-29T18:22:03.087,-32592.735,-45961.515,-85155.61499999999,-50020.965,-12549.42,-17410.14,6726.375,-48576.195,2.239814273347922,0.0830213352196434,-2.501507401970578,-1.2176370635026428,-3.2099432129044962,-6.3269655630822434,0.7076814922717131,-2.5176280148710295,-0.176085975,0.170959035,0.951474615,-73.6295,53.165839999999996,-16.45028,69.0
1774822923.0892265,0.0020384788513183594,2026-03-29T22:22:03.089,2026-03-29T18:22:03.089,-32560.469999999998,-45909.494999999995,-85127.94,-50052.195,-12626.64,-17518.68,6686.37,-48414.15,7.037481774045689,14.319072549799309,10.649659393110351,6.129119967279864,3.30614316925696,3.261121605501933,2.8394471371655636,8.484621497833682,-0.176085975,0.170959035,0.951474615,-73.6295,53.165839999999996,-16.45028,69.0
1774822923.0892391,1.2636184692382812e-05,2026-03-29T22:22:03.089,2026-03-29T18:22:03.089,-32563.98,-45882.945,-85086.855,-50011.064999999995,-12587.31,-17481.42,6696.495,-48255.795,8.204321098206702,20.708302593270062,18.026943122443498,10.450764666668142,8.400117378006366,11.55786463804725,3.8745636509849044,15.485089625805575,-0.176085975,0.170959035,0.951474615,-73.6295,53.165839999999996,-16.45028,69.0
1774822923.094807,0.005567789077758789,2026-03-29T22:22:03.094,2026-03-29T18:22:03.094,-32558.85,-45871.335,-85052.025,-49956.615,-12512.115,-17394.48,6730.965,-48080.79,4.852931147403671,15.357977983053255,15.168804504740558,9.277607057872132,9.494272624713266,14.411768177140717,3.2490066678968597,15.537857674227542,-0.18395949,0.167541075,0.9515356500000001,-73.55319999999999,55.28698,-14.78694,69.0
1774822923.0948248,1.7881393432617188e-05,2026-03-29T22:22:03.094,2026-03-29T18:22:03.094,-32580.0,-45896.805,-85078.845,-49972.95,-12517.425,-17397.63,6722.009999999999,-47918.564999999995,-1.4754167749468563,0.8084701249816204,3.2130628770310823,2.956099239593203,5.8621671960920985,10.1690207150137,1.087388623073468,8.82416271516235,-0.18395949,0.167541075,0.9515356500000001,-73.55319999999999,55.28698,-14.78694,69.0
1774822923.098014,0.0031893253326416016,2026-03-29T22:22:03.098,2026-03-29T18:22:03.098,-32588.73,-45939.15,-85129.69499999999,-49996.845,-12538.08,-17419.095,6724.71,-47763.314999999995,-7.510859248873287,-15.148996951528133,-11.515311179971789,-5.398169524903337,-0.9098761724827715,0.6158717221017134,-1.773108267951753,-1.5236647610593403,-0.18395949,0.167541075,0.9515356500000001,-73.55319999999999,55.28698,-14.78694,69.0
1774822923.0980341,2.002716064453125e-05,2026-03-29T22:22:03.098,2026-03-29T18:22:03.098,-32571.719999999998,-45890.28,-85091.895,-49982.49,-12532.859999999999,-17414.055,6719.759999999999,-47604.375,-9.926408804363826,-23.565504893401474,-20.785622831134035,-11.407864073714812,-7.578527562897482,-9.72606533293709,-4.0834371582143385,-10.886053193881208,-0.18395949,0.167541075,0.9515356500000001,-73.55319999999999,55.28698,-14.78694,69.0
1774822923.101746,0.0037119388580322266,2026-03-29T22:22:03.101,2026-03-29T18:22:03.101,-32553.855,-45838.439999999995,-85055.355,-49990.275,-12554.775,-17438.67,6708.915,-47436.84,-7.1320908579191045,-19.21371805175026,-18.930750619611956,-11.683274964239764,-10.765963292268971,-15.701496281184626,-4.715062643822723,-15.222181730319424,-0.18395949,0.167541075,0.9515356500000001,-73.55319999999999,55.28698,-14.78694,69.0
1774822923.1017594,1.33514404296875e-05,2026-03-29T22:22:03.101,2026-03-29T18:22:03.101,-32538.78,-45793.755,-85021.29,-49994.775,-12580.83,-17477.28,6687.45,-47267.82,-0.2377297628510808,-3.6396963232251327,-6.120954504098084,-5.672733593701933,-8.64746963433268,-14.06021412413476,-3.2042649509677825,-12.812881178113658,-0.18395949,0.167541075,0.9515356500000001,-73.55319999999999,55.28698,-14.78694,69.0
1774822923.107844,0.0060846805572509766,2026-03-29T22:22:03.107,2026-03-29T18:22:03.107,-32545.62,-45807.03,-85019.58,-49969.89,-12543.255,-17438.175,6700.545,-47093.354999999996,7.372180497496546,15.330937093345165,11.386753140289697,3.87573159144766,-1.9687001694136392,-5.1935368922418075,-0.04838036712433605,-4.93032905991484,-0.18395949,0.167541075,0.9515356500000001,-73.55319999999999,55.28698,-14.78694,69.0
1774822923.107866,2.193450927734375e-05,2026-03-29T22:22:03.107,2026-03-29T18:22:03.107,-32607.36,-45972.63,-85130.81999999999,-49951.08,-12456.945,-17323.29,6763.41,-46915.064999999995,11.697936793394367,27.509849006745213,24.29784368083032,12.15751745470358,6.165537718118951,6.8492655880756095,3.4230386241098367,4.818982940966922,-0.18395949,0.167541075,0.9515356500000001,-73.55319999999999,55.28698,-14.78694,69.0
1774822923.1186764,0.010810375213623047,2026-03-29T22:22:03.118,2026-03-29T18:22:03.118,-32625.36,-46005.705,-85176.675,-49988.564999999995,-12495.689999999999,-17362.44,6752.205,-46749.689999999995,10.204506977484757,25.728223183112643,25.14284340493839,14.703684754798992,11.70853204797411,16.178611983727112,5.594282462902583,12.14349685478603,-0.18395949,0.167541075,0.9515356500000001,-73.55319999999999,55.28698,-14.78694,69.0
1774822923.1187267,5.030632019042969e-05,2026-03-29T22:22:03.118,2026-03-29T18:22:03.118,-32621.76,-45969.795,-85145.44499999999,-49981.86,-12494.744999999999,-17358.255,6741.63,-46588.095,3.247421954996198,9.87063407382278,12.432791954376048,9.739836815326496,11.660354610758105,17.916402016878404,5.310809714512605,13.954243754798648,-0.18395949,0.167541075,0.9515356500000001,-73.55319999999999,55.28698,-14.78694,69.0
1774822923.1187632,3.647804260253906e-05,2026-03-29T22:22:03.118,2026-03-29T18:22:03.118,-32619.69,-45952.604999999996,-85144.455,-50017.229999999996,-12554.1,-17432.145,6712.92,-46426.185,-5.937326093152015,-12.647694198377609,-8.14890687335317,-0.7160206075380261,5.659160394960782,10.711546705779059,2.4841219373632173,9.662099022829308,-0.190856445,0.152526465,0.94811769,-74.3162,57.774359999999994,-15.290519999999999,69.0
1774822923.1187806,1.7404556274414062e-05,2026-03-29T22:22:03.118,2026-03-29T18:22:03.118,-32594.67,-45926.595,-85137.93,-50022.9,-12568.77,-17457.614999999998,6697.08,-46261.845,-12.747036464555586,-30.375327574515268,-26.304400977771653,-11.656287839423095,-3.6589063870360765,-2.3670676117626437,-1.7600757813218242,1.343591732506122,-0.190856445,0.152526465,0.94811769,-74.3162,57.774359999999994,-15.290519999999999,69.0
1774822923.118802,2.1457672119140625e-05,2026-03-29T22:22:03.118,2026-03-29T18:22:03.118,-32606.64,-45935.685,-85136.805,-50010.255,-12532.904999999999,-17405.055,6723.36,-46107.765,-13.517257333522,-33.63022562745023,-32.269701911301404,-17.47891759983176,-11.79630576693908,-15.107793360319917,-5.512637794198208,-7.254785027995343,-0.190856445,0.152526465,0.94811769,-74.3162,57.774359999999994,-15.290519999999999,69.0
1774822923.1188204,1.8358230590820312e-05,2026-03-29T22:22:03.118,2026-03-29T18:22:03.118,-32611.5,-45918.36,-85112.595,-50001.57,-12534.164999999999,-17410.32,6720.57,-45952.155,-7.4629133622539525,-19.67649817555466,-21.978106882795593,-14.830113557860058,-14.549425601148561,-21.090326263366848,-6.936854991105535,-12.399713490389976,-0.190856445,0.152526465,0.94811769,-74.3162,57.774359999999994,-15.290519999999999,69.0
1774822923.1222625,0.003442049026489258,2026-03-29T22:22:03.122,2026-03-29T18:22:03.122,-32572.934999999998,-45864.27,-85077.855,-49999.725,-12562.965,-17457.704999999998,6698.474999999999,-45781.92,2.7622541043394278,5.4577892137858655,0.46213488008636966,-4.460409640400402,-10.155632803936278,-16.897536033812973,-5.167389411902199,-11.987852468480098,-0.190856445,0.152526465,0.94811769,-74.3162,57.774359999999994,-15.290519999999999,69.0
1774822923.1222908,2.8371810913085938e-05,2026-03-29T22:22:03.122,2026-03-29T18:22:03.122,-32553.27,-45793.979999999996,-84998.295,-49935.825,-12492.045,-17375.76,6722.235,-45612.314999999995,12.2383245537411,29.61496192010798,24.399456720800398,8.908341593119621,-0.34290946559972174,-4.0052723093759,-0.8115699662678565,-6.398973315723428,-0.190856445,0.152526465,0.94811769,-74.3162,57.774359999999994,-15.290519999999999,69.0
1774822923.1254177,0.003126859664916992,2026-03-29T22:22:03.125,2026-03-29T18:22:03.125,-32510.969999999998,-45695.159999999996,-84942.315,-49938.57,-12514.5,-17407.215,6706.304999999999,-45447.21,16.161214734276744,40.42757879861418,37.736262573797575,18.742705197499095,10.3188005414517,11.675187484602684,4.229594966396326,1.7565367050510412,-0.190856445,0.152526465,0.94811769,-74.3162,57.774359999999994,-15.290519999999999,69.0
1774822923.1254468,2.9087066650390625e-05,2026-03-29T22:22:03.125,2026-03-29T18:22:03.125,-32534.19,-45737.865,-84951.54,-49930.74,-12491.82,-17377.605,6717.825,-45287.46,12.273489382867542,31.62187484744075,33.03279782884232,19.892476236661896,16.54113158526607,22.503053774402765,7.588475936862972,8.847767618897763,-0.190856445,0.152526465,0.94811769,-74.3162,57.774359999999994,-15.290519999999999,69.0
1774822923.1294904,0.0040435791015625,2026-03-29T22:22:03.129,2026-03-29T18:22:03.129,-32561.28,-45823.275,-85037.84999999999,-49984.47,-12535.38,-17416.53,6711.66,-45127.755,2.114591613250453,6.499834117667556,11.539001729364593,11.25649250526551,14.931599577763468,22.827063023370858,7.548102557939092,11.834117210557926,-0.190856445,0.152526465,0.94811769,-74.3162,57.774359999999994,-15.290519999999999,69.0
1774822923.1295106,2.0265579223632812e-05,2026-03-29T22:22:03.129,2026-03-29T18:22:03.129,-32610.51,-46007.189999999995,-85207.905,-50074.155,-12611.654999999999,-17506.125,6694.83,-44963.729999999996,-9.585540595479639,-23.280077643091005,-16.990043931759587,-3.4500230900921434,5.808481028555668,11.907820809510538,3.9196901529226422,9.565475497137724,-0.190856445,0.152526465,0.94811769,-74.3162,57.774359999999994,-15.290519999999999,69.0
1774822923.1333508,0.003840208053588867,2026-03-29T22:22:03.133,2026-03-29T18:22:03.133,-32609.879999999997,-46000.215,-85211.19,-50044.275,-12562.47,-17447.715,6713.054999999999,-44783.685,-17.13227937672376,-43.18173643921875,-38.77893274426278,-17.30124035002208,-6.7435207837648585,-5.4597354196751375,-1.768902034409064,3.218129400142071,-0.206359335,0.134460105,0.95739501,-81.80886,54.478199999999994,-13.82556,69.0
1774822923.1333776,2.6702880859375e-05,2026-03-29T22:22:03.133,2026-03-29T18:22:03.133,-32600.25,-45946.125,-85130.01,-49994.369999999995,-12529.484999999999,-17425.35,6712.065,-44604.81,-16.653077689567663,-42.922793942144864,-42.72808110184897,-23.443120988143285,-16.702112476427796,-21.04913325490762,-6.91165623228835,-4.295217510087657,-0.206359335,0.134460105,0.95739501,-81.80886,54.478199999999994,-13.82556,69.0
1774822923.1374965,0.004118919372558594,2026-03-29T22:22:03.137,2026-03-29T18:22:03.137,-32597.64,-45945.225,-85115.52,-49983.659999999996,-12512.564999999999,-17401.41,6727.1849999999995,-44424.405,-8.074019538315634,-21.742276751874293,-26.045326759183155,-18.487622061074493,-19.003543906919173,-27.11218450066629,-9.026487609149239,-9.65284449510647,-0.206359335,0.134460105,0.95739501,-81.80886,54.478199999999994,-13.82556,69.0
1774822923.1375191,2.2649765014648438e-05,2026-03-29T22:22:03.137,2026-03-29T18:22:03.137,-32584.59,-45889.515,-85081.095,-49973.985,-12503.699999999999,-17389.665,6726.78,-44234.145,4.719447062019884,10.878893497953687,4.0372871393035865,-4.3357112670269515,-12.11002598261853,-20.231840424459246,-6.962714255964302,-10.58835210386739,-0.206359335,0.134460105,0.95739501,-81.80886,54.478199999999994,-13.82556,69.0
1774822923.1426532,0.005134105682373047,2026-03-29T22:22:03.142,2026-03-29T18:22:03.142,-32567.219999999998,-45833.49,-85048.605,-49987.08,-12541.095,-17437.86,6703.0199999999995,-44027.729999999996,15.666850750320878,39.53277710830332,33.445505662530174,12.536047468793893,1.0518399384568753,-3.199593922418118,-1.5217337831114979,-6.848815325399773,-0.206359335,0.134460105,0.95739501,-81.80886,54.478199999999994,-13.82556,69.0
1774822923.1426797,2.6464462280273438e-05,2026-03-29T22:22:03.142,2026-03-29T18:22:03.142,-32543.28,-45764.189999999995,-84986.73,-49964.534999999996,-12541.814999999999,-17437.32,6698.025,-43817.085,19.431109318108177,50.23680352772931,47.920357269323254,24.067177131370677,14.32752191505318,16.09828858674735,4.842420015015976,-0.24204078047623753,-0.206359335,0.134460105,0.95739501,-81.80886,54.478199999999994,-13.82556,69.0
1774822923.1471517,0.004472017288208008,2026-03-29T22:22:03.147,2026-03-29T18:22:03.147,-32527.305,-45743.715,-84924.94499999999,-49909.5,-12488.039999999999,-17359.11,6721.83,-43601.49,14.01220737317275,37.28102803996385,39.968834889719005,24.489312820878904,21.22869888127808,28.35425934400718,9.138428705694926,6.222636808818653,-0.206359335,0.134460105,0.95739501,-81.80886,54.478199999999994,-13.82556,69.0
1774822923.1471682,1.6450881958007812e-05,2026-03-29T22:22:03.147,2026-03-29T18:22:03.147,-32552.73,-45861.255,-85021.02,-49956.525,-12504.465,-17356.68,6724.215,-43392.104999999996,1.7904461488500978,6.205561085111477,12.702750306704061,13.211614902330176,18.11747597920523,27.35274061330649,9.258383334773448,9.697938459777982,-0.206359335,0.134460105,0.95739501,-81.80886,54.478199999999994,-13.82556,69.0
1774822923.1495261,0.002357959747314453,2026-03-29T22:22:03.149,2026-03-29T18:22:03.149,-32637.914999999997,-46046.25,-85221.72,-50004.405,-12453.705,-17282.114999999998,6757.245,-43186.905,-11.538098938679028,-28.61961615688025,-21.386173399297366,-4.72844911518095,6.111708365026563,13.123555782051508,5.022202764098592,8.752193151476765,-0.206359335,0.134460105,0.95739501,-81.80886,54.478199999999994,-13.82556,69.0
