unix_time_s,dt_s,UTC,LOCAL,EMG1_Raw,EMG2_Raw,EMG3_Raw,EMG4_Raw,EMG5_Raw,EMG6_Raw,EMG7_Raw,EMG8_Raw,EMG1_Filtered,EMG2_Filtered,EMG3_Filtered,EMG4_Filtered,EMG5_Filtered,EMG6_Filtered,EMG7_Filtered,EMG8_Filtered,Accel1_Raw,Accel2_Raw,Accel3_Raw,Gyro1_Raw,Gyro2_Raw,Gyro3_Raw,Battery
1774823091.146529,,2026-03-29T22:24:51.146,2026-03-29T18:24:51.146,-32946.885,-45291.869999999995,-84876.39,-51037.244999999995,-12010.185,-18280.485,5808.554999999999,-66939.345,-0.5700919081570536,-1.0078744375262445,-1.2329225818228577,0.2509312967654509,0.15437773506608893,0.010315421632714471,0.10745812652749652,-0.40179300081238767,0.101623275,-0.818052105,0.565977555,5.06632,3.6318799999999998,44.65076,69.0
1774823091.1465604,3.147125244140625e-05,2026-03-29T22:24:51.146,2026-03-29T18:24:51.146,-32941.845,-45281.295,-84873.23999999999,-51057.494999999995,-12016.845,-18278.325,5812.605,-66933.94499999999,-3.863733291421883,1.749075811139483,1.2717152491578343,-2.2696095658812414,0.2595329815675659,2.560165117491209,1.7665155408139852,-5.130174046827809,0.101623275,-0.818052105,0.565977555,5.06632,3.6318799999999998,44.65076,69.0
1774823091.1465948,3.4332275390625e-05,2026-03-29T22:24:51.146,2026-03-29T18:24:51.146,-32946.84,-45276.21,-84862.62,-51060.465,-12017.789999999999,-18276.93,5812.38,-66937.68,-5.259017419806758,3.8534527830724277,3.3136736114361556,-3.8257920094711717,0.21898079692511635,3.9744712681158907,2.691175502355882,-7.378540620649039,0.101867415,-0.81286413,0.562315455,1.43444,2.07536,41.00362,69.0
1774823091.1466076,1.2874603271484375e-05,2026-03-29T22:24:51.146,2026-03-29T18:24:51.146,-32935.365,-45270.405,-84853.8,-51054.884999999995,-12017.205,-18277.605,5814.585,-66917.16,-4.077466308424748,4.3497748543770145,4.012933425488292,-3.6200013529189463,0.11273013841643148,3.6276111577599424,2.4584566649826627,-6.095973963626915,0.101867415,-0.81286413,0.562315455,1.43444,2.07536,41.00362,69.0
1774823091.149389,0.002781391143798828,2026-03-29T22:24:51.149,2026-03-29T18:24:51.149,-32922.99,-45257.67,-84829.815,-51030.54,-12002.715,-18270.135,5817.735,-66897.855,-0.9127909122223097,2.9547810132805292,3.0372811853104773,-1.669390909830575,0.039621277442484684,1.6827246854291515,1.1451656354811923,-1.9388646418898141,0.101867415,-0.81286413,0.562315455,1.43444,2.07536,41.00362,69.0
1774823091.149404,1.5020370483398438e-05,2026-03-29T22:24:51.149,2026-03-29T18:24:51.149,-32926.5,-45261.54,-84830.67,-51023.295,-11999.385,-18271.485,5814.36,-66896.81999999999,2.668461993636319,0.21503079180699664,0.7627927402591723,1.1687426932859457,0.04969916246979155,-0.9859448213928768,-0.6940772928112152,3.065697874405463,0.101867415,-0.81286413,0.562315455,1.43444,2.07536,41.00362,69.0
1774823091.1525543,0.0031502246856689453,2026-03-29T22:24:51.152,2026-03-29T18:24:51.152,-32930.325,-45270.81,-84848.895,-51036.795,-12008.654999999999,-18279.495,5809.7699999999995,-66895.02,4.9074363481732,-2.7026791720885406,-1.8693820242363042,3.5764117676236578,0.11242962703823746,-3.190309449421298,-2.26131553642042,6.5171934458765035,0.101867415,-0.81286413,0.562315455,1.43444,2.07536,41.00362,69.0
1774823091.15257,1.5735626220703125e-05,2026-03-29T22:24:51.152,2026-03-29T18:24:51.152,-32919.479999999996,-45271.53,-84859.245,-51047.28,-12017.564999999999,-18289.079999999998,5808.33,-66873.735,4.723418910860473,-4.510716299428436,-3.7469268529905864,4.3898351851086375,0.13985722234166148,-3.962847864209547,-2.863124757893106,6.805030325603733,0.101867415,-0.81286413,0.562315455,1.43444,2.07536,41.00362,69.0
1774823091.159586,0.00701594352722168,2026-03-29T22:24:51.159,2026-03-29T18:24:51.159,-32914.71,-45275.354999999996,-84869.64,-51060.104999999996,-12030.93,-18300.825,5805.135,-66854.565,2.240330734090155,-4.3753765495101895,-4.064385041194198,3.1612795070295134,0.05087238630496953,-2.9853526778970765,-2.2195500851933936,3.8687816955989565,0.101867415,-0.81286413,0.562315455,1.43444,2.07536,41.00362,69.0
1774823091.159606,2.002716064453125e-05,2026-03-29T22:24:51.159,2026-03-29T18:24:51.159,-32940.405,-45279.18,-84862.75499999999,-51047.549999999996,-12015.27,-18283.454999999998,5809.005,-66877.47,-1.2895337704986891,-2.3076490561509138,-2.6761733759606203,0.396470982998434,-0.1627065631147879,-0.7202417347199604,-0.5955340860289197,-0.8075835359874384,0.101867415,-0.81286413,0.562315455,1.43444,2.07536,41.00362,69.0
1774823091.1596243,1.8358230590820312e-05,2026-03-29T22:24:51.159,2026-03-29T18:24:51.159,-32952.915,-45276.84,-84852.765,-51033.689999999995,-12000.645,-18269.82,5813.37,-66889.665,-4.11992195509672,0.8160807919888731,-0.1660405091163915,-2.6553501837947464,-0.410870583308363,1.809750804599891,1.3074233947851444,-4.948944407457054,0.101867415,-0.81286413,0.562315455,1.43444,2.07536,41.00362,69.0
1774823091.1596313,6.9141387939453125e-06,2026-03-29T22:24:51.159,2026-03-29T18:24:51.159,-32950.619999999995,-45270.945,-84840.93,-51023.52,-11996.865,-18266.715,5814.135,-66882.33,-4.880463402300422,3.626258756403815,2.4019058977729495,-4.57056082544253,-0.5420647834338147,3.4878104971291264,2.655556646594886,-6.605948115148656,0.101867415,-0.81286413,0.562315455,1.43444,2.07536,41.00362,69.0
1774823091.1652815,0.00565028190612793,2026-03-29T22:24:51.165,2026-03-29T18:24:51.165,-32950.305,-45270.945,-84839.265,-51023.07,-12000.869999999999,-18271.934999999998,5811.885,-66878.01,-3.245887093180804,4.867416730149383,3.9433614047182464,-4.417795872875433,-0.4273859932766194,3.600699341165772,2.8505937501883842,-5.082779205364044,0.101745345,-0.805112685,0.561705105,-4.94424,-0.51884,37.28018,69.0
1774823091.165308,2.6464462280273438e-05,2026-03-29T22:24:51.165,2026-03-29T18:24:51.165,-32945.49,-45272.159999999996,-84847.72499999999,-51029.145,-12003.66,-18281.835,5814.945,-66870.0,-0.0751329501440904,3.968381999702221,3.822194461701935,-2.2084318896451793,-0.047889564544048774,2.1440793797612554,1.79769125036884,-1.2295818471718338,0.101745345,-0.805112685,0.561705105,-4.94424,-0.51884,37.28018,69.0
1774823091.1751304,0.009822368621826172,2026-03-29T22:24:51.175,2026-03-29T18:24:51.175,-32938.92,-45276.975,-84856.635,-51033.509999999995,-12005.505,-18285.66,5817.014999999999,-66857.355,3.0390929051695803,1.3122225579381626,2.119519189744631,1.086337334244134,0.46677673863249364,-0.1960428992314212,-0.047577618708306325,3.0233300964700662,0.101745345,-0.805112685,0.561705105,-4.94424,-0.51884,37.28018,69.0
1774823091.1751676,3.719329833984375e-05,2026-03-29T22:24:51.175,2026-03-29T18:24:51.175,-32941.034999999996,-45284.445,-84860.45999999999,-51034.68,-12005.145,-18278.145,5814.315,-66854.205,4.574379291031161,-1.925042079179345,-0.4141631608417676,3.9680051870124586,0.87880669687649,-2.3681123705972196,-1.8768508115123808,5.637477047267351,0.101745345,-0.805112685,0.561705105,-4.94424,-0.51884,37.28018,69.0
1774823091.175203,3.552436828613281e-05,2026-03-29T22:24:51.175,2026-03-29T18:24:51.175,-32947.2,-45289.08,-84860.73,-51034.905,-12004.154999999999,-18268.469999999998,5810.355,-66853.755,3.8284831159649126,-4.300592358904352,-2.6980093291957026,5.097457154877482,0.9513670455760683,-3.431509267397705,-2.8853387586648034,5.452731676083999,0.101745345,-0.805112685,0.561705105,-4.94424,-0.51884,37.28018,69.0
1774823091.175222,1.8835067749023438e-05,2026-03-29T22:24:51.175,2026-03-29T18:24:51.175,-32941.17,-45280.53,-84855.285,-51035.534999999996,-12007.98,-18276.3,5808.554999999999,-66841.245,1.2430738649422877,-4.758343260868604,-3.7947129041877155,3.918550165241276,0.5765170443368736,-2.9671659881120447,-2.628830575594313,2.7067280752731397,0.101745345,-0.805112685,0.561705105,-4.94424,-0.51884,37.28018,69.0
1774823091.175245,2.3126602172851562e-05,2026-03-29T22:24:51.175,2026-03-29T18:24:51.175,-32944.59,-45274.365,-84855.95999999999,-51034.814999999995,-12006.855,-18281.43,5808.285,-66844.98,-1.849046393779279,-3.1091958635289485,-3.305491860131512,0.9272470230527081,-0.1447249223756388,-1.2417770373644519,-1.2216180012926485,-1.1473736713842475,0.101745345,-0.805112685,0.561705105,-4.94424,-0.51884,37.28018,69.0
1774823091.1752627,1.7642974853515625e-05,2026-03-29T22:24:51.175,2026-03-29T18:24:51.175,-32940.99,-45273.6,-84859.92,-51042.195,-12012.93,-18279.809999999998,5811.3,-66837.735,-3.9117196496372,-0.11448770795788035,-1.5141268688662688,-2.5423300709881547,-0.9195865832769692,0.9380633102975199,0.7139324699927933,-4.205459439581053,0.101745345,-0.805112685,0.561705105,-4.94424,-0.51884,37.28018,69.0
1774823091.1812992,0.006036520004272461,2026-03-29T22:24:51.181,2026-03-29T18:24:51.181,-32937.299999999996,-45274.185,-84859.605,-51043.68,-12009.105,-18268.92,5814.8099999999995,-66825.45,-3.9728388514799273,2.8673287549086726,0.7725092609460739,-4.91993186003038,-1.382174661156485,2.6043738075645773,2.324185487583627,-5.058668640358068,0.101745345,-0.805112685,0.561705105,-4.94424,-0.51884,37.28018,69.0
1774823091.1813228,2.3603439331054688e-05,2026-03-29T22:24:51.181,2026-03-29T18:24:51.181,-32936.445,-45274.86,-84858.20999999999,-51042.33,-12006.72,-18267.614999999998,5813.55,-66817.53,-2.086071828101473,4.506448463675391,2.6004697668667776,-5.114165362924461,-1.2654894999682924,3.0607628077086657,2.9036176119956103,-3.448630494770917,0.101745345,-0.805112685,0.561705105,-4.94424,-0.51884,37.28018,69.0
1774823091.1846268,0.003304004669189453,2026-03-29T22:24:51.184,2026-03-29T18:24:51.184,-32930.955,-45272.34,-84857.58,-51039.72,-12004.65,-18270.54,5815.485,-66805.02,0.7339860400724743,4.107653903989786,3.280951552579812,-3.0125712987096858,-0.5460528667510401,2.1750210337756317,2.2068185054988447,-0.32435768503708295,0.098815665,-0.800474025,0.562437525,-12.131699999999999,-4.56274,32.10704,69.0
1774823091.1846483,2.1457672119140625e-05,2026-03-29T22:24:51.184,2026-03-29T18:24:51.184,-32927.534999999996,-45269.685,-84854.295,-51033.15,-12000.465,-18271.035,5815.08,-66795.56999999999,3.053322900530823,1.9143770502909925,2.653405139517677,0.46224244765254086,0.5143645610284665,0.4079205311318047,0.5537732744458416,2.696036817839797,0.098815665,-0.800474025,0.562437525,-12.131699999999999,-4.56274,32.10704,69.0
1774823091.1887672,0.004118919372558594,2026-03-29T22:24:51.188,2026-03-29T18:24:51.188,-32924.115,-45262.395,-84832.965,-51016.32,-11994.66,-18264.195,5813.91,-66780.855,3.749144246401486,-1.0269971790585577,1.0959712222142899,3.7656259947065855,1.461618861360389,-1.4216203534277363,-1.31741611194201,4.160791131820795,0.098815665,-0.800474025,0.562437525,-12.131699999999999,-4.56274,32.10704,69.0
1774823091.1887877,2.0503997802734375e-05,2026-03-29T22:24:51.188,2026-03-29T18:24:51.188,-32931.494999999995,-45266.805,-84836.16,-51018.525,-11996.73,-18267.93,5812.2,-66786.75,2.556631853167857,-3.37129142343063,-0.6956731349105219,5.424255017583848,1.8448525806366107,-2.5170903095132506,-2.5824120567328466,3.486658446318064,0.098815665,-0.800474025,0.562437525,-12.131699999999999,-4.56274,32.10704,69.0
1774823091.192955,0.004167318344116211,2026-03-29T22:24:51.192,2026-03-29T18:24:51.192,-32944.049999999996,-45276.165,-84847.59,-51023.88,-11997.99,-18272.07,5811.705,-66798.045,0.16418489870986813,-4.102486175994347,-2.0352976160713703,4.695172022536248,1.4299427153494229,-2.4535422984079016,-2.696809285362764,1.186401357568149,0.098815665,-0.800474025,0.562437525,-12.131699999999999,-4.56274,32.10704,69.0
1774823091.192976,2.09808349609375e-05,2026-03-29T22:24:51.192,2026-03-29T18:24:51.192,-32943.42,-45276.21,-84847.095,-51019.695,-11995.605,-18268.695,5813.099999999999,-66790.98,-2.173522321037393,-2.986730898622969,-2.5182532117043825,1.8945120171614012,0.32988803457213317,-1.3415011062244884,-1.6325154660655963,-1.4639971107311007,0.098815665,-0.800474025,0.562437525,-12.131699999999999,-4.56274,32.10704,69.0
1774823091.1977282,0.004752159118652344,2026-03-29T22:24:51.197,2026-03-29T18:24:51.197,-32944.68,-45279.854999999996,-84856.31999999999,-51024.375,-11998.98,-18271.665,5809.7699999999995,-66784.185,-3.2909203324050793,-0.6421280887706744,-2.124848285628261,-1.747755750255045,-1.0168745894213125,0.2569685442503158,0.11928756804295597,-3.1180723711250034,0.098815665,-0.800474025,0.562437525,-12.131699999999999,-4.56274,32.10704,69.0
1774823091.1977549,2.6702880859375e-05,2026-03-29T22:24:51.197,2026-03-29T18:24:51.197,-32939.595,-45276.615,-84858.525,-51024.869999999995,-11998.484999999999,-18272.204999999998,5809.455,-66772.44,-2.6939157914753187,1.7937710377001923,-1.1389515045601122,-4.636415383879902,-2.0219699382536898,1.6078826156387624,1.7758775999580352,-3.0409008676301883,0.098815665,-0.800474025,0.562437525,-12.131699999999999,-4.56274,32.10704,69.0
1774823091.2008486,0.003093719482421875,2026-03-29T22:24:51.200,2026-03-29T18:24:51.200,-32936.49,-45276.84,-84867.56999999999,-51044.04,-12006.359999999999,-18276.614999999998,5811.344999999999,-66763.89,-0.7777269725353922,3.2237555700370564,0.04044184313108309,-5.513989897417976,-2.2055704899413686,2.1433281901904286,2.615289434972251,-1.4357847091720957,0.098815665,-0.800474025,0.562437525,-12.131699999999999,-4.56274,32.10704,69.0
1774823091.2008784,2.9802322387695312e-05,2026-03-29T22:24:51.200,2026-03-29T18:24:51.200,-32925.96,-45272.205,-84864.19499999999,-51056.865,-12014.279999999999,-18282.555,5811.48,-66747.645,1.4152341823128134,3.0994972973042696,1.076814029102104,-4.005982277631392,-1.4234399921583494,1.7020292071302892,2.293381265384476,0.7291863504404122,0.098815665,-0.800474025,0.562437525,-12.131699999999999,-4.56274,32.10704,69.0
1774823091.2052064,0.004328012466430664,2026-03-29T22:24:51.205,2026-03-29T18:24:51.205,-32924.52,-45275.67,-84857.48999999999,-51041.384999999995,-12013.289999999999,-18288.135,5802.66,-66739.815,2.75541321987908,1.6365250182821822,1.7754780365403435,-0.7728927203075037,0.04432605784513177,0.5699601194199873,0.9852875527394843,2.2759445481083134,0.09265113,-0.80468544,0.56445168,-11.53656,-7.828379999999999,26.582919999999998,69.0
1774823091.2052455,3.910064697265625e-05,2026-03-29T22:24:51.205,2026-03-29T18:24:51.205,-32927.58,-45282.915,-84862.845,-51034.095,-12012.57,-18291.329999999998,5797.17,-66736.305,2.6057536393851084,-0.35206463122978565,2.05435264331838,2.7884905723802706,1.5919682723432633,-0.6843944171378757,-0.7070161399517584,2.4443910232477433,0.09265113,-0.80468544,0.56445168,-11.53656,-7.828379999999999,26.582919999999998,69.0
1774823091.2086616,0.0034160614013671875,2026-03-29T22:24:51.208,2026-03-29T18:24:51.208,-32929.065,-45283.365,-84863.7,-51023.79,-12002.49,-18282.059999999998,5799.42,-66731.985,1.1242765078690864,-1.8982687777656015,1.869490691371012,5.154748078382136,2.539874880427766,-1.4911996645331609,-2.033149572318111,1.2636205312177677,0.09265113,-0.80468544,0.56445168,-11.53656,-7.828379999999999,26.582919999999998,69.0
1774823091.208679,1.7404556274414062e-05,2026-03-29T22:24:51.208,2026-03-29T18:24:51.208,-32945.49,-45288.0,-84864.87,-51017.895,-11994.029999999999,-18274.05,5800.5,-66741.12,-0.8538161345973969,-2.360920997402706,1.1823901758483852,5.3270091025820685,2.433738556595,-1.5396234723004583,-2.429249231346338,-0.5136139139112675,0.09265113,-0.80468544,0.56445168,-11.53656,-7.828379999999999,26.582919999999998,69.0
1774823091.2127004,0.004021406173706055,2026-03-29T22:24:51.212,2026-03-29T18:24:51.212,-32949.72,-45277.155,-84849.25499999999,-51008.534999999996,-11984.939999999999,-18264.375,5809.86,-66748.68,-2.2769531319771983,-1.7025116565257838,0.014914919435583074,3.245430850133229,1.2588543954558535,-0.8980239238481004,-1.7588552416296275,-1.8567955134647696,0.09265113,-0.80468544,0.56445168,-11.53656,-7.828379999999999,26.582919999999998,69.0
1774823091.212728,2.765655517578125e-05,2026-03-29T22:24:51.212,2026-03-29T18:24:51.212,-32938.29,-45266.13,-84842.50499999999,-51022.89,-11996.414999999999,-18269.73,5813.73,-66732.165,-2.430279174187074,-0.4356161858069952,-1.441805541557643,-0.20114231092154267,-0.5302775150370228,0.0527511841938878,-0.3563814219905869,-2.0305517604233723,0.09265113,-0.80468544,0.56445168,-11.53656,-7.828379999999999,26.582919999999998,69.0
1774823091.21686,0.00413203239440918,2026-03-29T22:24:51.216,2026-03-29T18:24:51.216,-32932.395,-45263.159999999996,-84844.26,-51038.46,-12008.52,-18279.405,5812.245,-66720.51,-1.2923132325464775,0.7081131618711597,-2.762265855321164,-3.5622827936499997,-2.186449338174157,0.828751218916455,1.1385114324571983,-0.9845837887318998,0.09265113,-0.80468544,0.56445168,-11.53656,-7.828379999999999,26.582919999999998,69.0
1774823091.2168767,1.6689300537109375e-05,2026-03-29T22:24:51.216,2026-03-29T18:24:51.216,-32931.18,-45269.82,-84855.375,-51056.145,-12016.664999999999,-18284.625,5812.65,-66707.955,0.4816959195859087,1.1904839281650008,-3.363382683563002,-5.437160846180412,-2.9830632403150177,1.0852676759664717,2.073918350611864,0.6413495410725399,0.09265113,-0.80468544,0.56445168,-11.53656,-7.828379999999999,26.582919999999998,69.0
1774823091.2214043,0.004527568817138672,2026-03-29T22:24:51.221,2026-03-29T18:24:51.221,-32933.115,-45268.064999999995,-84848.67,-51041.97,-12005.595,-18276.434999999998,5815.9349999999995,-66704.76,1.9275458589494003,0.9322587205183928,-2.745984909928019,-5.0516941210622175,-2.5320934751095536,0.7724605021353398,2.0712266893511804,1.888638185339993,0.09265113,-0.80468544,0.56445168,-11.53656,-7.828379999999999,26.582919999999998,69.0
1774823091.22142,1.5735626220703125e-05,2026-03-29T22:24:51.221,2026-03-29T18:24:51.221,-32937.93,-45273.015,-84850.2,-51035.759999999995,-12002.805,-18276.48,5812.29,-66704.895,2.2879754050297216,0.2953591702366586,-0.8094407241513739,-2.567550618311839,-0.9678862115993934,0.13299359619609016,1.1775999278686735,2.0184345925666247,0.09265113,-0.80468544,0.56445168,-11.53656,-7.828379999999999,26.582919999999998,69.0
1774823091.2318196,0.010399580001831055,2026-03-29T22:24:51.231,2026-03-29T18:24:51.231,-32942.159999999996,-45271.619999999995,-84842.86499999999,-51025.409999999996,-11993.22,-18267.255,5811.885,-66710.47499999999,1.4036413445865086,-0.190128290319413,1.9367979589738065,0.9941712739672275,1.0881665221450691,-0.4481601952106331,-0.17546876565289107,0.9240348302573113,0.08374002,-0.81017859,0.56835792,-8.743979999999999,-11.10928,22.783179999999998,69.0
1774823091.2318392,1.9550323486328125e-05,2026-03-29T22:24:51.231,2026-03-29T18:24:51.231,-32940.72,-45280.665,-84854.83499999999,-51033.735,-11998.08,-18271.53,5809.1849999999995,-66700.575,-0.22049048882902514,-0.18148570191974822,4.43349997288707,4.174133178372839,2.7748343045540578,-0.6578902495423888,-1.379749294306901,-0.8045722813394113,0.08374002,-0.81017859,0.56835792,-8.743979999999999,-11.10928,22.783179999999998,69.0
1774823091.2318568,1.7642974853515625e-05,2026-03-29T22:24:51.231,2026-03-29T18:24:51.231,-32932.215,-45281.205,-84858.03,-51036.435,-12002.535,-18285.704999999998,5807.79,-66682.215,-1.6985604630289246,0.25538013537852533,5.45642712796094,5.666034048309298,3.3513283154787445,-0.4195762973675842,-1.924315116946992,-2.197597610754153,0.08374002,-0.81017859,0.56835792,-8.743979999999999,-11.10928,22.783179999999998,69.0
1774823091.2318635,6.67572021484375e-06,2026-03-29T22:24:51.231,2026-03-29T18:24:51.231,-32927.895,-45284.625,-84864.42,-51044.445,-12014.55,-18307.17,5804.82,-66669.61499999999,-2.2398376643456652,0.6945019100807814,4.200325706092971,4.842119544489469,2.520183169768109,0.07682998187313797,-1.6122964091368146,-2.433855532622951,0.08374002,-0.81017859,0.56835792,-8.743979999999999,-11.10928,22.783179999999998,69.0
1774823091.2355833,0.003719806671142578,2026-03-29T22:24:51.235,2026-03-29T18:24:51.235,-32921.28,-45280.89,-84863.97,-51050.79,-12021.119999999999,-18303.344999999998,5805.135,-66653.595,-1.5641999006705085,0.6422731535380084,0.7903589497277783,2.0080188723901,0.5733434960607894,0.49248198562346834,-0.6285569233062334,-1.2983117726521016,0.08374002,-0.81017859,0.56835792,-8.743979999999999,-11.10928,22.783179999999998,69.0
1774823091.2356033,2.002716064453125e-05,2026-03-29T22:24:51.235,2026-03-29T18:24:51.235,-32921.01,-45275.805,-84866.22,-51057.72,-12025.125,-18291.015,5804.594999999999,-66645.72,-0.041599214716017824,-0.10241565947068877,-3.5739329958959583,-1.7110239460934755,-1.707421306900416,0.5399036738933013,0.5628401243792452,0.6771548255909944,0.08374002,-0.81017859,0.56835792,-8.743979999999999,-11.10928,22.783179999999998,69.0
1774823091.2397392,0.004135847091674805,2026-03-29T22:24:51.239,2026-03-29T18:24:51.239,-32932.755,-45273.375,-84855.15,-51043.229999999996,-12005.189999999999,-18262.8,5811.705,-66660.795,1.5116484033493678,-1.2475657345022466,-6.999249163574372,-4.809293548624841,-3.3629119851397147,0.15603553860223338,1.436625913098937,2.4703688792467293,0.08374002,-0.81017859,0.56835792,-8.743979999999999,-11.10928,22.783179999999998,69.0
1774823091.2397664,2.7179718017578125e-05,2026-03-29T22:24:51.239,2026-03-29T18:24:51.239,-32942.835,-45268.244999999995,-84836.925,-51020.28,-11986.695,-18251.864999999998,5818.995,-66676.185,2.2673079590897407,-2.1119232301783346,-7.709255899328719,-5.998011409078495,-3.6576436488303554,-0.4489386885042839,1.6377137100861658,3.0954694764019806,0.08374002,-0.81017859,0.56835792,-8.743979999999999,-11.10928,22.783179999999998,69.0
1774823091.2397892,2.288818359375e-05,2026-03-29T22:24:51.239,2026-03-29T18:24:51.239,-32936.534999999996,-45269.235,-84841.965,-51024.689999999995,-11995.244999999999,-18264.78,5814.36,-66662.73,1.8204498414385715,-2.0032844613855834,-4.944313559566839,-4.7312103942865535,-2.4033770883717156,-0.8990936276433968,1.124269041263343,2.129044418102891,0.08374002,-0.81017859,0.56835792,-8.743979999999999,-11.10928,22.783179999999998,69.0
1774823091.2397997,1.049041748046875e-05,2026-03-29T22:24:51.239,2026-03-29T18:24:51.239,-32920.335,-45269.505,-84850.47,-51038.055,-12009.285,-18281.16,5806.9349999999995,-66639.375,0.39919361714605733,-0.6699599592026233,0.49755418422597464,-1.4516441922727668,-0.06452067356736339,-0.8642693901348325,0.1656475570463083,-0.0391563442169734,0.08374002,-0.81017859,0.56835792,-8.743979999999999,-11.10928,22.783179999999998,69.0
1774823091.2479377,0.008137941360473633,2026-03-29T22:24:51.247,2026-03-29T18:24:51.247,-32916.555,-45270.0,-84848.67,-51035.805,-12008.34,-18282.69,5807.295,-66629.97,-1.2569410798139498,1.4431688366890427,6.413126334139434,2.5514867657735736,2.409278181979058,-0.26322163392272985,-0.7946964038634843,-2.3689346702167837,0.07507305,-0.81506139,0.570860355,-4.94424,-12.07066,21.287699999999997,69.0
1774823091.2479577,2.002716064453125e-05,2026-03-29T22:24:51.247,2026-03-29T18:24:51.247,-32925.51,-45277.65,-84858.48,-51035.04,-12004.47,-18280.98,5803.92,-66634.155,-2.2832794038976822,3.3180770380355,10.068589324117408,5.634813789420081,3.9653587372754093,0.6565342147997348,-1.3429980963295198,-3.674450920014987,0.07507305,-0.81506139,0.570860355,-4.94424,-12.07066,21.287699999999997,69.0
1774823091.2479737,1.5974044799804688e-05,2026-03-29T22:24:51.247,2026-03-29T18:24:51.247,-32932.034999999996,-45275.759999999995,-84851.775,-51019.65,-11985.975,-18263.114999999998,5808.0599999999995,-66639.06,-2.138639456545373,3.849622746341012,9.45954192530779,6.463825053563567,3.893278039970862,1.4177601888687457,-1.2726653090603701,-3.2236698024945225,0.07507305,-0.81506139,0.570860355,-4.94424,-12.07066,21.287699999999997,69.0
1774823091.2479796,5.9604644775390625e-06,2026-03-29T22:24:51.247,2026-03-29T18:24:51.247,-32940.72,-45280.35,-84852.98999999999,-51014.88,-11983.05,-18253.395,5813.099999999999,-66645.54,-0.8847616964753366,2.4641799639912634,4.377530579775698,4.586220374690137,2.1464998879513058,1.5535263915021325,-0.6599046280833628,-1.131221113057546,0.07507305,-0.81506139,0.570860355,-4.94424,-12.07066,21.287699999999997,69.0
1774823091.2530687,0.0050890445709228516,2026-03-29T22:24:51.253,2026-03-29T18:24:51.253,-32924.88,-45279.99,-84860.37,-51021.99,-12002.445,-18270.45,5809.23,-66615.97499999999,0.845466313559617,-0.4643760640060738,-3.2730107308046086,0.6719451996464106,-0.6036991261444198,0.8702893392306664,0.18883936099193188,1.659777500840366,0.07507305,-0.81506139,0.570860355,-4.94424,-12.07066,21.287699999999997,69.0
1774823091.2530951,2.6464462280273438e-05,2026-03-29T22:24:51.253,2026-03-29T18:24:51.253,-32916.869999999995,-45289.034999999996,-84887.64,-51034.455,-12012.795,-18287.64,5803.38,-66601.665,2.172140450542793,-3.6640825364866,-10.154929743069626,-3.705132766144917,-3.220155680133404,-0.4071071945666604,0.8864289385771048,3.8107182387309035,0.07507305,-0.81506139,0.570860355,-4.94424,-12.07066,21.287699999999997,69.0
1774823091.2569473,0.0038521289825439453,2026-03-29T22:24:51.256,2026-03-29T18:24:51.256,-32919.57,-45296.865,-84897.045,-51036.93,-12010.949999999999,-18291.555,5800.23,-66596.535,2.4170911455584188,-5.515088170717799,-12.953092078077988,-6.686060948971734,-4.566547406954801,-1.699449528403519,1.1400264402830078,4.232920327350283,0.07507305,-0.81506139,0.570860355,-4.94424,-12.07066,21.287699999999997,69.0
1774823091.256966,1.8835067749023438e-05,2026-03-29T22:24:51.256,2026-03-29T18:24:51.256,-32951.97,-45289.935,-84863.61,-51012.045,-11980.619999999999,-18264.555,5808.105,-66640.77,1.448047708916407,-4.864337445161425,-9.970942578877702,-6.9114350980225465,-3.99961926935869,-2.3344319474407045,0.8732942319542273,2.633114533462471,0.07507305,-0.81506139,0.570860355,-4.94424,-12.07066,21.287699999999997,69.0
1774823091.2621777,0.005211591720581055,2026-03-29T22:24:51.262,2026-03-29T18:24:51.262,-32947.065,-45285.615,-84867.25499999999,-51041.655,-11993.039999999999,-18267.704999999998,5814.2699999999995,-66631.86,-0.25534600277575575,-1.6971088664460041,-2.0999775290801055,-4.143904631426658,-1.6746916947590575,-1.8880375940257337,0.24535733536961649,-0.31180500878501627,0.07507305,-0.81506139,0.570860355,-4.94424,-12.07066,21.287699999999997,69.0
1774823091.2621953,1.7642974853515625e-05,2026-03-29T22:24:51.262,2026-03-29T18:24:51.262,-32931.72,-45278.055,-84855.105,-51046.29,-12005.055,-18277.155,5814.135,-66610.395,-1.8445717358841485,2.710426651681086,7.37259276543303,0.5576379885477796,1.4798841836497647,-0.4356243144492457,-0.4356783374193265,-3.2467828302129678,0.07507305,-0.81506139,0.570860355,-4.94424,-12.07066,21.287699999999997,69.0
1774823091.2653832,0.003187894821166992,2026-03-29T22:24:51.265,2026-03-29T18:24:51.265,-32919.39,-45268.515,-84835.75499999999,-51025.634999999995,-12004.154999999999,-18285.255,5808.51,-66592.98,-2.5290442956555466,6.2966539417188265,14.130234836065801,5.2246076088750115,4.127930475320291,1.4269208476839428,-0.8602689626164848,-4.768582916628008,0.066589185,-0.8215311,0.57287451,-0.88508,-13.24568,20.311059999999998,69.0
1774823091.2654145,3.123283386230469e-05,2026-03-29T22:24:51.265,2026-03-29T18:24:51.265,-32930.235,-45276.84,-84840.885,-51025.86,-11996.279999999999,-18276.57,5810.67,-66595.095,-1.970562488819261,7.183193301619233,14.804157252069796,7.7966327130701405,5.090012840124892,2.826026209791069,-0.856927987094691,-4.098361244060978,0.066589185,-0.8215311,0.57287451,-0.88508,-13.24568,20.311059999999998,69.0
1774823091.2693224,0.003907918930053711,2026-03-29T22:24:51.269,2026-03-29T18:24:51.269,-32926.365,-45282.195,-84855.33,-51050.655,-12006.63,-18278.954999999998,5816.07,-66583.08,-0.4483422223736012,4.649964333981943,8.651323818121398,7.035237729432953,3.8700045847768254,3.019305406802667,-0.4614992536805175,-1.4742455253058577,0.066589185,-0.8215311,0.57287451,-0.88508,-13.24568,20.311059999999998,69.0
1774823091.2693489,2.6464462280273438e-05,2026-03-29T22:24:51.269,2026-03-29T18:24:51.269,-32925.465,-45288.72,-84867.20999999999,-51056.235,-12016.71,-18290.43,5805.719999999999,-66576.23999999999,1.2849373572486695,-0.3861784635997562,-1.9023622033079195,3.1264733829177596,0.9081546980674976,1.779370847294687,0.11172718027979657,1.93131786612233,0.066589185,-0.8215311,0.57287451,-0.88508,-13.24568,20.311059999999998,69.0
1774823091.2726157,0.0032668113708496094,2026-03-29T22:24:51.272,2026-03-29T18:24:51.272,-32922.63,-45290.79,-84871.395,-51039.09,-12003.84,-18278.774999999998,5805.405,-66570.795,2.3802771858064853,-5.680000025494302,-12.199051675204933,-2.323819069448288,-2.5675380886465553,-0.4423783991827622,0.579549599254163,4.5414844085476656,0.066589185,-0.8215311,0.57287451,-0.88508,-13.24568,20.311059999999998,69.0
1774823091.2726307,1.5020370483398438e-05,2026-03-29T22:24:51.272,2026-03-29T18:24:51.272,-32923.395,-45292.59,-84859.65,-51019.965,-11995.02,-18271.395,5808.105,-66568.5,2.311968431578738,-8.664336216656281,-17.416093080371436,-6.940737316300408,-5.047869969763891,-2.6729915871073198,0.7264249949909489,5.1102979124892824,0.066589185,-0.8215311,0.57287451,-0.88508,-13.24568,20.311059999999998,69.0
1774823091.28178,0.009149312973022461,2026-03-29T22:24:51.281,2026-03-29T18:24:51.281,-32918.4,-45300.015,-84859.47,-51022.935,-12011.715,-18297.899999999998,5805.179999999999,-66553.245,1.131039259736665,-7.701202252872103,-14.84138330959936,-8.619186668971539,-5.399767742492355,-3.8454827260952134,0.5036413233796688,3.3188151268219994,0.066589185,-0.8215311,0.57287451,-0.88508,-13.24568,20.311059999999998,69.0
1774823091.2818067,2.6702880859375e-05,2026-03-29T22:24:51.281,2026-03-29T18:24:51.281,-32915.79,-45279.09,-84843.405,-51026.895,-12010.904999999999,-18306.09,5809.679999999999,-66547.08,-0.5699174174049753,-2.9652390346771416,-5.275983812970329,-6.494995123912556,-3.3874295895764326,-3.308131564020151,0.04557955643834846,-0.0532501628707375,0.066589185,-0.8215311,0.57287451,-0.88508,-13.24568,20.311059999999998,69.0
1774823091.281833,2.6226043701171875e-05,2026-03-29T22:24:51.281,2026-03-29T18:24:51.281,-32927.265,-45252.72,-84836.7,-51043.095,-12005.505,-18282.195,5811.4349999999995,-66557.205,-1.957655495984715,3.511126979585949,7.1591130595303465,-1.394841144860425,0.1840913130489393,-1.172732766479381,-0.4027289709077632,-3.4701313265099336,0.066589185,-0.8215311,0.57287451,-0.88508,-13.24568,20.311059999999998,69.0
1774823091.281845,1.2159347534179688e-05,2026-03-29T22:24:51.281,2026-03-29T18:24:51.281,-32923.619999999995,-45240.795,-84821.44499999999,-51024.555,-11984.085,-18247.77,5820.48,-66555.54,-2.3709860722434137,8.711267238721506,16.80519249650601,4.471669080709553,3.786012336279089,1.6796011008512128,-0.6104135527056125,-5.345143042439139,0.066589185,-0.8215311,0.57287451,-0.88508,-13.24568,20.311059999999998,69.0
1774823091.2871192,0.005274057388305664,2026-03-29T22:24:51.287,2026-03-29T18:24:51.287,-32922.494999999995,-45245.159999999996,-84808.62,-51009.345,-11976.93,-18236.88,5821.5599999999995,-66548.52,-1.6393596121621459,10.051120900486554,19.06403977292941,8.472055091772626,5.821812392338118,3.962154032012014,-0.4766835507737765,-4.782697744767097,0.05920395,-0.827573565,0.576963855,0.97664,-14.115499999999999,20.47892,69.0
1774823091.2871363,1.71661376953125e-05,2026-03-29T22:24:51.287,2026-03-29T18:24:51.287,-32912.325,-45245.88,-84812.4,-51012.314999999995,-11982.869999999999,-18251.055,5819.13,-66534.165,-0.15259863305012625,6.668780672391007,12.608901182648362,8.74531462375028,5.340143576643217,4.565625418903739,-0.0807959030185262,-2.0085187951503447,0.05920395,-0.827573565,0.576963855,0.97664,-14.115499999999999,20.47892,69.0
1774823091.2894793,0.0023429393768310547,2026-03-29T22:24:51.289,2026-03-29T18:24:51.289,-32915.295,-45256.545,-84829.68,-51021.09,-11988.404999999999,-18261.45,5816.835,-66531.42,1.3462279785057847,-0.05897070026684465,0.13638851055117657,5.082479788082572,2.4838678769011464,3.0950544982758714,0.3591713688341887,1.7194026344525408,0.05920395,-0.827573565,0.576963855,0.97664,-14.115499999999999,20.47892,69.0
1774823091.289492,1.2636184692382812e-05,2026-03-29T22:24:51.289,2026-03-29T18:24:51.289,-32920.515,-45262.845,-84833.595,-51022.485,-11990.97,-18266.355,5813.594999999999,-66527.775,2.1351913210014297,-7.070099821429354,-12.757449297349424,-0.9305169717675925,-1.5389203211931817,0.10149789380679636,0.5992104474689686,4.685081815567442,0.05920395,-0.827573565,0.576963855,0.97664,-14.115499999999999,20.47892,69.0
1774823091.29639,0.006898164749145508,2026-03-29T22:24:51.296,2026-03-29T18:24:51.296,-32920.335,-45267.57,-84840.61499999999,-51031.215,-11998.395,-18273.239999999998,5817.87,-66519.27,1.8656594662335733,-11.022556394537219,-20.110905672272,-6.599799295854899,-4.966156377488091,-3.1195683667007037,0.4980817305156317,5.510786084944128,0.05920395,-0.827573565,0.576963855,0.97664,-14.115499999999999,20.47892,69.0
1774823091.2964115,2.1457672119140625e-05,2026-03-29T22:24:51.296,2026-03-29T18:24:51.296,-32916.24,-45271.799999999996,-84852.09,-51045.39,-12011.355,-18284.625,5814.09,-66508.2,0.7189280737753986,-9.901415122557891,-18.38285088669766,-9.34334138216289,-6.259133113603276,-5.091849546342117,0.09623825860191915,3.8036088725464134,0.05920395,-0.827573565,0.576963855,0.97664,-14.115499999999999,20.47892,69.0
1774823091.2993586,0.002947092056274414,2026-03-29T22:24:51.299,2026-03-29T18:24:51.299,-32911.424999999996,-45266.805,-84847.23,-51040.619999999995,-12006.135,-18278.235,5808.69,-66497.67,-0.7040349110514211,-4.049021729797947,-8.175734516132458,-7.885233395457283,-4.800409690777775,-4.837198066007002,-0.39776855115413606,0.3464298354671684,0.05920395,-0.827573565,0.576963855,0.97664,-14.115499999999999,20.47892,69.0
1774823091.299376,1.7404556274414062e-05,2026-03-29T22:24:51.299,2026-03-29T18:24:51.299,-32911.515,-45265.77,-84843.675,-51032.34,-11998.98,-18272.88,5803.155,-66490.47,-1.6962855294238008,3.9096853983473436,5.951207544786033,-2.8630816488603967,-1.1923171756922035,-2.356601000352537,-0.7106211210599902,-3.261304002829238,0.05920395,-0.827573565,0.576963855,0.97664,-14.115499999999999,20.47892,69.0
1774823091.2993925,1.6450881958007812e-05,2026-03-29T22:24:51.299,2026-03-29T18:24:51.299,-32917.275,-45270.63,-84844.44,-51027.119999999995,-11996.82,-18276.704999999998,5799.42,-66485.61,-1.7990556480497488,10.252519301551473,17.536245642203482,3.4475712996278087,2.990027747646587,1.3217327287391725,-0.6480620712359912,-5.348566144564642,0.05920395,-0.827573565,0.576963855,0.97664,-14.115499999999999,20.47892,69.0
1774823091.2994015,9.059906005859375e-06,2026-03-29T22:24:51.299,2026-03-29T18:24:51.299,-32924.97,-45267.615,-84829.185,-51008.895,-11987.234999999999,-18278.864999999998,5797.98,-66491.86499999999,-1.0180913108487049,11.917411012624292,21.203599224233443,8.17496120608835,5.891023103988754,4.5695670187910435,-0.20610719862075663,-4.954898757625037,0.05920395,-0.827573565,0.576963855,0.97664,-14.115499999999999,20.47892,69.0
1774823091.3049214,0.005519866943359375,2026-03-29T22:24:51.304,2026-03-29T18:24:51.304,-32927.85,-45274.275,-84837.555,-51009.93,-11990.835,-18279.135,5799.0599999999995,-66488.535,0.20145161335392997,7.994833792630712,15.188993417539265,9.17717421345325,6.205695049967358,5.883038982130588,0.41113369986023424,-2.2804324238212974,0.0549315,-0.82909944,0.58117527,1.77016,-13.06256,22.52376,69.0
1774823091.3049388,1.7404556274414062e-05,2026-03-29T22:24:51.304,2026-03-29T18:24:51.304,-32924.295,-45283.905,-84861.315,-51025.59,-11999.744999999999,-18273.555,5803.785,-66474.855,1.2203146094527668,0.22176690250074832,2.2014594243091827,6.030925180876773,3.773561550889793,4.580325999186729,0.8832201652524722,1.410631032082821,0.0549315,-0.82909944,0.58117527,1.77016,-13.06256,22.52376,69.0
1774823091.3087256,0.003786802291870117,2026-03-29T22:24:51.308,2026-03-29T18:24:51.308,-32912.909999999996,-45289.665,-84886.37999999999,-51030.18,-11999.925,-18263.295,5813.46,-66446.64,1.53855374341277,-7.7897192853175925,-11.80570257313291,0.21744529041907232,-0.3383385915512745,1.1484063563449451,0.934801714270725,4.388887520372033,0.0549315,-0.82909944,0.58117527,1.77016,-13.06256,22.52376,69.0
1774823091.3087437,1.811981201171875e-05,2026-03-29T22:24:51.308,2026-03-29T18:24:51.308,-32925.735,-45299.744999999995,-84912.435,-51053.354999999996,-12009.645,-18274.094999999998,5814.09,-66452.175,1.0440578190745238,-12.245953957174255,-20.393588699035792,-5.580302794330944,-4.306678873350742,-2.934666655010609,0.4872731440606446,5.2771596226965745,0.0549315,-0.82909944,0.58117527,1.77016,-13.06256,22.52376,69.0
1774823091.3129475,0.00420379638671875,2026-03-29T22:24:51.312,2026-03-29T18:24:51.312,-32941.935,-45295.155,-84900.375,-51049.395,-11997.675,-18261.855,5823.405,-66473.19,0.05155812534673426,-10.986625965493543,-19.634164818002464,-8.733199722497469,-6.367695923204154,-5.839190114414549,-0.27994838535784944,3.6973562050737714,0.0549315,-0.82909944,0.58117527,1.77016,-13.06256,22.52376,69.0
1774823091.3129692,2.1696090698242188e-05,2026-03-29T22:24:51.312,2026-03-29T18:24:51.312,-32928.21,-45291.195,-84888.495,-51050.205,-12005.324999999999,-18268.785,5808.51,-66451.59,-0.881260221369261,-4.544687677327258,-9.933145870650515,-7.878412824024064,-5.608975252988427,-6.206977813047559,-0.9984789638215622,0.4385611385290533,0.0549315,-0.82909944,0.58117527,1.77016,-13.06256,22.52376,69.0
1774823091.317054,0.00408482551574707,2026-03-29T22:24:51.317,2026-03-29T18:24:51.317,-32907.465,-45287.145,-84881.745,-51081.57,-12023.189999999999,-18285.39,5806.304999999999,-66417.075,-1.2581608935580537,4.074317873309188,4.179086343960824,-3.5195823519139573,-2.3778715228427316,-3.7866083028657207,-1.2856316816973938,-2.932177007641947,0.0549315,-0.82909944,0.58117527,1.77016,-13.06256,22.52376,69.0
1774823091.3170712,1.71661376953125e-05,2026-03-29T22:24:51.317,2026-03-29T18:24:51.317,-32909.174999999996,-45286.604999999996,-84867.3,-51089.22,-12031.425,-18301.995,5809.41,-66411.27,-0.9063933799222771,10.805069866617094,16.18379783067518,2.2555104504173578,1.87839660658431,0.41626175906871143,-0.9429077000469401,-4.826598629733742,0.0549315,-0.82909944,0.58117527,1.77016,-13.06256,22.52376,69.0
1774823091.3206344,0.0035631656646728516,2026-03-29T22:24:51.320,2026-03-29T18:24:51.320,-32923.395,-45272.07,-84812.265,-51015.689999999995,-12001.59,-18289.53,5806.53,-66432.87,-0.05889349926808536,12.458652733353924,20.62077695182872,6.786351613831149,5.266794111934585,4.557146613169765,-0.0772633183274793,-4.392919453378004,0.0549315,-0.82909944,0.58117527,1.77016,-13.06256,22.52376,69.0
1774823091.3206525,1.811981201171875e-05,2026-03-29T22:24:51.320,2026-03-29T18:24:51.320,-32923.395,-45252.494999999995,-84787.47,-50972.534999999996,-11970.765,-18261.719999999998,5813.46,-66433.86,0.7836941416582394,8.251586364684613,15.605155198808658,8.084724079015258,6.298083631674751,6.765347311242881,0.9244205580553518,-1.908969566757674,0.0549315,-0.82909944,0.58117527,1.77016,-13.06256,22.52376,69.0
1774823091.3279932,0.007340669631958008,2026-03-29T22:24:51.327,2026-03-29T18:24:51.327,-32907.015,-45253.259999999995,-84828.78,-51014.295,-11984.175,-18261.809999999998,5810.58,-66406.5,1.1340881217575687,0.18635237013574807,3.6383657152752984,5.72124225849289,4.546876590844971,5.9916332209626715,1.5672787242271833,1.3755281861343458,0.049255245,-0.820249365,0.583555635,-5.27996,-12.940479999999999,27.59008,69.0
1774823091.3280146,2.1457672119140625e-05,2026-03-29T22:24:51.328,2026-03-29T18:24:51.328,-32898.78,-45271.979999999996,-84872.565,-51053.13,-11997.135,-18275.895,5807.429999999999,-66386.34,0.7895733634820981,-7.905640671146764,-9.641054387488817,0.9508529766536037,0.8269429598001153,2.5059806364248294,1.4910523285374873,3.864084355123991,0.049255245,-0.820249365,0.583555635,-5.27996,-12.940479999999999,27.59008,69.0
1774823091.3382733,0.010258674621582031,2026-03-29T22:24:51.338,2026-03-29T18:24:51.338,-32886.0,-45283.275,-84887.37,-51074.189999999995,-12018.24,-18302.175,5806.71,-66358.53,-0.05396341076775092,-12.19959348163615,-18.141985007215517,-3.949164729930055,-3.190153883868437,-2.190203255398135,0.6651626226372603,4.394722779210371,0.049255245,-0.820249365,0.583555635,-5.27996,-12.940479999999999,27.59008,69.0
1774823091.3382924,1.9073486328125e-05,2026-03-29T22:24:51.338,2026-03-29T18:24:51.338,-32890.5,-45285.795,-84857.895,-51043.814999999995,-12011.805,-18296.145,5805.63,-66355.785,-0.9080952187045567,-10.705051553410469,-18.149687738345627,-6.78065113298391,-5.732540091451423,-6.012357878952478,-0.5670564120979346,2.792725849881817,0.049255245,-0.820249365,0.583555635,-5.27996,-12.940479999999999,27.59008,69.0
1774823091.338311,1.8596649169921875e-05,2026-03-29T22:24:51.338,2026-03-29T18:24:51.338,-32913.765,-45272.07,-84819.105,-51005.52,-11980.71,-18259.335,5811.795,-66382.83,-1.262286822413122,-4.203338906264459,-9.968900351037869,-6.425695305244542,-5.715088469456595,-7.221034116722257,-1.629518403671167,-0.07280529975683489,0.049255245,-0.820249365,0.583555635,-5.27996,-12.940479999999999,27.59008,69.0
1774823091.338318,7.152557373046875e-06,2026-03-29T22:24:51.338,2026-03-29T18:24:51.338,-32923.979999999996,-45258.705,-84821.895,-51017.49,-11985.164999999999,-18256.005,5806.665,-66383.145,-0.8729815119500156,4.153784475826447,2.355421073538615,-3.2839212883756344,-3.2037754439190653,-5.215747786872685,-1.9829797381083794,-2.7473933964293535,0.049255245,-0.820249365,0.583555635,-5.27996,-12.940479999999999,27.59008,69.0
1774823091.338326,7.867813110351562e-06,2026-03-29T22:24:51.338,2026-03-29T18:24:51.338,-32916.284999999996,-45252.674999999996,-84828.915,-51028.92,-11990.34,-18254.204999999998,5810.58,-66372.39,0.0872336123217817,10.38087419167902,13.047491579811568,1.0229200529400093,0.6416715678578407,-0.8314602567298002,-1.396879647340537,-3.9274277902602623,0.049255245,-0.820249365,0.583555635,-5.27996,-12.940479999999999,27.59008,69.0
1774823091.3383324,6.4373016357421875e-06,2026-03-29T22:24:51.338,2026-03-29T18:24:51.338,-32918.805,-45259.2,-84831.97499999999,-51027.075,-11986.289999999999,-18251.774999999998,5815.035,-66375.045,1.1065462765988603,11.577645352466837,17.33740861584721,4.489206141406001,4.10727996260952,4.007767856967747,-0.08703418466017791,-3.1019916948909017,0.049255245,-0.820249365,0.583555635,-5.27996,-12.940479999999999,27.59008,69.0
1774823091.3410082,0.002675771713256836,2026-03-29T22:24:51.341,2026-03-29T18:24:51.341,-32919.345,-45266.49,-84835.395,-51024.104999999996,-11983.814999999999,-18253.44,5818.995,-66369.33,1.6025184351392798,7.297702183456356,13.614517218321078,5.672017998782243,5.693268705287847,7.135022848541519,1.3592008874634465,-0.7811961626982258,0.049255245,-0.820249365,0.583555635,-5.27996,-12.940479999999999,27.59008,69.0
1774823091.341116,0.00010776519775390625,2026-03-29T22:24:51.341,2026-03-29T18:24:51.341,-32912.82,-45268.155,-84837.735,-51030.0,-11994.345,-18265.364999999998,5812.74,-66352.905,1.2427635234329886,-0.2872683530812742,4.013105345943818,4.292970804475905,4.764639693237678,7.1139677987688845,2.2473267152808356,1.794798192289312,0.049255245,-0.820249365,0.583555635,-5.27996,-12.940479999999999,27.59008,69.0
1774823091.3448794,0.003763437271118164,2026-03-29T22:24:51.344,2026-03-29T18:24:51.344,-32907.375,-45270.405,-84851.45999999999,-51045.705,-12002.76,-18271.89,5811.705,-66342.825,0.14499160507513345,-7.48761139939236,-6.771776472185701,1.2437121058269354,1.8012448007942181,3.9011816837266404,2.1103696480359058,3.3076305948044444,0.03967275,-0.818662455,0.582090795,-9.11022,-13.67296,32.076519999999995,69.0
1774823091.3448951,1.5735626220703125e-05,2026-03-29T22:24:51.344,2026-03-29T18:24:51.344,-32906.34,-45273.689999999995,-84860.28,-51059.79,-12013.02,-18279.855,5806.889999999999,-66336.93,-1.1576280965855617,-10.903460147559171,-13.794929785566529,-1.9495498419989963,-1.8483410540142546,-1.1088760589887126,0.9520640873258311,3.0344485379029407,0.03967275,-0.818662455,0.582090795,-9.11022,-13.67296,32.076519999999995,69.0
1774823091.3492892,0.004394054412841797,2026-03-29T22:24:51.349,2026-03-29T18:24:51.349,-32906.88,-45268.424999999996,-84848.76,-51045.479999999996,-12005.145,-18278.954999999998,5806.215,-66336.885,-1.978087016622745,-9.048483122375828,-14.153792485754314,-3.8936299686208593,-4.58305428033515,-5.688726717699385,-0.7272964181037385,1.199021494527555,0.03967275,-0.818662455,0.582090795,-9.11022,-13.67296,32.076519999999995,69.0
1774823091.3493063,1.71661376953125e-05,2026-03-29T22:24:51.349,2026-03-29T18:24:51.349,-32904.09,-45269.909999999996,-84846.915,-51034.77,-12002.445,-18284.895,5803.469999999999,-66328.47,-1.8345764513379237,-3.0054738280280398,-8.188394363621597,-3.9396708375917684,-5.252646229254753,-7.770726164859488,-2.1474195142107115,-1.1731645895873715,0.03967275,-0.818662455,0.582090795,-9.11022,-13.67296,32.076519999999995,69.0
1774823091.3530228,0.0037164688110351562,2026-03-29T22:24:51.353,2026-03-29T18:24:51.353,-32900.22,-45276.255,-84856.72499999999,-51038.009999999995,-12009.015,-18299.52,5798.835,-66315.825,-0.7201723732226045,4.180147132832594,0.9075639202673349,-2.3681312754665846,-3.638892194169031,-6.384714125912404,-2.6132996039925245,-2.8111139862058097,0.03967275,-0.818662455,0.582090795,-9.11022,-13.67296,32.076519999999995,69.0
1774823091.3530455,2.2649765014648438e-05,2026-03-29T22:24:51.353,2026-03-29T18:24:51.353,-32917.68,-45271.53,-84841.965,-51021.674999999996,-11992.994999999999,-18290.07,5801.49,-66341.385,0.8638436952137387,9.038326011598372,8.776644955565452,-0.11601384858400611,-0.5153237398717484,-2.113774827517156,-1.8571417319617318,-2.869706383204677,0.03967275,-0.818662455,0.582090795,-9.11022,-13.67296,32.076519999999995,69.0
1774823091.357878,0.00483250617980957,2026-03-29T22:24:51.357,2026-03-29T18:24:51.357,-32928.39,-45275.13,-84842.73,-51024.689999999995,-11992.23,-18281.88,5803.605,-66354.48,2.1393086977186604,9.365539564234448,12.001211303584276,1.7579780435207562,2.7228239826722076,3.1474570681214615,-0.18792037563088723,-1.3645147383691865,0.03967275,-0.818662455,0.582090795,-9.11022,-13.67296,32.076519999999995,69.0
1774823091.3578908,1.2874603271484375e-05,2026-03-29T22:24:51.357,2026-03-29T18:24:51.357,-32922.494999999995,-45280.979999999996,-84853.485,-51032.295,-11993.13,-18272.114999999998,5804.505,-66341.205,2.437833635169267,5.237727320926064,9.597321135540392,2.572615411047654,4.6812862809277185,7.033893330499741,1.6334782175272105,0.8538087837443156,0.03967275,-0.818662455,0.582090795,-9.11022,-13.67296,32.076519999999995,69.0
1774823091.361018,0.0031270980834960938,2026-03-29T22:24:51.361,2026-03-29T18:24:51.361,-32915.115,-45278.729999999996,-84851.595,-51026.534999999996,-11981.16,-18250.065,5815.485,-66329.955,1.5485996401916529,-1.1274305029606368,3.2413797405329827,2.251178542205176,4.564528804582814,7.777344354548539,2.7441349981868504,2.565926763754996,0.03967275,-0.818662455,0.582090795,-9.11022,-13.67296,32.076519999999995,69.0
1774823091.3610344,1.6450881958007812e-05,2026-03-29T22:24:51.361,2026-03-29T18:24:51.361,-32915.565,-45282.869999999995,-84855.105,-51033.24,-11991.555,-18256.14,5817.69,-66322.17,-0.15330326574188183,-6.548628593096291,-3.7707237507221114,1.213869144827214,2.4941669832250626,5.0170400366740235,2.591971788522865,2.840100048648168,0.03967275,-0.818662455,0.582090795,-9.11022,-13.67296,32.076519999999995,69.0
1774823091.3676848,0.006650447845458984,2026-03-29T22:24:51.367,2026-03-29T18:24:51.367,-32912.865,-45287.28,-84860.19,-51033.465,-12001.05,-18272.745,5811.03,-66311.37,-1.8711206403393423,-8.4787233636847,-8.22348000319824,0.05510425158926845,-0.5762170031066971,-0.02069111613696192,1.2123980486430856,1.529534421651078,0.02905266,-0.82238559,0.57971043,-5.371519999999999,-12.23852,33.32784,69.0
1774823091.3677068,2.193450927734375e-05,2026-03-29T22:24:51.367,2026-03-29T18:24:51.367,-32908.635,-45286.92,-84869.055,-51036.84,-12004.109999999999,-18275.715,5814.135,-66302.01,-2.7685787288587314,-6.216048541757664,-8.466619392576025,-0.782793722178713,-3.297575672604054,-5.06496570754362,-0.7708793079020887,-0.6518932032647599,0.02905266,-0.82238559,0.57971043,-5.371519999999999,-12.23852,33.32784,69.0
1774823091.3677258,1.9073486328125e-05,2026-03-29T22:24:51.367,2026-03-29T18:24:51.367,-32914.485,-45286.064999999995,-84874.00499999999,-51037.92,-12001.814999999999,-18275.715,5814.719999999999,-66307.77,-2.3825656663827033,-1.1461392323505246,-4.994198652656669,-1.1647266007451302,-4.514584363585992,-7.82666154174382,-2.430011773247981,-2.5140030303418706,0.02905266,-0.82238559,0.57971043,-5.371519999999999,-12.23852,33.32784,69.0
1774823091.3677316,5.7220458984375e-06,2026-03-29T22:24:51.367,2026-03-29T18:24:51.367,-32911.065,-45269.055,-84854.7,-51034.905,-11990.654999999999,-18266.715,5815.035,-66312.18,-0.8599248523857572,4.062127974565204,0.0657780755294369,-1.2010093631741494,-3.7523926813265924,-7.044013321309772,-2.9719885218032474,-3.0294825233597873,0.02905266,-0.82238559,0.57971043,-5.371519999999999,-12.23852,33.32784,69.0
1774823091.373247,0.005515336990356445,2026-03-29T22:24:51.373,2026-03-29T18:24:51.373,-32895.225,-45255.869999999995,-84834.27,-51032.115,-11982.105,-18257.489999999998,5814.945,-66292.965,1.1025182915363556,6.855108742534839,4.181891180059785,-1.0593840458867292,-1.39843767743387,-3.0671802822175533,-2.122798568066632,-1.8878228082066995,0.02905266,-0.82238559,0.57971043,-5.371519999999999,-12.23852,33.32784,69.0
1774823091.3732784,3.147125244140625e-05,2026-03-29T22:24:51.373,2026-03-29T18:24:51.373,-32884.515,-45252.225,-84826.08,-51022.845,-11982.24,-18259.695,5815.304999999999,-66278.52,2.588096476907972,6.0571306882867235,5.682514940690126,-0.8046022758684486,1.4880223241948467,2.292669007844399,-0.26850786342303135,0.33081433616737077,0.02905266,-0.82238559,0.57971043,-5.371519999999999,-12.23852,33.32784,69.0
1774823091.3790345,0.0057561397552490234,2026-03-29T22:24:51.379,2026-03-29T18:24:51.379,-32876.235,-45262.845,-84845.79,-51041.384999999995,-12002.895,-18279.809999999998,5809.094999999999,-66256.29,2.899235978243461,2.3679302106105666,4.421826817166004,-0.3779655050337165,3.6473961426157784,6.587911829184629,1.7204906820454138,2.455559715942804,0.02905266,-0.82238559,0.57971043,-5.371519999999999,-12.23852,33.32784,69.0
1774823091.3790612,2.6702880859375e-05,2026-03-29T22:24:51.379,2026-03-29T18:24:51.379,-32876.909999999996,-45283.185,-84872.34,-51056.415,-12020.805,-18299.204999999998,5800.59,-66235.995,1.890006614981041,-2.117429183739657,1.5905864982488247,0.2821870349591324,4.165212857361608,7.857979003600499,2.9022783717718976,3.3417083542980666,0.02905266,-0.82238559,0.57971043,-5.371519999999999,-12.23852,33.32784,69.0
1774823091.3813343,0.002273082733154297,2026-03-29T22:24:51.381,2026-03-29T18:24:51.381,-32912.415,-45303.435,-84879.27,-51040.395,-12007.619999999999,-18289.755,5796.8099999999995,-66265.29,0.03105945050149563,-5.069460706965877,-1.1187781876016942,1.0840704777044015,2.8580226416650176,5.533928490343994,2.7159206515328775,2.4796014208028594,0.02905266,-0.82238559,0.57971043,-5.371519999999999,-12.23852,33.32784,69.0
1774823091.3813586,2.4318695068359375e-05,2026-03-29T22:24:51.381,2026-03-29T18:24:51.381,-32928.795,-45301.32,-84863.97,-51011.865,-11985.255,-18272.52,5797.349999999999,-66286.62,-1.8207400217797989,-5.133511444079599,-2.4714580689286523,1.7265050270548195,0.33803424076191185,0.7024693651785258,1.2536623071369066,0.2738821150767464,0.02905266,-0.82238559,0.57971043,-5.371519999999999,-12.23852,33.32784,69.0
1774823091.3856156,0.0042569637298583984,2026-03-29T22:24:51.385,2026-03-29T18:24:51.385,-32928.345,-45293.31,-84856.77,-51003.405,-11977.335,-18268.29,5804.594999999999,-66283.425,-2.8307518048949367,-2.5595833582062295,-2.24725540041524,1.815598167415054,-2.26649064176071,-4.397555320318912,-0.7818731372314885,-2.1558607953636963,0.016418415,-0.821836275,0.581724585,-3.9676,-12.92522,33.83142,69.0
1774823091.385638,2.2411346435546875e-05,2026-03-29T22:24:51.385,2026-03-29T18:24:51.385,-32915.924999999996,-45272.07,-84842.37,-51000.255,-11981.789999999999,-18273.69,5805.2699999999995,-66279.19499999999,-2.5722736482946393,1.0443020167129118,-1.1465965142816374,1.1064459039411827,-3.810858722663287,-7.415451627406045,-2.4170906570339104,-3.55103822109928,0.016418415,-0.821836275,0.581724585,-3.9676,-12.92522,33.83142,69.0
1774823091.390602,0.004964113235473633,2026-03-29T22:24:51.390,2026-03-29T18:24:51.390,-32912.865,-45269.82,-84867.39,-51037.38,-12002.265,-18283.59,5809.32,-66272.985,-1.2065506909008112,3.659246962893521,-0.18468527771843204,-0.2766159856132776,-3.635499459569061,-6.981542901808954,-2.8790411472185955,-3.1671801789850393,0.016418415,-0.821836275,0.581724585,-3.9676,-12.92522,33.83142,69.0
1774823091.390622,1.9788742065429688e-05,2026-03-29T22:24:51.390,2026-03-29T18:24:51.390,-32905.35,-45271.619999999995,-84881.025,-51074.28,-12022.83,-18293.579999999998,5813.1449999999995,-66258.58499999999,0.6189674860520312,3.965047974020845,0.010847132282816394,-1.799154427794814,-1.8508311402370716,-3.3405114709602426,-1.9685201444676488,-1.164365828106582,0.016418415,-0.821836275,0.581724585,-3.9676,-12.92522,33.83142,69.0
1774823091.3930686,0.0024466514587402344,2026-03-29T22:24:51.393,2026-03-29T18:24:51.393,-32891.58,-45274.77,-84881.295,-51071.58,-12023.189999999999,-18293.94,5810.4,-66229.69499999999,2.0909282093763024,2.0104576982016584,-0.4349878943462583,-2.7221316738063357,0.7192216505464106,1.7731617131924693,-0.15130324868111986,1.4678830541445893,0.016418415,-0.821836275,0.581724585,-3.9676,-12.92522,33.83142,69.0
1774823091.393087,1.8358230590820312e-05,2026-03-29T22:24:51.393,2026-03-29T18:24:51.393,-32893.244999999995,-45279.27,-84871.08,-51067.305,-12008.07,-18275.04,5805.54,-66216.105,2.6048639671553686,-0.8979894636755564,-0.8165115908490801,-2.4750298329985414,2.9103872166654603,5.959181641662225,1.6770231930554036,3.4121163755021393,0.016418415,-0.821836275,0.581724585,-3.9676,-12.92522,33.83142,69.0
1774823091.4037015,0.010614633560180664,2026-03-29T22:24:51.403,2026-03-29T18:24:51.403,-32912.775,-45277.65,-84851.55,-51063.255,-11995.785,-18262.53,5809.905,-66238.155,2.0157883359395177,-2.995563697307489,-0.41683749590143704,-1.0024037152947716,3.742633576894454,7.284752281710307,2.6353552578956325,3.6916055446457205,0.016418415,-0.821836275,0.581724585,-3.9676,-12.92522,33.83142,69.0
1774823091.4037368,3.528594970703125e-05,2026-03-29T22:24:51.403,2026-03-29T18:24:51.403,-32920.244999999995,-45268.29,-84827.7,-51035.67,-11989.215,-18264.105,5812.425,-66255.48,0.6592850176326832,-3.0818568424316917,0.9080859883215047,1.1224939856711533,2.861445125420184,5.189396569979931,2.289185098514277,2.1627441922041153,0.016418415,-0.821836275,0.581724585,-3.9676,-12.92522,33.83142,69.0
1774823091.4037707,3.3855438232421875e-05,2026-03-29T22:24:51.403,2026-03-29T18:24:51.403,-32905.53,-45264.78,-84821.985,-51015.869999999995,-11991.33,-18276.39,5807.205,-66235.545,-0.8437556428791952,-1.1908680543371442,2.520658221071199,2.914879642863867,0.69563501690469,0.7320605573739682,0.8556753309131093,-0.4182025980911185,0.016418415,-0.821836275,0.581724585,-3.9676,-12.92522,33.83142,69.0
1774823091.4037893,1.8596649169921875e-05,2026-03-29T22:24:51.403,2026-03-29T18:24:51.403,-32903.145,-45266.985,-84832.065,-51017.265,-11987.55,-18278.19,5805.764999999999,-66225.33,-1.8847019658545234,1.459145691546528,3.326940944485896,3.447259981006284,-1.7423743570759742,-3.9339628116962917,-0.9187676628452044,-2.782395892943023,0.016418415,-0.821836275,0.581724585,-3.9676,-12.92522,33.83142,69.0
1774823091.4038115,2.2172927856445312e-05,2026-03-29T22:24:51.403,2026-03-29T18:24:51.403,-32911.784999999996,-45278.685,-84855.915,-51040.979999999996,-12002.445,-18293.76,5796.36,-66227.625,-2.1184192619058977,3.196754111513869,2.46290855412621,2.3409771819521135,-3.3250328025305245,-6.6021690862516165,-2.1436967877970696,-3.786289513223706,0.00866697,-0.81774693,0.588072225,-5.9208799999999995,-10.743039999999999,36.13568,69.0
1774823091.4038281,1.6689300537109375e-05,2026-03-29T22:24:51.403,2026-03-29T18:24:51.403,-32904.72,-45279.585,-84863.06999999999,-51062.58,-12023.055,-18312.48,5790.0599999999995,-66215.205,-1.5617660493117314,2.888702820428543,-0.06897079354866334,0.016173108751765034,-3.3324904380644025,-6.066385945478835,-2.235382341930747,-2.9734901909950207,0.00866697,-0.81774693,0.588072225,-5.9208799999999995,-10.743039999999999,36.13568,69.0
1774823091.409462,0.005633831024169922,2026-03-29T22:24:51.409,2026-03-29T18:24:51.409,-32885.1,-45268.515,-84851.73,-51054.21,-12025.845,-18315.45,5783.76,-66189.42,-0.5217095032294925,0.6250468289726879,-3.2227583550690437,-2.4562636304952155,-1.786602283013671,-2.679238109620313,-1.2036716852272984,-0.7805637075751163,0.00866697,-0.81774693,0.588072225,-5.9208799999999995,-10.743039999999999,36.13568,69.0
1774823091.4094808,1.8835067749023438e-05,2026-03-29T22:24:51.409,2026-03-29T18:24:51.409,-32886.81,-45282.104999999996,-84873.375,-51048.494999999995,-12015.765,-18301.725,5788.844999999999,-66182.44499999999,0.5806337627170439,-2.298311272090038,-5.354498126899995,-3.8551870275569673,0.5623248094143348,1.849367640499867,0.3695470147225208,1.7053396782603834,0.00866697,-0.81774693,0.588072225,-5.9208799999999995,-10.743039999999999,36.13568,69.0
1774823091.4131248,0.0036439895629882812,2026-03-29T22:24:51.413,2026-03-29T18:24:51.413,-32891.76,-45283.32,-84863.565,-51023.79,-11985.345,-18267.524999999998,5812.469999999999,-66186.58499999999,1.3876115228631305,-4.102957290432677,-5.093202767247196,-3.4244824624946753,2.5928208751991613,5.307438646064699,1.6456642912374384,3.3002865423784105,0.00866697,-0.81774693,0.588072225,-5.9208799999999995,-10.743039999999999,36.13568,69.0
1774823091.413147,2.2172927856445312e-05,2026-03-29T22:24:51.413,2026-03-29T18:24:51.413,-32906.205,-45287.369999999995,-84844.215,-51006.735,-11969.234999999999,-18253.98,5823.719999999999,-66205.305,1.7055054449263396,-3.5603959720585294,-2.1714535136544075,-1.288223634354255,3.3465776031686705,6.065271044370413,1.9721736305266635,3.3007174053486907,0.00866697,-0.81774693,0.588072225,-5.9208799999999995,-10.743039999999999,36.13568,69.0
1774823091.420127,0.006979942321777344,2026-03-29T22:24:51.420,2026-03-29T18:24:51.420,-32892.165,-45284.354999999996,-84848.895,-51034.229999999996,-11998.215,-18283.05,5815.08,-66177.495,1.5096289089482013,-0.7517084028272337,2.268864554899603,1.5633826956497032,2.4855608990182962,3.8557061500112644,1.2210301648428419,1.7967057558216528,0.00866697,-0.81774693,0.588072225,-5.9208799999999995,-10.743039999999999,36.13568,69.0
1774823091.4201427,1.5735626220703125e-05,2026-03-29T22:24:51.420,2026-03-29T18:24:51.420,-32877.99,-45271.305,-84860.86499999999,-51059.295,-12026.43,-18310.905,5799.33,-66143.25,0.8922893367711515,2.89104275177319,6.123390065848139,3.7342442065243024,0.4513135764953005,-0.12876857324506266,-0.15440753993899933,-0.419598045799054,0.00866697,-0.81774693,0.588072225,-5.9208799999999995,-10.743039999999999,36.13568,69.0
1774823091.420155,1.239776611328125e-05,2026-03-29T22:24:51.420,2026-03-29T18:24:51.420,-32871.69,-45260.505,-84860.28,-51052.905,-12028.005,-18326.52,5791.635,-66142.485,0.010743068149380306,5.317937506919379,7.348950871840824,4.113616327805018,-1.7527171242303634,-3.8602818566425947,-1.3728110718481514,-2.280810175456991,0.00866697,-0.81774693,0.588072225,-5.9208799999999995,-10.743039999999999,36.13568,69.0
1774823091.4201605,5.4836273193359375e-06,2026-03-29T22:24:51.420,2026-03-29T18:24:51.420,-32912.369999999995,-45256.049999999996,-84826.62,-51013.125,-11978.46,-18279.0,5808.6449999999995,-66203.73,-0.932572008546502,4.992184719140925,5.054783437905221,2.4524861255956023,-3.052235459698871,-5.501419652751374,-1.7533813472813498,-2.973295119786126,0.00866697,-0.81774693,0.588072225,-5.9208799999999995,-10.743039999999999,36.13568,69.0
1774823091.4272213,0.0070607662200927734,2026-03-29T22:24:51.427,2026-03-29T18:24:51.427,-32918.49,-45257.67,-84823.29,-51022.979999999996,-11975.355,-18263.114999999998,5818.86,-66207.42,-1.6906382936545676,1.80349295905351,0.07651508362215892,-0.47667555549603247,-2.8277670385013125,-4.316054306384945,-1.0899002155051536,-2.2997495731648736,0.00378417,-0.823056975,0.59509125,-7.95046,-10.666739999999999,40.423739999999995,69.0
1774823091.4272487,2.7418136596679688e-05,2026-03-29T22:24:51.427,2026-03-29T18:24:51.427,-32896.665,-45259.47,-84826.98,-51020.775,-11982.914999999999,-18269.415,5811.57,-66173.895,-1.9961914115276969,-2.7587753103327746,-5.3137619690577065,-3.235702509737459,-1.2164886069198457,-1.0110581953416262,0.23246995718805885,-0.7104033047619537,0.00378417,-0.823056975,0.59509125,-7.95046,-10.666739999999999,40.423739999999995,69.0
1774823091.4346473,0.0073986053466796875,2026-03-29T22:24:51.434,2026-03-29T18:24:51.434,-32894.235,-45271.53,-84839.355,-51016.905,-11981.385,-18266.265,5811.929999999999,-66160.305,-1.642104681867818,-6.310653803700368,-8.468724226375658,-4.428921955189089,0.960144412709262,2.6551833131306486,1.4449195753523976,0.9818688783433787,0.00378417,-0.823056975,0.59509125,-7.95046,-10.666739999999999,40.423739999999995,69.0
1774823091.434672,2.47955322265625e-05,2026-03-29T22:24:51.434,2026-03-29T18:24:51.434,-32893.065,-45287.189999999995,-84861.135,-51027.435,-11986.02,-18268.335,5812.38,-66144.78,-0.6031069043434413,-6.818569098634137,-7.691417306938872,-3.4133897081347735,2.608742056738552,4.790272445992382,1.8202070715262217,2.0289056474856033,0.00378417,-0.823056975,0.59509125,-7.95046,-10.666739999999999,40.423739999999995,69.0
1774823091.4423268,0.007654666900634766,2026-03-29T22:24:51.442,2026-03-29T18:24:51.442,-32890.409999999996,-45282.195,-84857.94,-51029.909999999996,-11989.08,-18268.829999999998,5812.605,-66142.62,0.8678212373457439,-3.73417171239376,-3.151177697734787,-0.647937824933314,2.9119076565928537,4.339169433846028,1.0874226608644333,2.088108651593268,0.00378417,-0.823056975,0.59509125,-7.95046,-10.666739999999999,40.423739999999995,69.0
1774823091.4423575,3.075599670410156e-05,2026-03-29T22:24:51.442,2026-03-29T18:24:51.442,-32892.525,-45261.09,-84830.265,-51013.755,-11983.005,-18269.415,5806.98,-66152.565,2.2519087565385045,1.603415898797282,3.104524880789904,2.5085546835401824,1.7374502149289657,1.6128729049741801,-0.3928621559757431,1.3165938702408193,0.00378417,-0.823056975,0.59509125,-7.95046,-10.666739999999999,40.423739999999995,69.0
1774823091.4423866,2.9087066650390625e-05,2026-03-29T22:24:51.442,2026-03-29T18:24:51.442,-32897.115,-45252.0,-84831.56999999999,-51016.049999999996,-11981.52,-18267.885,5811.3,-66162.06,2.929310429128535,6.555374246502448,8.090703990398007,4.462985973677118,-0.29799848744154434,-1.893466241122155,-1.799499337802359,0.20482534144625106,0.00378417,-0.823056975,0.59509125,-7.95046,-10.666739999999999,40.423739999999995,69.0
1774823091.442399,1.239776611328125e-05,2026-03-29T22:24:51.442,2026-03-29T18:24:51.442,-32888.744999999995,-45268.695,-84868.02,-51037.83,-11996.414999999999,-18276.614999999998,5804.6849999999995,-66135.87,2.455615730688542,8.49964831840177,9.337401165122762,4.191519218257903,-2.1448354250326136,-4.295290302216454,-2.2892484989167325,-0.725316514174864,0.00378417,-0.823056975,0.59509125,-7.95046,-10.666739999999999,40.423739999999995,69.0
1774823091.4424136,1.4543533325195312e-05,2026-03-29T22:24:51.442,2026-03-29T18:24:51.442,-32887.979999999996,-45286.65,-84893.48999999999,-51052.86,-12002.039999999999,-18276.795,5804.28,-66119.4,0.8272555861953271,6.213901054034107,6.1350170904151575,1.7750848338661596,-2.8571997779235847,-4.312667581696338,-1.4743962173455016,-1.1768725081551525,0.00378417,-0.823056975,0.59509125,-7.95046,-10.666739999999999,40.423739999999995,69.0
1774823091.4424248,1.1205673217773438e-05,2026-03-29T22:24:51.442,2026-03-29T18:24:51.442,-32904.72,-45285.435,-84878.145,-51041.115,-11991.689999999999,-18268.29,5807.7,-66136.455,-1.4150935555010038,0.5974635481902902,-0.06406111776791468,-1.6127581467529781,-2.077790572201055,-1.9461982632953034,0.3218670377164532,-1.157664796120791,0.00378417,-0.823056975,0.59509125,-7.95046,-10.666739999999999,40.423739999999995,69.0
1774823091.4458764,0.0034515857696533203,2026-03-29T22:24:51.445,2026-03-29T18:24:51.445,-32907.69,-45278.82,-84863.11499999999,-51039.54,-11996.234999999999,-18280.71,5809.005,-66142.53,-3.3406043940209074,-5.678469416237806,-6.312788267426606,-4.2734475248562624,-0.2218879215560498,1.5196756676897962,2.186752466271369,-0.8719116931692589,0.0008544900000000001,-0.837583305,0.59521332,-1.8312,-8.6982,44.52868,69.0
1774823091.445897,2.0742416381835938e-05,2026-03-29T22:24:51.445,2026-03-29T18:24:51.445,-32905.395,-45290.34,-84875.895,-51057.314999999995,-12004.47,-18286.02,5802.705,-66130.29,-4.012931736967415,-9.458303793416965,-9.594679787384042,-4.832051595834511,1.7364043684772854,4.19256134706016,3.0743771295694424,-0.5251844090168596,0.0008544900000000001,-0.837583305,0.59521332,-1.8312,-8.6982,44.52868,69.0
1774823091.4497268,0.0038297176361083984,2026-03-29T22:24:51.449,2026-03-29T18:24:51.449,-32921.145,-45298.665,-84894.56999999999,-51065.729999999996,-11989.484999999999,-18268.605,5808.6449999999995,-66147.56999999999,-2.947525154701966,-8.698674975646874,-8.306760598264601,-2.943181411238984,2.768703166418014,4.57898116122552,2.371692985483406,-0.18503193410559451,0.0008544900000000001,-0.837583305,0.59521332,-1.8312,-8.6982,44.52868,69.0
1774823091.4497528,2.5987625122070312e-05,2026-03-29T22:24:51.449,2026-03-29T18:24:51.449,-32916.78,-45298.439999999995,-84909.285,-51081.525,-11997.855,-18278.684999999998,5812.0199999999995,-66146.805,-0.4170196697819156,-3.5618287093246894,-3.059754827942195,0.5069597462583447,2.328979854431218,2.395902463548039,0.27454846899229,0.21261991341939737,0.0008544900000000001,-0.837583305,0.59521332,-1.8312,-8.6982,44.52868,69.0
1774823091.455835,0.006082296371459961,2026-03-29T22:24:51.455,2026-03-29T18:24:51.455,-32907.555,-45285.255,-84882.06,-51059.205,-12001.275,-18292.454999999998,5809.005,-66142.62,2.5755978563208535,3.575110463669532,3.610782479958042,3.8165000876583446,0.6435052252415137,-1.2457561240744695,-2.2430499678861393,0.7295370964836647,0.0008544900000000001,-0.837583305,0.59521332,-1.8312,-8.6982,44.52868,69.0
1774823091.455857,2.193450927734375e-05,2026-03-29T22:24:51.455,2026-03-29T18:24:51.455,-32895.315,-45272.295,-84851.37,-51045.884999999995,-12010.23,-18302.579999999998,5807.385,-66132.9,4.689430308101973,9.237273124759307,8.485582886313928,5.305969914483004,-1.4003595572697634,-4.397062149473499,-3.8804026422463456,1.2756414272811571,0.0008544900000000001,-0.837583305,0.59521332,-1.8312,-8.6982,44.52868,69.0
1774823091.4645605,0.008703470230102539,2026-03-29T22:24:51.464,2026-03-29T18:24:51.464,-32881.905,-45261.18,-84837.95999999999,-51059.655,-12013.47,-18299.655,5808.0599999999995,-66120.48,4.85312603785601,10.56241643842241,9.240188421337523,4.165460533077363,-2.7141730947216254,-5.291656462922357,-3.6733533814049646,1.573367209128408,0.0008544900000000001,-0.837583305,0.59521332,-1.8312,-8.6982,44.52868,69.0
1774823091.464599,3.838539123535156e-05,2026-03-29T22:24:51.464,2026-03-29T18:24:51.464,-32877.36,-45262.305,-84837.33,-51069.42,-12019.005,-18296.37,5807.655,-66108.555,2.8088555087846956,6.754220668092709,5.575913638137404,0.8846912221333417,-2.5815963267722934,-3.3045546906794367,-1.5340575885584136,1.2926537611929723,0.0008544900000000001,-0.837583305,0.59521332,-1.8312,-8.6982,44.52868,69.0
1774823091.4646251,2.6226043701171875e-05,2026-03-29T22:24:51.464,2026-03-29T18:24:51.464,-32877.045,-45268.02,-84835.75499999999,-51049.17,-12019.365,-18299.745,5802.255,-66099.915,-0.6842530282602791,-0.4623890017565639,-0.6567697889680407,-2.959028041513116,-1.0454172644897872,0.6602636086688177,1.6257810540693571,0.29330188910299326,0.0008544900000000001,-0.837583305,0.59521332,-1.8312,-8.6982,44.52868,69.0
1774823091.4646325,7.3909759521484375e-06,2026-03-29T22:24:51.464,2026-03-29T18:24:51.464,-32889.06,-45270.314999999995,-84831.12,-51030.045,-12005.865,-18295.29,5799.42,-66114.22499999999,-4.121157394770578,-7.63627838822041,-6.3960882292579955,-5.462152922533099,1.0992534679625008,4.579222217663635,4.283088132435717,-1.1799438041259531,0.0008544900000000001,-0.837583305,0.59521332,-1.8312,-8.6982,44.52868,69.0
1774823091.4670584,0.0024259090423583984,2026-03-29T22:24:51.467,2026-03-29T18:24:51.467,-32913.674999999996,-45275.985,-84832.2,-51017.759999999995,-11979.27,-18269.864999999998,5810.67,-66154.275,-5.90599822836936,-11.262343357288977,-8.89073436742425,-5.336123354241311,2.710767672108815,6.33096661528643,5.038125437894608,-2.5035472925329154,0.00451659,-0.843320595,0.595640565,7.81312,-5.43256,47.5349,69.0
1774823091.4670804,2.193450927734375e-05,2026-03-29T22:24:51.467,2026-03-29T18:24:51.467,-32912.955,-45270.9,-84830.04,-51010.604999999996,-11965.635,-18257.535,5814.99,-66162.19499999999,-5.102781035556509,-9.510642705706044,-7.0412496390031265,-2.5626978037124104,2.900930364212115,4.818619929258494,3.3408070269684114,-2.933044807219417,0.00451659,-0.843320595,0.595640565,7.81312,-5.43256,47.5349,69.0
1774823091.4693258,0.0022454261779785156,2026-03-29T22:24:51.469,2026-03-29T18:24:51.469,-32892.795,-45264.33,-84833.19,-51014.564999999995,-11973.42,-18267.614999999998,5809.32,-66139.38,-1.9238461265916353,-3.151932414663693,-1.8971290721557936,1.5676327427499535,1.5169030865574087,0.6080969915679943,-0.16455854138400494,-2.0094398009118914,0.00451659,-0.843320595,0.595640565,7.81312,-5.43256,47.5349,69.0
1774823091.4693491,2.3365020751953125e-05,2026-03-29T22:24:51.469,2026-03-29T18:24:51.469,-32882.895,-45270.045,-84857.805,-51057.45,-12009.24,-18300.105,5805.495,-66128.48999999999,2.298195609460164,4.789493618087166,3.920968521277355,5.063799286733361,-0.7534179860605557,-4.273371634424811,-3.877041204860441,0.10343569798961973,0.00451659,-0.843320595,0.595640565,7.81312,-5.43256,47.5349,69.0
1774823091.4735737,0.004224538803100586,2026-03-29T22:24:51.473,2026-03-29T18:24:51.473,-32868.09,-45261.72,-84855.42,-51083.865,-12033.359999999999,-18319.005,5800.094999999999,-66117.19499999999,5.673569211920546,10.49513360312662,7.561614203696949,6.198630913113244,-2.719738025858148,-7.312852936785919,-5.97568565699017,2.5675701750601205,0.00451659,-0.843320595,0.595640565,7.81312,-5.43256,47.5349,69.0
1774823091.4736068,3.314018249511719e-05,2026-03-29T22:24:51.473,2026-03-29T18:24:51.473,-32887.08,-45259.244999999995,-84829.635,-51039.314999999995,-12003.48,-18292.14,5806.26,-66143.61,6.613220358505828,11.209973176138188,7.3572875613929485,4.3597197072986305,-3.3065073523655526,-6.7919517444938,-5.313600426841579,4.191386266164738,0.00451659,-0.843320595,0.595640565,7.81312,-5.43256,47.5349,69.0
1774823091.4779823,0.004375457763671875,2026-03-29T22:24:51.477,2026-03-29T18:24:51.477,-32898.78,-45267.525,-84828.465,-51007.905,-11973.24,-18263.79,5817.014999999999,-66160.215,4.586183734000552,6.585004380609655,3.60383165212659,0.3674979632867612,-2.1316163173371483,-2.724340671290916,-2.0298053466687183,4.006696471652969,0.00451659,-0.843320595,0.595640565,7.81312,-5.43256,47.5349,69.0
1774823091.4779994,1.71661376953125e-05,2026-03-29T22:24:51.477,2026-03-29T18:24:51.477,-32888.744999999995,-45282.825,-84860.64,-51031.53,-11981.475,-18269.325,5823.764999999999,-66144.87,0.41109701623439154,-1.1550649765812895,-1.666811443558325,-3.900960203944536,0.26093430087136,3.049061839324522,2.442578202337195,1.8221607883698887,0.00451659,-0.843320595,0.595640565,7.81312,-5.43256,47.5349,69.0
1774823091.486814,0.008814573287963867,2026-03-29T22:24:51.486,2026-03-29T18:24:51.486,-32887.575,-45295.695,-84882.555,-51055.65,-11996.505,-18282.96,5817.87,-66144.19499999999,-4.075240690021033,-8.298142681204109,-5.773821482864233,-6.405298855367656,2.6503146940593605,7.697236089750848,6.007740121322682,-1.5547923958406558,0.00451659,-0.843320595,0.595640565,7.81312,-5.43256,47.5349,69.0
1774823091.4868464,3.24249267578125e-05,2026-03-29T22:24:51.486,2026-03-29T18:24:51.486,-32884.29,-45296.595,-84873.465,-51055.155,-11997.449999999999,-18281.88,5815.889999999999,-66144.015,-6.837515470366916,-11.447264303327948,-6.7572171585574665,-5.9220689612558735,3.7571615355119015,8.786157798602897,6.8974459217961925,-4.595419250006745,0.00451659,-0.843320595,0.595640565,7.81312,-5.43256,47.5349,69.0
1774823091.4868789,3.24249267578125e-05,2026-03-29T22:24:51.486,2026-03-29T18:24:51.486,-32886.9,-45290.115,-84863.34,-51054.525,-12001.32,-18291.375,5810.085,-66154.77,-6.578318928624882,-9.1540143105375,-4.3272538421881315,-2.6378986356135212,2.919602887885213,5.536504334931806,4.548623576237459,-5.744259050406849,0.005798325,-0.843930945,0.5944809,14.17654,-4.15072,46.89398,69.0
1774823091.4868982,1.9311904907226562e-05,2026-03-29T22:24:51.486,2026-03-29T18:24:51.486,-32875.875,-45266.174999999996,-84846.015,-51042.645,-12000.734999999999,-18289.89,5800.005,-66144.915,-3.3543318044508994,-2.589465687199233,0.07260305369675446,1.9309805943066922,0.47335909733331666,-0.69168293234383,-0.06789940009757976,-4.214169075606186,0.005798325,-0.843930945,0.5944809,14.17654,-4.15072,46.89398,69.0
1774823091.4894812,0.002583026885986328,2026-03-29T22:24:51.489,2026-03-29T18:24:51.489,-32886.045,-45247.95,-84818.11499999999,-51011.729999999996,-11979.72,-18264.329999999998,5802.344999999999,-66170.43,1.4234675318019687,5.059984500901215,4.086961458308278,5.653735231848311,-2.3765302045549763,-6.968293060820975,-4.851134069508577,-0.47549575962308627,0.005798325,-0.843930945,0.5944809,14.17654,-4.15072,46.89398,69.0
1774823091.4894955,1.430511474609375e-05,2026-03-29T22:24:51.489,2026-03-29T18:24:51.489,-32899.635,-45245.475,-84804.93,-50993.055,-11963.564999999999,-18246.645,5811.12,-66209.67,5.616704850886022,10.157429338618813,5.698778338205722,6.790458297536549,-4.147130062995174,-10.178398334956716,-7.537353301698138,3.848805105443232,0.005798325,-0.843930945,0.5944809,14.17654,-4.15072,46.89398,69.0
1774823091.4933808,0.0038852691650390625,2026-03-29T22:24:51.493,2026-03-29T18:24:51.493,-32889.825,-45249.57,-84814.155,-50998.905,-11966.58,-18257.579999999998,5809.905,-66200.175,7.330427379170998,10.364319604835634,4.248548391206273,4.807884852408478,-3.8428496699303465,-8.565753555161288,-6.780845396004539,6.687898357029185,0.005798325,-0.843930945,0.5944809,14.17654,-4.15072,46.89398,69.0
1774823091.493408,2.7179718017578125e-05,2026-03-29T22:24:51.493,2026-03-29T18:24:51.493,-32891.715,-45256.814999999995,-84829.095,-51012.494999999995,-11972.564999999999,-18267.795,5807.205,-66205.17,5.780550481619226,5.723722742863046,0.704881800786965,0.6209538368321785,-1.5021892283296734,-2.6705477511986584,-2.827837549050967,6.521825327794568,0.005798325,-0.843930945,0.5944809,14.17654,-4.15072,46.89398,69.0
1774823091.4976623,0.004254341125488281,2026-03-29T22:24:51.497,2026-03-29T18:24:51.497,-32891.67,-45268.29,-84853.44,-51040.35,-11988.135,-18278.145,5808.195,-66209.22,1.655725461857376,-1.4281273015333733,-2.9245579432736135,-3.845784415994714,1.769233074526158,4.831030870887234,2.554183511080267,3.1893126029502934,0.005798325,-0.843930945,0.5944809,14.17654,-4.15072,46.89398,69.0
1774823091.497706,4.363059997558594e-05,2026-03-29T22:24:51.497,2026-03-29T18:24:51.497,-32883.075,-45275.759999999995,-84866.84999999999,-51054.165,-11991.105,-18276.93,5817.33,-66204.495,-3.1946696559077994,-7.646337440241037,-4.7009305172362374,-6.559505997809622,4.320111800759008,10.350777057023901,6.8775884054944205,-1.9224906155445785,0.005798325,-0.843930945,0.5944809,14.17654,-4.15072,46.89398,69.0
1774823091.5019689,0.0042629241943359375,2026-03-29T22:24:51.501,2026-03-29T18:24:51.501,-32878.755,-45273.195,-84851.55,-51039.494999999995,-11988.494999999999,-18282.78,5816.07,-66208.41,-6.60202380667769,-10.053540906788495,-3.7797626581768125,-6.313110754612622,4.7839255140533465,11.112481240055493,8.098418572618131,-6.450601989536165,0.005798325,-0.843930945,0.5944809,14.17654,-4.15072,46.89398,69.0
1774823091.5019867,1.7881393432617188e-05,2026-03-29T22:24:51.501,2026-03-29T18:24:51.501,-32873.265,-45268.604999999996,-84853.935,-51048.45,-12008.564999999999,-18309.195,5802.255,-66212.86499999999,-7.060721705059729,-7.684818871150514,-0.81537503723996,-3.2580976063079654,2.80207973922529,6.544500487102296,5.592345021541507,-8.157705873359768,0.005798325,-0.843930945,0.5944809,14.17654,-4.15072,46.89398,69.0
1774823091.505448,0.0034613609313964844,2026-03-29T22:24:51.505,2026-03-29T18:24:51.505,-32872.905,-45266.265,-84858.345,-51055.92,-12025.35,-18327.915,5787.135,-66224.34,-4.400366288950814,-1.867124060884065,2.450444580054131,1.1972355735141762,-0.7394223466332681,-1.3562825746209728,0.47246240167820686,-6.044854155461481,0.00598143,-0.842588175,0.59350434,18.311999999999998,0.42728,49.976499999999994,69.0
1774823091.5054755,2.7418136596679688e-05,2026-03-29T22:24:51.505,2026-03-29T18:24:51.505,-32866.65,-45266.759999999995,-84866.805,-51053.85,-12034.664999999999,-18339.885,5776.38,-66231.63,0.1551959310251158,4.510940474571064,4.172096371465709,5.0558994578054,-4.104362525075518,-8.903467641954347,-4.912608895843643,-0.918641162721894,0.00598143,-0.842588175,0.59350434,18.311999999999998,0.42728,49.976499999999994,69.0
1774823091.5098903,0.004414796829223633,2026-03-29T22:24:51.509,2026-03-29T18:24:51.509,-32872.14,-45270.72,-84873.42,-51030.72,-12010.005,-18314.64,5793.3,-66246.61499999999,4.559613012986217,8.44168996024335,3.4139578456245046,6.640916479910676,-5.557358331750717,-12.453890886971124,-8.070914678829409,4.902812037403084,0.00598143,-0.842588175,0.59350434,18.311999999999998,0.42728,49.976499999999994,69.0
1774823091.5099094,1.9073486328125e-05,2026-03-29T22:24:51.509,2026-03-29T18:24:51.509,-32849.729999999996,-45261.765,-84880.17,-51035.085,-12005.505,-18311.489999999998,5792.67,-66228.84,6.875309495374885,8.229170695296894,0.647692023218608,5.324309010646801,-4.254594317355244,-10.174474833051958,-7.535427370778938,8.646381375010465,0.00598143,-0.842588175,0.59350434,18.311999999999998,0.42728,49.976499999999994,69.0
1774823091.5136113,0.003701925277709961,2026-03-29T22:24:51.513,2026-03-29T18:24:51.513,-32844.104999999996,-45282.869999999995,-84926.16,-51074.64,-12023.685,-18318.329999999998,5785.469999999999,-66224.565,6.134908783217795,4.222458286759885,-2.526861095538735,1.7593128231434745,-0.7187944598769431,-2.9828790217008176,-3.5540932220243864,8.417655319931454,0.00598143,-0.842588175,0.59350434,18.311999999999998,0.42728,49.976499999999994,69.0
1774823091.513631,1.9788742065429688e-05,2026-03-29T22:24:51.513,2026-03-29T18:24:51.513,-32880.06,-45303.57,-84923.45999999999,-51097.725,-12011.939999999999,-18283.364999999998,5807.835,-66267.855,2.745775463806448,-1.4652419550071942,-4.2763810327349825,-2.459909638742017,3.3633440346716,5.8187179694997555,2.0268499258260118,4.164556008200485,0.00598143,-0.842588175,0.59350434,18.311999999999998,0.42728,49.976499999999994,69.0
1774823091.5172353,0.0036041736602783203,2026-03-29T22:24:51.517,2026-03-29T18:24:51.517,-32910.525,-45325.979999999996,-84910.635,-51123.555,-12014.234999999999,-18269.684999999998,5840.55,-66302.64,-1.7312927481004288,-6.063322816918837,-3.554120640931194,-5.527444297314858,5.947250176616957,12.072847681815542,6.630860362666871,-2.2215667792051654,0.00598143,-0.842588175,0.59350434,18.311999999999998,0.42728,49.976499999999994,69.0
1774823091.5172582,2.288818359375e-05,2026-03-29T22:24:51.517,2026-03-29T18:24:51.517,-32918.895,-45310.68,-84869.64,-51094.395,-12010.77,-18271.62,5838.03,-66321.0,-5.309891425256924,-7.499364913484078,-0.6909665406711666,-6.202076319437366,5.654481500344236,12.745593819701003,8.157441210349699,-7.752264021019685,0.00598143,-0.842588175,0.59350434,18.311999999999998,0.42728,49.976499999999994,69.0
1774823091.5242064,0.006948232650756836,2026-03-29T22:24:51.524,2026-03-29T18:24:51.524,-32908.185,-45255.78,-84801.555,-51013.305,-11980.89,-18267.75,5812.875,-66322.08,-6.468810038093105,-5.337998136304552,2.764276421145145,-4.295426391317209,2.501871172733194,7.4069520570534095,5.954819074480463,-9.754691405430563,0.00598143,-0.842588175,0.59350434,18.311999999999998,0.42728,49.976499999999994,69.0
1774823091.5242271,2.0742416381835938e-05,2026-03-29T22:24:51.524,2026-03-29T18:24:51.524,-32890.185,-45239.445,-84800.565,-51008.265,-11977.965,-18266.985,5817.915,-66308.895,-4.8021144964876905,-0.8765453772707253,4.873718983729264,-0.6882169627298708,-2.0474198748785746,-1.5133071124967352,1.1021370440808897,-7.176304189013654,0.00598143,-0.842588175,0.59350434,18.311999999999998,0.42728,49.976499999999994,69.0
1774823091.5242467,1.9550323486328125e-05,2026-03-29T22:24:51.524,2026-03-29T18:24:51.524,-32878.53,-45246.284999999996,-84821.895,-51031.17,-11986.92,-18268.425,5819.804999999999,-66292.065,-1.149477944757822,3.5961996493623998,4.367308756288514,3.0929469015352753,-5.764234371306667,-9.840570503115718,-4.123082115163273,-1.1387810589840646,0.00634764,-0.8315408400000001,0.601011645,19.3039,-0.10682,51.517759999999996,69.0
1774823091.5242543,7.62939453125e-06,2026-03-29T22:24:51.524,2026-03-29T18:24:51.524,-32874.75,-45257.49,-84833.73,-51039.45,-12000.015,-18287.37,5814.764999999999,-66265.92,2.827487001547054,5.966846538159055,1.3616004156189652,5.527173586285656,-6.748657701534644,-13.62603497777592,-7.3281077886836,5.550628786739569,0.00634764,-0.8315408400000001,0.601011645,19.3039,-0.10682,51.517759999999996,69.0
1774823091.5295308,0.00527644157409668,2026-03-29T22:24:51.529,2026-03-29T18:24:51.529,-32869.665,-45256.77,-84836.655,-51037.02,-12010.185,-18313.965,5807.385,-66237.56999999999,5.408672236489974,5.297833542642918,-2.651176016728122,5.698234955455076,-4.400978076903991,-11.035842605444909,-7.117762547312731,9.717340127162316,0.00634764,-0.8315408400000001,0.601011645,19.3039,-0.10682,51.517759999999996,69.0
1774823091.5295491,1.8358230590820312e-05,2026-03-29T22:24:51.529,2026-03-29T18:24:51.529,-32887.44,-45255.104999999996,-84824.595,-51024.78,-11998.035,-18304.515,5805.224999999999,-66246.255,5.5646129716039,2.1878031963352758,-5.552687779592813,3.6127226862751227,0.22773914501834258,-3.2478686427205647,-3.7118276960372216,9.342255407109906,0.00634764,-0.8315408400000001,0.601011645,19.3039,-0.10682,51.517759999999996,69.0
1774823091.536913,0.007363796234130859,2026-03-29T22:24:51.536,2026-03-29T18:24:51.536,-32874.885,-45244.799999999996,-84813.345,-51025.409999999996,-11993.939999999999,-18282.87,5808.24,-66220.065,3.3630403254859824,-1.6393595259650655,-5.705527496699333,0.14436643064317625,4.905071836057492,6.086131723159083,1.2109048553566726,4.551263006782419,0.00634764,-0.8315408400000001,0.601011645,19.3039,-0.10682,51.517759999999996,69.0
1774823091.5369315,1.8596649169921875e-05,2026-03-29T22:24:51.536,2026-03-29T18:24:51.536,-32872.005,-45257.939999999995,-84835.34999999999,-51038.729999999996,-11992.904999999999,-18264.059999999998,5814.855,-66193.83,-0.1250511009102605,-4.262944679564097,-2.84265650348088,-3.338502038194606,7.298128628330328,12.566959241149023,5.345573890074665,-2.418472896027033,0.00634764,-0.8315408400000001,0.601011645,19.3039,-0.10682,51.517759999999996,69.0
1774823091.5388455,0.0019140243530273438,2026-03-29T22:24:51.538,2026-03-29T18:24:51.538,-32874.479999999996,-45260.415,-84836.745,-51031.395,-11977.47,-18252.045,5824.485,-66181.95,-3.3477291543429946,-4.520792587828517,1.7318729064504066,-5.499832428568196,6.141035430492803,13.141073489674076,6.855912868963259,-8.272549633768804,0.00634764,-0.8315408400000001,0.601011645,19.3039,-0.10682,51.517759999999996,69.0
1774823091.5388615,1.5974044799804688e-05,2026-03-29T22:24:51.538,2026-03-29T18:24:51.538,-32880.375,-45261.36,-84835.89,-51033.6,-11984.939999999999,-18269.774999999998,5822.28,-66174.56999999999,-4.967518838407802,-2.52022927315872,5.7529203630228425,-5.521999429208919,1.9031996163657359,7.556148043747228,5.204209427961883,-10.232765025371227,0.00634764,-0.8315408400000001,0.601011645,19.3039,-0.10682,51.517759999999996,69.0
1774823091.5596695,0.020807981491088867,2026-03-29T22:24:51.559,2026-03-29T18:24:51.559,-32887.08,-45265.32,-84840.03,-51039.314999999995,-11997.18,-18287.1,5815.485,-66163.005,-4.416372761663363,0.5169211734721404,7.12119589572061,-3.3910481660359886,-3.393858086344943,-1.5221373472653696,1.3348514152690851,-7.371047443073864,0.00634764,-0.8315408400000001,0.601011645,19.3039,-0.10682,51.517759999999996,69.0
1774823091.559687,1.7404556274414062e-05,2026-03-29T22:24:51.559,2026-03-29T18:24:51.559,-32883.39,-45267.255,-84850.875,-51054.884999999995,-12011.85,-18298.71,5810.58,-66138.97499999999,-2.0805575162553707,2.9530438974688282,4.983342969321734,0.1025160722988995,-7.144312459418635,-9.789237843269142,-2.847019297766499,-1.0564061045737663,0.00634764,-0.8315408400000001,0.601011645,19.3039,-0.10682,51.517759999999996,69.0
1774823091.5597029,1.5974044799804688e-05,2026-03-29T22:24:51.559,2026-03-29T18:24:51.559,-32880.465,-45267.84,-84854.34,-51053.67,-12014.73,-18302.805,5801.67,-66118.545,0.9359542576496358,3.5927247327910923,0.21516322548366554,3.6412759864874418,-7.445956345377666,-13.36044229137056,-5.420640202869639,5.703710034947475,0.005187975,-0.82433871,0.60326994,13.93238,-0.36624,50.64794,69.0
1774823091.5597084,5.4836273193359375e-06,2026-03-29T22:24:51.559,2026-03-29T18:24:51.559,-32878.665,-45265.905,-84850.11,-51034.229999999996,-11996.189999999999,-18283.86,5805.8099999999995,-66101.535,3.3342411760330775,2.259741170550981,-4.95022245122335,5.848883907575986,-4.069289658954792,-10.617152954142073,-5.346919131858112,9.709004313868496,0.005187975,-0.82433871,0.60326994,13.93238,-0.36624,50.64794,69.0
1774823091.559716,7.62939453125e-06,2026-03-29T22:24:51.559,2026-03-29T18:24:51.559,-32873.94,-45251.055,-84829.14,-51011.729999999996,-11974.41,-18267.39,5810.94,-66092.58,4.181569037926527,-0.18075454435193555,-7.983225314089175,5.800536298122744,1.387656459910949,-2.9542200413706388,-2.892128763990814,9.097985576241163,0.005187975,-0.82433871,0.60326994,13.93238,-0.36624,50.64794,69.0
1774823091.5597217,5.7220458984375e-06,2026-03-29T22:24:51.559,2026-03-29T18:24:51.559,-32859.225,-45245.115,-84829.815,-51036.299999999996,-11992.725,-18290.34,5809.23,-66066.61499999999,3.2681223434590425,-2.334693730770638,-7.296207886231229,3.402491282716242,6.256698960297544,5.9231436210779815,0.5970229864109973,4.225125900182687,0.005187975,-0.82433871,0.60326994,13.93238,-0.36624,50.64794,69.0
1774823091.559728,6.198883056640625e-06,2026-03-29T22:24:51.559,2026-03-29T18:24:51.559,-32856.255,-45246.735,-84834.09,-51057.63,-12007.664999999999,-18298.665,5812.335,-66046.995,1.1264790732335304,-3.0374101436696144,-3.0528849389479693,-0.5099165322536615,8.109997846306099,11.80101897873639,3.417716061900829,-2.5352519130822366,0.005187975,-0.82433871,0.60326994,13.93238,-0.36624,50.64794,69.0
1774823091.5597332,5.245208740234375e-06,2026-03-29T22:24:51.559,2026-03-29T18:24:51.559,-32867.955,-45257.895,-84835.70999999999,-51046.92,-12007.125,-18288.989999999998,5810.76,-66046.68,-1.2617758524807619,-1.958287680742747,2.8556158048065954,-4.427056545256341,5.977689981514008,11.976818119689742,4.350583894837418,-7.952975354890675,0.005187975,-0.82433871,0.60326994,13.93238,-0.36624,50.64794,69.0
1774823091.5597396,6.4373016357421875e-06,2026-03-29T22:24:51.559,2026-03-29T18:24:51.559,-32863.365,-45272.475,-84854.06999999999,-51050.7,-12008.07,-18285.075,5807.88,-66010.995,-2.916481158427707,0.2527864937157388,7.671539644971615,-6.7192110913719345,0.8591277201210429,6.520874638337742,3.197105309320303,-9.499955021209717,0.005187975,-0.82433871,0.60326994,13.93238,-0.36624,50.64794,69.0
1774823091.5597448,5.245208740234375e-06,2026-03-29T22:24:51.559,2026-03-29T18:24:51.559,-32851.755,-45286.29,-84885.03,-51077.07,-12029.445,-18312.344999999998,5807.745,-65916.81,-3.2597579014254356,2.3371451685159563,9.06712260224712,-6.304726813532294,-4.743060576680448,-1.8178795977049707,0.7730737148872044,-6.544087423116083,0.005187975,-0.82433871,0.60326994,13.93238,-0.36624,50.64794,69.0
1774823091.561644,0.0018992424011230469,2026-03-29T22:24:51.561,2026-03-29T18:24:51.561,-32868.54,-45293.354999999996,-84887.595,-51070.814999999995,-12020.895,-18307.53,5806.665,-65858.895,-2.304426160484196,3.1110843294875092,6.262935892081777,-3.164706936958575,-8.050260469617704,-8.993471993566947,-1.596866518811134,-0.6088889338671554,0.005187975,-0.82433871,0.60326994,13.93238,-0.36624,50.64794,69.0
1774823091.5616648,2.0742416381835938e-05,2026-03-29T22:24:51.561,2026-03-29T18:24:51.561,-32892.03,-45292.049999999996,-84871.305,-51047.82,-11996.505,-18284.579999999998,5810.849999999999,-65822.84999999999,-0.5762832880309186,2.1014222687592126,0.43369835797597484,1.542233247401305,-7.393230282050195,-11.638658832606927,-2.7907862370271577,5.408419590604729,0.005187975,-0.82433871,0.60326994,13.93238,-0.36624,50.64794,69.0
1774823091.5685573,0.00689244270324707,2026-03-29T22:24:51.568,2026-03-29T18:24:51.568,-32901.57,-45282.42,-84860.28,-51046.83,-12005.414999999999,-18294.165,5805.719999999999,-65779.785,1.163750437206918,-0.19573964614757638,-5.799104621221091,5.872106513403851,-3.061884369191611,-8.6646680930453,-2.429479723391596,8.660084950286656,0.009826635,-0.824155605,0.601133715,16.38924,1.9227599999999998,50.60216,69.0
1774823091.5685687,1.1444091796875e-05,2026-03-29T22:24:51.568,2026-03-29T18:24:51.568,-32876.82,-45257.22,-84842.37,-51048.18,-12014.82,-18307.934999999998,5795.82,-65713.31999999999,2.2549790873865065,-2.564952275710599,-9.56004086101615,7.884936746513885,2.8159920642950698,-1.7162422023211314,-0.9811272813925621,7.7090643922534055,0.009826635,-0.824155605,0.601133715,16.38924,1.9227599999999998,50.60216,69.0
1774823091.572229,0.0036602020263671875,2026-03-29T22:24:51.572,2026-03-29T18:24:51.572,-32868.09,-45251.009999999995,-84829.36499999999,-51032.7,-11999.97,-18297.63,5795.37,-65667.19499999999,2.38206484385696,-3.7016112589570938,-9.048658389116373,6.519456440854715,7.320111901103288,5.711960731581936,0.5887792705635156,3.171592793430667,0.009826635,-0.824155605,0.601133715,16.38924,1.9227599999999998,50.60216,69.0
1774823091.5722508,2.193450927734375e-05,2026-03-29T22:24:51.572,2026-03-29T18:24:51.572,-32877.405,-45260.775,-84832.785,-51022.53,-11986.425,-18277.02,5811.885,-65626.47,1.642050210520403,-2.90061776590772,-4.389670479933581,2.1567586962922065,8.193551058400546,10.03211819823297,1.4001925441161802,-2.6496659571094834,0.009826635,-0.824155605,0.601133715,16.38924,1.9227599999999998,50.60216,69.0
1774823091.572273,2.2172927856445312e-05,2026-03-29T22:24:51.572,2026-03-29T18:24:51.572,-32873.985,-45261.72,-84838.455,-51029.325,-11990.52,-18272.745,5811.21,-65580.93,0.43504381600200626,-0.4506594629216469,2.391462689412729,-3.4276198055371103,4.981222786796739,9.310079295621648,1.1406190358109183,-6.933523444860673,0.009826635,-0.824155605,0.601133715,16.38924,1.9227599999999998,50.60216,69.0
1774823091.5722833,1.0251998901367188e-05,2026-03-29T22:24:51.572,2026-03-29T18:24:51.572,-32866.02,-45262.305,-84849.66,-51058.665,-12004.83,-18280.62,5807.429999999999,-65533.095,-0.7443527069896068,2.4731701681110385,8.262976478242564,-7.767361636078718,-0.7264114866451292,4.145658343771719,0.1864698659127706,-7.716757545704328,0.009826635,-0.824155605,0.601133715,16.38924,1.9227599999999998,50.60216,69.0
1774823091.5777493,0.005465984344482422,2026-03-29T22:24:51.577,2026-03-29T18:24:51.577,-32867.145,-45265.14,-84845.295,-51065.729999999996,-12018.285,-18298.755,5807.429999999999,-65494.755,-1.5089260135417044,4.375822800204562,10.549464686013701,-8.797627621394374,-6.077162374169111,-2.7209908961214246,-0.6843605867784117,-4.803387288082203,0.009826635,-0.824155605,0.601133715,16.38924,1.9227599999999998,50.60216,69.0
1774823091.5777855,3.62396240234375e-05,2026-03-29T22:24:51.577,2026-03-29T18:24:51.577,-32873.445,-45273.284999999996,-84850.92,-51050.205,-12019.68,-18318.465,5804.235,-65466.945,-1.6919580570127208,4.193993833580232,8.147529666108609,-5.851522233790704,-8.383597062246645,-7.843366845183501,-0.8049422585491934,0.21870680923438546,0.009826635,-0.824155605,0.601133715,16.38924,1.9227599999999998,50.60216,69.0
1774823091.5815532,0.003767728805541992,2026-03-29T22:24:51.581,2026-03-29T18:24:51.581,-32871.555,-45286.064999999995,-84872.565,-51042.015,-12017.835,-18324.719999999998,5804.73,-65429.1,-1.3466026507659814,1.860466890208048,2.0444961146478655,-0.07390832235995883,-6.478081380235445,-8.799618836370122,-0.049335217627873566,4.827909892196391,0.009826635,-0.824155605,0.601133715,16.38924,1.9227599999999998,50.60216,69.0
1774823091.581584,3.075599670410156e-05,2026-03-29T22:24:51.581,2026-03-29T18:24:51.581,-32874.705,-45302.67,-84903.56999999999,-51043.095,-12025.484999999999,-18329.985,5800.41,-65401.829999999994,-0.664033095759893,-1.6079879136764648,-5.097297844602176,5.996335329957694,-1.3108842525157307,-5.350203535869477,1.0757507691765256,6.8360263046542515,0.009826635,-0.824155605,0.601133715,16.38924,1.9227599999999998,50.60216,69.0
1774823091.5873337,0.005749702453613281,2026-03-29T22:24:51.587,2026-03-29T18:24:51.587,-32860.44,-45308.564999999995,-84936.645,-51043.77,-12013.02,-18316.844999999998,5792.13,-65361.284999999996,0.12793236850096898,-4.56064459561677,-10.110159747693004,9.540320188785708,4.5177502483863465,0.5368789791007172,1.7364656161431624,5.434896525170366,0.009704565,-0.81921177,0.596372985,17.136979999999998,-0.6867,49.564479999999996,69.0
1774823091.5873675,3.3855438232421875e-05,2026-03-29T22:24:51.587,2026-03-29T18:24:51.587,-32833.979999999996,-45306.45,-84947.895,-51064.695,-12015.449999999999,-18311.489999999998,5787.719999999999,-65302.38,0.833265315640181,-5.498904309912732,-10.72744968583083,8.782246271492472,8.063447295704425,5.768450956112991,1.300680305171323,1.5183550257762977,0.009704565,-0.81921177,0.596372985,17.136979999999998,-0.6867,49.564479999999996,69.0
1774823091.5893896,0.0020220279693603516,2026-03-29T22:24:51.589,2026-03-29T18:24:51.589,-32840.19,-45294.21,-84911.48999999999,-51059.52,-11993.895,-18279.989999999998,5791.139999999999,-65290.454999999994,1.3067883723492668,-3.8246898503845337,-6.60277009008855,3.894392770498429,7.5263999338637095,7.7345879949738086,-0.22087004898538573,-2.8467400208665103,0.009704565,-0.81921177,0.596372985,17.136979999999998,-0.6867,49.564479999999996,69.0
1774823091.589422,3.24249267578125e-05,2026-03-29T22:24:51.589,2026-03-29T18:24:51.589,-32892.525,-45272.564999999995,-84852.045,-51033.735,-11946.779999999999,-18228.42,5810.804999999999,-65343.645,1.4449909980235973,-0.18254987278826845,0.5127746429693968,-2.983185715178506,3.169370661580041,5.612481837978125,-2.09431407066843,-5.500493464073194,0.009704565,-0.81921177,0.596372985,17.136979999999998,-0.6867,49.564479999999996,69.0
1774823091.5933964,0.003974437713623047,2026-03-29T22:24:51.593,2026-03-29T18:24:51.593,-32878.35,-45255.645,-84846.06,-51078.15,-11999.835,-18286.02,5805.585,-65304.72,1.1851461275447235,3.7887677307833862,7.520039574185417,-8.671940759765357,-2.805093001056906,0.7130707870622701,-3.219442045586946,-5.260423698800564,0.009704565,-0.81921177,0.596372985,17.136979999999998,-0.6867,49.564479999999996,69.0
1774823091.5934112,1.4781951904296875e-05,2026-03-29T22:24:51.593,2026-03-29T18:24:51.593,-32858.1,-45246.78,-84814.875,-51066.18,-12022.515,-18311.219999999998,5805.2699999999995,-65256.704999999994,0.5341094294812264,6.19973199112288,11.324775981628592,-10.434113991105681,-7.3633104172136195,-4.276743507896252,-2.7491992888280183,-2.4508283030061038,0.009704565,-0.81921177,0.596372985,17.136979999999998,-0.6867,49.564479999999996,69.0
1774823091.5976813,0.004270076751708984,2026-03-29T22:24:51.597,2026-03-29T18:24:51.597,-32844.69,-45239.265,-84801.23999999999,-51046.65,-12020.58,-18302.715,5815.3949999999995,-65220.704999999994,-0.38608296476107984,5.80953047479638,10.20315164317382,-7.309001767864705,-8.17841991872813,-6.73487248099994,-0.632380014936439,1.346956376264524,0.009704565,-0.81921177,0.596372985,17.136979999999998,-0.6867,49.564479999999996,69.0
1774823091.5976965,1.52587890625e-05,2026-03-29T22:24:51.597,2026-03-29T18:24:51.597,-32837.49,-45239.354999999996,-84809.61,-51042.96,-12014.595,-18288.585,5820.12,-65197.215,-1.317613368304223,2.654063995154233,4.578882430528049,-0.6458432033640457,-4.818414572871077,-5.466493147853681,2.2424644237388986,4.16044133535969,0.009704565,-0.81921177,0.596372985,17.136979999999998,-0.6867,49.564479999999996,69.0
1774823091.6068957,0.009199142456054688,2026-03-29T22:24:51.606,2026-03-29T18:24:51.606,-32842.845,-45247.77,-84827.295,-51053.759999999995,-12007.935,-18282.825,5818.094999999999,-65187.36,-1.9140534940953424,-1.9112902484689582,-3.1360373095230343,6.464491377721177,1.0227340810859171,-1.2853699628364665,4.42351953757969,4.642379249295087,0.009704565,-0.81921177,0.596372985,17.136979999999998,-0.6867,49.564479999999996,69.0
1774823091.6069126,1.6927719116210938e-05,2026-03-29T22:24:51.606,2026-03-29T18:24:51.606,-32832.18,-45242.775,-84819.735,-51043.814999999995,-12007.98,-18297.09,5805.405,-65165.85,-1.8649188825882606,-5.798969534913105,-9.577619796642049,10.627581216055823,6.375159864783466,3.4693239673024485,4.6317986256737225,2.716705343894617,0.009704565,-0.81921177,0.596372985,17.136979999999998,-0.6867,49.564479999999996,69.0
1774823091.606928,1.5497207641601562e-05,2026-03-29T22:24:51.606,2026-03-29T18:24:51.606,-32821.065,-45233.729999999996,-84805.02,-51021.9,-12001.68,-18305.37,5801.76,-65142.405,-1.0556797459780527,-7.150851329094899,-11.898246368124294,9.78222845779085,8.498956258360261,6.206094151354765,2.482673974887028,-0.456158249142537,0.003601065,-0.810239625,0.59911956,19.807479999999998,-1.0224199999999999,48.89304,69.0
1774823091.606934,5.9604644775390625e-06,2026-03-29T22:24:51.606,2026-03-29T18:24:51.606,-32823.045,-45244.034999999996,-84815.45999999999,-51012.765,-11995.38,-18303.57,5805.54,-65124.045,0.31806095834793197,-5.229266479909151,-9.026895140971272,4.2392669241159195,6.283255002413319,5.463420261463378,-1.2041961260424636,-3.1448264188715145,0.003601065,-0.810239625,0.59911956,19.807479999999998,-1.0224199999999999,48.89304,69.0
1774823091.613178,0.00624394416809082,2026-03-29T22:24:51.613,2026-03-29T18:24:51.613,-32833.17,-45266.939999999995,-84843.54,-51030.36,-12007.619999999999,-18308.34,5809.1849999999995,-65109.015,1.7622929011137987,-0.8093802537861949,-2.1637766621441634,-3.4087049812004477,0.8249328522735346,1.6742009803021733,-4.711637805589234,-3.973093496028801,0.003601065,-0.810239625,0.59911956,19.807479999999998,-1.0224199999999999,48.89304,69.0
1774823091.613202,2.4080276489257812e-05,2026-03-29T22:24:51.613,2026-03-29T18:24:51.613,-32829.435,-45279.045,-84868.11,-51070.095,-12030.39,-18319.59,5809.86,-65083.005,2.6519397196840306,4.132477870859719,5.7193488676316715,-9.497610852998593,-5.11377499252345,-3.082111270691865,-6.23724411633424,-2.6179347613043342,0.003601065,-0.810239625,0.59911956,19.807479999999998,-1.0224199999999999,48.89304,69.0
1774823091.6132245,2.2411346435546875e-05,2026-03-29T22:24:51.613,2026-03-29T18:24:51.613,-32814.315,-45281.295,-84883.545,-51096.06,-12044.07,-18333.675,5799.87,-65044.259999999995,2.503546880920301,7.310880802102477,11.167226066102499,-11.05809745968907,-8.5005352759859,-6.199775071929304,-4.821726473540943,0.07240003194262033,0.003601065,-0.810239625,0.59911956,19.807479999999998,-1.0224199999999999,48.89304,69.0
1774823091.6132336,9.059906005859375e-06,2026-03-29T22:24:51.613,2026-03-29T18:24:51.613,-32808.24,-45262.979999999996,-84867.165,-51075.09,-12029.039999999999,-18322.245,5794.514999999999,-65025.63,1.2339339727079985,7.198617805927021,11.760164644826453,-7.281063589902977,-7.576652421240054,-5.943217799009528,-0.9144709465457286,2.578491643194157,0.003601065,-0.810239625,0.59911956,19.807479999999998,-1.0224199999999999,48.89304,69.0
1774823091.617484,0.004250526428222656,2026-03-29T22:24:51.617,2026-03-29T18:24:51.617,-32830.2,-45249.659999999996,-84839.67,-51035.715,-11994.48,-18289.844999999998,5810.58,-65049.03,-0.7315243016150347,3.767072898231601,7.195262776928493,0.04859363426679339,-2.764477524069398,-2.3819374950192214,3.7447387259167315,3.5437083392950943,0.003601065,-0.810239625,0.59911956,19.807479999999998,-1.0224199999999999,48.89304,69.0
1774823091.6175025,1.8358230590820312e-05,2026-03-29T22:24:51.617,2026-03-29T18:24:51.617,-32842.89,-45255.42,-84836.565,-51031.215,-11988.18,-18295.29,5818.86,-65057.31,-2.5834070119198755,-1.4620440487501378,-0.5561608047003134,7.387453750007209,3.527835064320853,2.6293129722178104,6.913127910709658,2.49292907220427,0.003601065,-0.810239625,0.59911956,19.807479999999998,-1.0224199999999999,48.89304,69.0
1774823091.6215563,0.004053831100463867,2026-03-29T22:24:51.621,2026-03-29T18:24:51.621,-32827.545,-45270.674999999996,-84864.78,-51064.83,-12022.515,-18322.875,5820.03,-65016.225,-3.46083162694087,-6.096956034443545,-8.098378213785525,11.15057128289105,8.112951451965111,6.417027863741446,6.939487248322598,0.06087650021258243,0.003601065,-0.810239625,0.59911956,19.807479999999998,-1.0224199999999999,48.89304,69.0
1774823091.621572,1.5735626220703125e-05,2026-03-29T22:24:51.621,2026-03-29T18:24:51.621,-32813.64,-45272.52,-84870.855,-51071.715,-12037.365,-18325.89,5815.304999999999,-64984.814999999995,-2.8564265329140683,-7.982752244737058,-12.104147701793625,9.475575985964085,8.636636148648105,6.898164413265343,3.625445172233049,-2.3774006438345547,0.003601065,-0.810239625,0.59911956,19.807479999999998,-1.0224199999999999,48.89304,69.0
1774823091.6264043,0.004832267761230469,2026-03-29T22:24:51.626,2026-03-29T18:24:51.626,-32810.49,-45268.695,-84862.215,-51054.884999999995,-12014.324999999999,-18285.93,5802.929999999999,-64971.405,-0.9015876827206557,-6.217941551405505,-10.793131319624177,3.1596156168894276,4.780294089501695,3.695173068147894,-1.5959967494112843,-3.4641105782115216,0.00097656,-0.79919229,0.612120015,19.288639999999997,-1.70912,44.7118,69.0
1774823091.6264365,3.218650817871094e-05,2026-03-29T22:24:51.626,2026-03-29T18:24:51.626,-32825.744999999995,-45269.009999999995,-84855.375,-51048.405,-12012.164999999999,-18290.34,5796.495,-64975.365,1.6249034752363918,-1.5949644854949399,-4.7344272750076355,-4.708753670823939,-1.5586226101427256,-1.6296184517876668,-6.28849856430244,-2.5943424832361153,0.00097656,-0.79919229,0.612120015,19.288639999999997,-1.70912,44.7118,69.0
1774823091.6297486,0.0033121109008789062,2026-03-29T22:24:51.629,2026-03-29T18:24:51.629,-32830.424999999996,-45259.515,-84846.19499999999,-51042.465,-12008.07,-18310.68,5776.065,-64978.47,3.6017820277691954,3.755056836885351,3.39426552419828,-10.257767173463627,-7.206349761271198,-6.351406698975213,-8.167909120583973,-0.23859946988603853,0.00097656,-0.79919229,0.612120015,19.288639999999997,-1.70912,44.7118,69.0
1774823091.629772,2.3365020751953125e-05,2026-03-29T22:24:51.629,2026-03-29T18:24:51.629,-32812.38,-45252.63,-84848.04,-51061.229999999996,-12023.55,-18340.605,5756.445,-64946.88,4.067709700511847,7.355454400411623,9.99324943475338,-10.74440512205888,-9.30443940656775,-7.978810606554694,-6.2290154434043385,2.3147920255761325,0.00097656,-0.79919229,0.612120015,19.288639999999997,-1.70912,44.7118,69.0
1774823091.640273,0.01050114631652832,2026-03-29T22:24:51.640,2026-03-29T18:24:51.640,-32807.159999999996,-45248.715,-84833.595,-51041.88,-12008.295,-18322.695,5776.065,-64925.595,2.694322972755568,7.5484853829373115,12.147131893340658,-5.922152620884743,-6.753418729329745,-5.552203897678827,-1.2814104973529958,3.655662501425427,0.00097656,-0.79919229,0.612120015,19.288639999999997,-1.70912,44.7118,69.0
1774823091.640297,2.384185791015625e-05,2026-03-29T22:24:51.640,2026-03-29T18:24:51.640,-32825.115,-45265.634999999995,-84842.145,-51030.27,-11984.445,-18272.79,5816.385,-64923.524999999994,-0.004774478096596139,4.2762439295782055,8.928995553706052,1.8229836992951858,-0.7799446918050086,-0.17355583563636215,4.390369910162578,3.0139359295045085,0.00097656,-0.79919229,0.612120015,19.288639999999997,-1.70912,44.7118,69.0
1774823091.6403403,4.3392181396484375e-05,2026-03-29T22:24:51.640,2026-03-29T18:24:51.640,-32830.244999999995,-45280.845,-84866.22,-51042.735,-11985.525,-18258.39,5828.13,-64909.799999999996,-2.8545164678570822,-0.8978117805766236,1.8112494528062673,8.647167398793496,5.662039869707853,5.513231856127291,8.098934632837823,0.6822368365825725,0.00097656,-0.79919229,0.612120015,19.288639999999997,-1.70912,44.7118,69.0
1774823091.6403487,8.344650268554688e-06,2026-03-29T22:24:51.640,2026-03-29T18:24:51.640,-32827.229999999996,-45280.53,-84871.98,-51047.955,-11993.265,-18264.105,5834.969999999999,-64894.95,-4.532054114510331,-5.539048354733343,-6.005643104047885,11.157652840483463,9.359878436291913,8.637509054286934,8.047431789820946,-2.125860156979067,0.00097656,-0.79919229,0.612120015,19.288639999999997,-1.70912,44.7118,69.0
1774823091.646028,0.00567936897277832,2026-03-29T22:24:51.646,2026-03-29T18:24:51.646,-32821.244999999995,-45285.075,-84885.84,-51046.02,-11999.34,-18278.415,5826.735,-64880.595,-4.188432810900315,-7.503038341804397,-11.042643751682283,8.106396912030378,8.446747382502958,7.551701455662977,4.212906401829497,-3.909436168354576,0.00097656,-0.79919229,0.612120015,19.288639999999997,-1.70912,44.7118,69.0
1774823091.646066,3.790855407714844e-05,2026-03-29T22:24:51.646,2026-03-29T18:24:51.646,-32819.354999999996,-45287.595,-84883.635,-51035.58,-11997.27,-18292.59,5813.955,-64866.195,-1.8830531980443415,-5.947870420308622,-11.109276487543681,1.0191814211604224,3.3392691263385657,2.682976374359947,-1.6200736602317263,-3.674357775943149,0.00097656,-0.79919229,0.612120015,19.288639999999997,-1.70912,44.7118,69.0
1774823091.6460884,2.2411346435546875e-05,2026-03-29T22:24:51.646,2026-03-29T18:24:51.646,-32820.165,-45284.22,-84863.655,-51029.64,-11993.67,-18301.274999999998,5802.795,-64857.24,1.3929265044194803,-1.710103009989271,-6.273811182056324,-6.5608307038758085,-3.4612046439320796,-3.647172685155051,-6.702378635983771,-1.4711670249942044,-0.00439452,-0.790586355,0.62316735,21.57764,-5.4936,41.64454,69.0
1774823091.6460989,1.049041748046875e-05,2026-03-29T22:24:51.646,2026-03-29T18:24:51.646,-32806.034999999996,-45263.52,-84842.595,-51040.935,-12001.994999999999,-18301.815,5798.835,-64835.369999999995,4.140948285016466,3.1313169927545297,1.202283139661324,-10.842464491305408,-8.604963446102605,-8.351762443778853,-8.635865010731914,1.608151417343692,-0.00439452,-0.790586355,0.62316735,21.57764,-5.4936,41.64454,69.0
1774823091.6569517,0.010852813720703125,2026-03-29T22:24:51.656,2026-03-29T18:24:51.656,-32796.045,-45233.28,-84819.42,-51052.455,-12011.4,-18296.594999999998,5800.455,-64809.81,5.046599604355829,6.281309396623582,7.925503328335997,-9.685173648098027,-9.551874506468414,-9.097041230901597,-6.522955604393872,3.979044100195595,-0.00439452,-0.790586355,0.62316735,21.57764,-5.4936,41.64454,69.0
1774823091.6569743,2.2649765014648438e-05,2026-03-29T22:24:51.656,2026-03-29T18:24:51.656,-32797.485,-45233.955,-84827.295,-51066.45,-12030.39,-18303.344999999998,5809.41,-64790.865,3.6166522356490405,6.336277202507173,10.928158221577128,-3.6740438874818397,-5.826590184464401,-5.458258474221107,-1.3911602773126472,4.379839089255475,-0.00439452,-0.790586355,0.62316735,21.57764,-5.4936,41.64454,69.0
1774823091.6569915,1.71661376953125e-05,2026-03-29T22:24:51.656,2026-03-29T18:24:51.656,-32799.33,-45248.85,-84850.47,-51075.0,-12028.32,-18303.39,5813.1449999999995,-64778.805,0.4495195257324291,3.430326395236242,8.999904619183587,4.171416736480315,0.7499028371456777,0.8590025895964536,4.311602841074818,2.534341820000221,-0.00439452,-0.790586355,0.62316735,21.57764,-5.4936,41.64454,69.0
1774823091.6570027,1.1205673217773438e-05,2026-03-29T22:24:51.657,2026-03-29T18:24:51.657,-32802.795,-45261.45,-84860.09999999999,-51066.54,-12018.869999999999,-18305.684999999998,5806.53,-64770.615,-3.009102692168509,-0.8872337365895704,3.1849802582068643,9.911671079018111,6.962352400828423,6.839884031228221,7.900458867353242,-0.6826316820743992,-0.00439452,-0.790586355,0.62316735,21.57764,-5.4936,41.64454,69.0
1774823091.6570144,1.1682510375976562e-05,2026-03-29T22:24:51.657,2026-03-29T18:24:51.657,-32818.005,-45274.005,-84864.015,-51045.57,-12002.85,-18297.09,5802.929999999999,-64778.939999999995,-5.128868197214638,-4.464363799069429,-3.7651113780189904,10.665528018077028,9.784936494765516,9.618587441061427,7.736307484692258,-3.6685588049764277,-0.00439452,-0.790586355,0.62316735,21.57764,-5.4936,41.64454,69.0
1774823091.6570206,6.198883056640625e-06,2026-03-29T22:24:51.657,2026-03-29T18:24:51.657,-32842.71,-45276.165,-84857.355,-51021.405,-11975.039999999999,-18273.69,5809.32,-64808.505,-4.870689093310827,-5.627861601096347,-8.703480800018749,6.057921540073052,7.861336446391442,7.8600941225522085,3.986415814585058,-4.896422844920703,-0.00439452,-0.790586355,0.62316735,21.57764,-5.4936,41.64454,69.0
1774823091.6616757,0.004655122756958008,2026-03-29T22:24:51.661,2026-03-29T18:24:51.661,-32831.685,-45270.27,-84865.68,-51038.055,-11991.24,-18290.969999999998,5808.195,-64784.61,-2.3034661910905054,-3.9870098843639314,-9.53456861316407,-1.5919337426599058,2.1543724434759333,2.3957845827260753,-1.4955125524250648,-3.6932434460198738,-0.00439452,-0.790586355,0.62316735,21.57764,-5.4936,41.64454,69.0
1774823091.6616976,2.193450927734375e-05,2026-03-29T22:24:51.661,2026-03-29T18:24:51.661,-32815.53,-45265.905,-84880.305,-51080.715,-12033.359999999999,-18334.44,5797.3949999999995,-64755.45,1.3980830370413442,-0.5641668420638041,-6.120333563236036,-8.43734934078703,-4.544947685769638,-4.186445601594581,-6.093801482483221,-0.5983301168592381,-0.00439452,-0.790586355,0.62316735,21.57764,-5.4936,41.64454,69.0
1774823091.6653771,0.003679513931274414,2026-03-29T22:24:51.665,2026-03-29T18:24:51.665,-32791.005,-45258.705,-84886.92,-51128.28,-12071.654999999999,-18361.125,5797.26,-64712.204999999994,4.489914311087867,2.7927855995658266,-0.24498899984040692,-11.038760447140762,-8.994874761097657,-8.78765877236469,-7.694746053205673,2.884980340390012,-0.010803195,-0.7869852900000001,0.63378744,30.35214,-5.02054,39.53866,69.0
1774823091.6653953,1.811981201171875e-05,2026-03-29T22:24:51.665,2026-03-29T18:24:51.665,-32791.725,-45257.49,-84865.77,-51111.674999999996,-12064.904999999999,-18346.545,5796.224999999999,-64699.695,5.484659981130071,4.393853462513554,5.306074838241703,-8.092194389379456,-9.081582085338864,-9.270657351916139,-5.671789289149439,5.026106015949434,-0.010803195,-0.7869852900000001,0.63378744,30.35214,-5.02054,39.53866,69.0
1774823091.672346,0.006950855255126953,2026-03-29T22:24:51.672,2026-03-29T18:24:51.672,-32809.905,-45251.64,-84828.78,-51028.064999999995,-12009.465,-18298.079999999998,5807.745,-64714.229999999996,3.8738471472021763,3.568127235981313,8.081964631408544,-1.0820751226935175,-4.8259561663156205,-5.454489871314311,-1.1263835995765057,4.728365629360625,-0.010803195,-0.7869852900000001,0.63378744,30.35214,-5.02054,39.53866,69.0
1774823091.6723628,1.6689300537109375e-05,2026-03-29T22:24:51.672,2026-03-29T18:24:51.672,-32831.325,-45244.259999999995,-84808.62,-50979.869999999995,-11951.234999999999,-18246.465,5826.285,-64749.329999999994,0.392846242217824,0.9598647190948658,7.069199818905456,6.468535706822558,1.6618789511368808,0.8318473967989972,3.7053468307251634,2.0856093458629696,-0.010803195,-0.7869852900000001,0.63378744,30.35214,-5.02054,39.53866,69.0
1774823091.6723804,1.7642974853515625e-05,2026-03-29T22:24:51.672,2026-03-29T18:24:51.672,-32814.0,-45249.435,-84833.64,-51012.0,-11981.34,-18280.215,5819.355,-64718.1,-3.3109149817769135,-1.8789084495138557,3.0552396806944997,10.770603029295435,7.238524064472543,6.641484671982614,6.562483707589553,-1.6455687425845933,-0.010803195,-0.7869852900000001,0.63378744,30.35214,-5.02054,39.53866,69.0
1774823091.6723895,9.059906005859375e-06,2026-03-29T22:24:51.672,2026-03-29T18:24:51.672,-32810.4,-45263.025,-84854.025,-51046.74,-12016.08,-18311.535,5809.1849999999995,-64692.314999999995,-5.458196174072597,-3.3647780786208785,-1.8755181863140182,9.671259797387869,9.261038311718776,9.30525828035616,6.230010110199965,-4.649524628233325,-0.010803195,-0.7869852900000001,0.63378744,30.35214,-5.02054,39.53866,69.0
1774823091.6777613,0.005371809005737305,2026-03-29T22:24:51.677,2026-03-29T18:24:51.677,-32817.555,-45265.814999999995,-84848.48999999999,-51053.13,-12013.83,-18307.755,5806.9349999999995,-64686.104999999996,-4.996386480057958,-2.748967232929514,-5.4182561558384625,3.7295142624808277,6.845493256840679,7.663862740330227,3.0571177891880477,-5.437869767125193,-0.010803195,-0.7869852900000001,0.63378744,30.35214,-5.02054,39.53866,69.0
1774823091.67778,1.8596649169921875e-05,2026-03-29T22:24:51.677,2026-03-29T18:24:51.677,-32817.555,-45257.895,-84841.875,-51069.104999999996,-12014.865,-18300.329999999998,5806.9349999999995,-64689.39,-2.1201426779911214,-0.5056533836584596,-6.142756465033437,-4.071671752430794,1.2488468186763264,2.566276596223088,-1.298640184394929,-3.584490055283705,-0.010803195,-0.7869852900000001,0.63378744,30.35214,-5.02054,39.53866,69.0
1774823091.68199,0.004209995269775391,2026-03-29T22:24:51.681,2026-03-29T18:24:51.681,-32819.805,-45260.189999999995,-84830.22,-51065.325,-12013.74,-18294.075,5808.915,-64682.145,1.8050215143989354,1.9629203292087374,-4.078419013653636,-9.827086419224699,-4.7876630669754645,-3.5750953759856268,-4.736525425842423,0.05223109233117438,-0.010803195,-0.7869852900000001,0.63378744,30.35214,-5.02054,39.53866,69.0
1774823091.682016,2.5987625122070312e-05,2026-03-29T22:24:51.682,2026-03-29T18:24:51.682,-32828.67,-45263.655,-84818.52,-51038.595,-11997.855,-18281.43,5814.855,-64675.215,4.888955229042567,3.1379767654489497,-0.5451987628701735,-10.666550548722691,-8.389287607139165,-7.936575139732474,-5.735245481809911,3.7321279407678474,-0.010803195,-0.7869852900000001,0.63378744,30.35214,-5.02054,39.53866,69.0
1774823091.687677,0.0056610107421875,2026-03-29T22:24:51.687,2026-03-29T18:24:51.687,-32825.25,-45263.384999999995,-84837.87,-51036.03,-12001.859999999999,-18296.37,5803.29,-64668.555,5.627368728625084,2.2628126889174363,2.6244891652250666,-6.185262671394141,-7.923528860069879,-8.587705579020225,-4.030466856642513,5.668902904066323,-0.013549770000000001,-0.77062791,0.6445296,41.919219999999996,-7.1264199999999995,29.238159999999997,69.0
1774823091.6876965,1.9550323486328125e-05,2026-03-29T22:24:51.687,2026-03-29T18:24:51.687,-32818.59,-45262.665,-84841.875,-51022.845,-11992.725,-18300.239999999998,5800.1849999999995,-64660.454999999994,3.637383510616731,-0.20172078335287008,4.034790746194617,1.365450893209313,-3.740004946985254,-5.34358375162643,-0.6432446255185077,4.895815840662088,-0.013549770000000001,-0.77062791,0.6445296,41.919219999999996,-7.1264199999999995,29.238159999999997,69.0
1774823091.6897614,0.002064943313598633,2026-03-29T22:24:51.689,2026-03-29T18:24:51.689,-32802.479999999996,-45258.165,-84838.455,-51025.185,-12001.545,-18317.295,5795.28,-64631.744999999995,-0.1424078821678076,-2.8083924856813014,3.3549387066151417,8.214623219889194,2.0598010476124933,0.2085202072381235,2.708491569335721,1.7427026813757016,-0.013549770000000001,-0.77062791,0.6445296,41.919219999999996,-7.1264199999999995,29.238159999999997,69.0
1774823091.689782,2.0503997802734375e-05,2026-03-29T22:24:51.689,2026-03-29T18:24:51.689,-32792.265,-45253.665,-84829.68,-51030.134999999995,-12016.8,-18333.63,5785.0199999999995,-64602.314999999995,-3.892072848548209,-3.929604902752077,1.337194958751371,10.958962329239718,6.68052658870659,5.4893780367695815,4.484212978761486,-2.3081654795039737,-0.013549770000000001,-0.77062791,0.6445296,41.919219999999996,-7.1264199999999995,29.238159999999997,69.0
1774823091.69407,0.004288196563720703,2026-03-29T22:24:51.694,2026-03-29T18:24:51.694,-32810.354999999996,-45249.884999999995,-84824.09999999999,-51016.14,-11997.9,-18325.125,5786.1449999999995,-64619.909999999996,-5.784843400957073,-2.7035282143916426,-0.7271208772791472,8.254277890550584,7.984676148617508,8.1293033342819,4.034049438740114,-5.321863891881177,-0.013549770000000001,-0.77062791,0.6445296,41.919219999999996,-7.1264199999999995,29.238159999999997,69.0
1774823091.6940932,2.3126602172851562e-05,2026-03-29T22:24:51.694,2026-03-29T18:24:51.694,-32817.104999999996,-45240.119999999995,-84813.3,-50999.04,-11969.369999999999,-18293.579999999998,5802.075,-64634.579999999994,-4.875892297867034,0.40760299825627433,-1.772715554058099,1.4700782384521782,5.4828205976299484,7.0303375199968325,1.817968739960973,-5.834097724167626,-0.013549770000000001,-0.77062791,0.6445296,41.919219999999996,-7.1264199999999995,29.238159999999997,69.0
1774823091.6984591,0.0043659210205078125,2026-03-29T22:24:51.698,2026-03-29T18:24:51.698,-32795.415,-45238.14,-84832.92,-51040.935,-11989.755,-18283.454999999998,5818.05,-64598.985,-1.5730355296979999,3.7810151967647045,-1.5124622607757765,-6.009486964263549,0.5039005144620398,2.81513924643669,-0.9314771948130423,-3.5578462749597115,-0.013549770000000001,-0.77062791,0.6445296,41.919219999999996,-7.1264199999999995,29.238159999999997,69.0
1774823091.6984944,3.528594970703125e-05,2026-03-29T22:24:51.698,2026-03-29T18:24:51.698,-32785.155,-45243.54,-84845.205,-51072.03,-12017.835,-18295.785,5810.085,-64569.915,2.5447660703485244,5.467680063479538,-0.4890533333098946,-10.478733926344978,-4.504251525085699,-2.5150962495780864,-2.88455432154859,0.4651915711040234,-0.013549770000000001,-0.77062791,0.6445296,41.919219999999996,-7.1264199999999995,29.238159999999997,69.0
1774823091.7032943,0.004799842834472656,2026-03-29T22:24:51.703,2026-03-29T18:24:51.703,-32772.24,-45235.665,-84823.785,-51059.52,-12027.195,-18309.915,5808.825,-64543.545,5.480722361000095,4.272654013513884,0.3643841796075638,-9.74794842951097,-7.177922004931966,-6.528811671753742,-3.2614201338692252,4.34442355304154,-0.013549770000000001,-0.77062791,0.6445296,41.919219999999996,-7.1264199999999995,29.238159999999997,69.0
1774823091.7033308,3.647804260253906e-05,2026-03-29T22:24:51.703,2026-03-29T18:24:51.703,-32780.565,-45238.14,-84830.58,-51046.29,-12009.555,-18316.71,5809.86,-64570.814999999995,5.786013110455145,0.4978949120350004,0.36619963591532434,-4.213349918568961,-6.352974921818308,-7.4700250666585335,-2.1337205197350317,6.228581651217389,-0.013549770000000001,-0.77062791,0.6445296,41.919219999999996,-7.1264199999999995,29.238159999999997,69.0
1774823091.7062151,0.002884387969970703,2026-03-29T22:24:51.706,2026-03-29T18:24:51.706,-32789.07,-45271.17,-84859.785,-51045.345,-12003.93,-18311.04,5816.295,-64572.479999999996,3.27141382068738,-4.084910419746709,-0.46428549731121654,3.361669366885334,-2.5672263477809802,-5.021742979122393,-0.2695268798631441,5.1850678104283485,-0.01782222,-0.742979055,0.647154105,52.15868,-15.382079999999998,17.762639999999998,69.0
1774823091.7062373,2.2172927856445312e-05,2026-03-29T22:24:51.706,2026-03-29T18:24:51.706,-32840.549999999996,-45319.95,-84870.765,-51037.515,-11992.68,-18282.78,5830.155,-64575.27,-0.8837278084590205,-7.070488949625811,-1.4218555218232025,9.231490054423118,2.2634245292781783,-0.3990137992693856,1.345805858645495,1.6547650051964624,-0.01782222,-0.742979055,0.647154105,52.15868,-15.382079999999998,17.762639999999998,69.0
1774823091.7101824,0.003945112228393555,2026-03-29T22:24:51.710,2026-03-29T18:24:51.710,-32842.665,-45307.034999999996,-84879.22499999999,-51069.24,-12018.42,-18287.864999999998,5820.4349999999995,-64571.895,-4.685152890226741,-6.668453089201197,-1.5871175438186587,10.522515556183803,5.808024155792198,4.245865634666719,2.0284352286732275,-2.7363513906268904,-0.01782222,-0.742979055,0.647154105,52.15868,-15.382079999999998,17.762639999999998,69.0
1774823091.710202,1.9550323486328125e-05,2026-03-29T22:24:51.710,2026-03-29T18:24:51.710,-32818.14,-45270.99,-84856.95,-51055.515,-12009.51,-18292.32,5800.455,-64562.67,-6.279500139959651,-2.720912505396805,-0.4698556285678815,6.637664946916515,6.440986974146404,6.817820963716118,1.6818434087610028,-5.926894701046643,-0.01782222,-0.742979055,0.647154105,52.15868,-15.382079999999998,17.762639999999998,69.0
