unix_time_s,dt_s,UTC,LOCAL,EMG1_Raw,EMG2_Raw,EMG3_Raw,EMG4_Raw,EMG5_Raw,EMG6_Raw,EMG7_Raw,EMG8_Raw,EMG1_Filtered,EMG2_Filtered,EMG3_Filtered,EMG4_Filtered,EMG5_Filtered,EMG6_Filtered,EMG7_Filtered,EMG8_Filtered,Accel1_Raw,Accel2_Raw,Accel3_Raw,Gyro1_Raw,Gyro2_Raw,Gyro3_Raw,Battery
1774822672.98532,,2026-03-29T22:17:52.985,2026-03-29T18:17:52.985,-33666.075,-46461.78,-85057.2,-50277.33,-12810.6,-18072.719999999998,6359.715,-9131.445,0.1612759059473799,-0.15934284377924599,-0.17411330127301108,-0.2729730814189667,-0.3833539468353287,-0.5484940392118596,0.6062172654928775,-0.022290267135697397,0.299010465,0.02246088,0.95727294,28.52094,-5.997179999999999,4.89846,70.0
1774822672.9853425,2.2411346435546875e-05,2026-03-29T22:17:52.985,2026-03-29T18:17:52.985,-33687.18,-46457.505,-85044.15,-50269.409999999996,-12807.63,-18071.28,6357.0599999999995,-9069.119999999999,1.2208041009468076,-0.21361984442106166,-3.311201587055504,-7.854197660353023,-14.042824036814535,-21.6660540067321,-3.7127033149257866,-0.43321183236477884,0.299010465,0.02246088,0.95727294,28.52094,-5.997179999999999,4.89846,70.0
1774822672.9889696,0.0036270618438720703,2026-03-29T22:17:52.988,2026-03-29T18:17:52.988,-33659.955,-46443.96,-85051.44,-50292.72,-12826.125,-18083.07,6367.635,-9008.01,2.0001922539761146,-0.3241235417559878,-5.360234188922553,-12.31745554713975,-21.79479172402875,-33.322068257601764,-6.309432978547294,-0.6653254745378596,0.299010465,0.02246088,0.95727294,28.52094,-5.997179999999999,4.89846,70.0
1774822672.9889917,2.2172927856445312e-05,2026-03-29T22:17:52.988,2026-03-29T18:17:52.988,-33659.055,-46460.88,-85074.345,-50317.604999999996,-12851.144999999999,-18114.075,6349.5,-8953.065,2.0545984172381297,-0.456358165533473,-5.317556876281631,-11.495963421230297,-19.95567166536641,-30.047598197642397,-5.9205790215808625,-0.590594382030936,0.299010465,0.02246088,0.95727294,28.52094,-5.997179999999999,4.89846,70.0
1774822672.9930358,0.004044055938720703,2026-03-29T22:17:52.993,2026-03-29T18:17:52.993,-33676.244999999995,-46457.865,-85044.015,-50272.02,-12808.35,-18088.38,6342.57,-8896.095,1.1730730630366324,-0.48550186812599183,-2.959628171676349,-5.480178600730653,-9.077176113776286,-13.109646490005627,-2.701269032375062,-0.22222077332688012,0.301696005,0.036193755,0.9582495,16.95386,-2.1669199999999997,8.75924,70.0
1774822672.9930506,1.4781951904296875e-05,2026-03-29T22:17:52.993,2026-03-29T18:17:52.993,-33678.945,-46453.455,-85049.73,-50276.924999999996,-12809.925,-18084.51,6328.98,-8841.869999999999,-0.4456253675553672,-0.2823014220541044,0.9432580050682189,3.296369346611409,6.181673027371447,9.975477612585237,1.8382371077310051,0.27685119008409514,0.301696005,0.036193755,0.9582495,16.95386,-2.1669199999999997,8.75924,70.0
1774822672.9970264,0.003975868225097656,2026-03-29T22:17:52.997,2026-03-29T18:17:52.997,-33667.92,-46445.04,-85043.79,-50262.119999999995,-12772.98,-18015.93,6353.235,-8787.555,-2.1885715314571255,0.17363329815307652,4.831951087927702,11.0260045289468,19.054606600905075,28.803901639923794,5.54612616853268,0.6629482499911251,0.301696005,0.036193755,0.9582495,16.95386,-2.1669199999999997,8.75924,70.0
1774822672.9970448,1.8358230590820312e-05,2026-03-29T22:17:52.997,2026-03-29T18:17:52.997,-33657.03,-46460.88,-85094.73,-50340.284999999996,-12852.225,-18080.594999999998,6343.38,-8732.835,-3.2423611615332453,0.7309539472303965,6.960132506712643,14.174031276761523,23.680022638147623,34.80518456071269,6.652952313234797,0.7308758358402223,0.301696005,0.036193755,0.9582495,16.95386,-2.1669199999999997,8.75924,70.0
1774822673.0016105,0.004565715789794922,2026-03-29T22:17:53.001,2026-03-29T18:17:53.001,-33670.575,-46462.905,-85082.265,-50337.36,-12852.585,-18089.235,6334.0199999999995,-8680.545,-2.9617554029527886,1.1086902619892176,6.173382582584342,11.094813673474631,17.779119125157223,25.16535948124798,4.616495008210912,0.42516163450813205,0.301696005,0.036193755,0.9582495,16.95386,-2.1669199999999997,8.75924,70.0
1774822673.001635,2.4557113647460938e-05,2026-03-29T22:17:53.001,2026-03-29T18:17:53.001,-33667.83,-46441.71,-85035.285,-50276.115,-12791.205,-18031.23,6359.94,-8627.4,-1.2311916130406548,1.0370219304308024,2.5208000651678217,2.878140842466508,3.7724248636385314,4.146102455123581,0.38369329429995325,-0.11748384504130314,0.301696005,0.036193755,0.9582495,16.95386,-2.1669199999999997,8.75924,70.0
1774822673.0049715,0.0033364295959472656,2026-03-29T22:17:53.004,2026-03-29T18:17:53.004,-33655.68,-46442.61,-85053.105,-50302.755,-12833.55,-18098.145,6329.295,-8578.17,1.3730212517320823,0.426128224709563,-2.6200543472874176,-7.00479665629571,-12.210481466665936,-18.818549808870493,-4.05528308962507,-0.6246801316214018,0.301696005,0.036193755,0.9582495,16.95386,-2.1669199999999997,8.75924,70.0
1774822673.0049844,1.2874603271484375e-05,2026-03-29T22:17:53.004,2026-03-29T18:17:53.004,-33650.909999999996,-46439.1,-85046.58,-50290.965,-12823.289999999999,-18095.67,6341.94,-8532.449999999999,3.743459484626047,-0.5361341441244175,-7.033491980980249,-14.16087928890818,-23.024926133995997,-33.38892114510501,-6.6079791364810045,-0.8231910144265423,0.301696005,0.036193755,0.9582495,16.95386,-2.1669199999999997,8.75924,70.0
1774822673.008864,0.003879547119140625,2026-03-29T22:17:53.008,2026-03-29T18:17:53.008,-33623.955,-46415.655,-85030.73999999999,-50280.345,-12823.875,-18101.88,6376.1849999999995,-8484.705,4.70126025141725,-1.4292449994403038,-8.615112643528901,-15.231060392727969,-23.720029867219395,-33.0051431999071,-6.068013471680674,-0.5862920664998434,0.301696005,0.036193755,0.9582495,16.95386,-2.1669199999999997,8.75924,70.0
1774822673.0088828,1.8835067749023438e-05,2026-03-29T22:17:53.008,2026-03-29T18:17:53.008,-33620.58,-46416.375,-85032.72,-50283.63,-12818.789999999999,-18076.95,6412.094999999999,-8432.865,3.5699971993854067,-1.7857252560092196,-6.376885868298447,-9.47099255202028,-13.814605569299971,-17.854216260203927,-2.682828573632671,-0.014412755385542325,0.301696005,0.036193755,0.9582495,16.95386,-2.1669199999999997,8.75924,70.0
1774822673.0131187,0.004235982894897461,2026-03-29T22:17:53.013,2026-03-29T18:17:53.013,-33621.479999999996,-46440.72,-85077.72,-50325.21,-12839.22,-18063.989999999998,6406.335,-8382.285,0.589141435134752,-1.3343081816311744,-1.0265722710665341,0.7897804190921031,2.410767205377186,5.229642317303325,1.9653300620664893,0.6013009657054761,0.298522185,0.048766965,0.95812743,0.27468,3.6166199999999997,5.27996,70.0
1774822673.0131488,3.0040740966796875e-05,2026-03-29T22:17:53.013,2026-03-29T18:17:53.013,-33622.155,-46436.22,-85058.64,-50296.994999999995,-12796.605,-18007.155,6400.349999999999,-8331.705,-3.0679034528750755,-0.17412899227789388,5.206450795320598,11.076910958806945,17.77180397445738,25.875268896847302,5.70520982814167,0.9231779335464724,0.298522185,0.048766965,0.95812743,0.27468,3.6166199999999997,5.27996,70.0
1774822673.0171385,0.003989696502685547,2026-03-29T22:17:53.017,2026-03-29T18:17:53.017,-33643.665,-46432.979999999996,-85009.995,-50231.564999999995,-12731.625,-17957.52,6427.17,-8281.8,-5.7386511048962205,1.2237717615899109,9.491820045270805,16.72633802303228,25.379098576987182,34.86728947471399,6.7944618254065885,0.7493075457042329,0.298522185,0.048766965,0.95812743,0.27468,3.6166199999999997,5.27996,70.0
1774822673.0171647,2.6226043701171875e-05,2026-03-29T22:17:53.017,2026-03-29T18:17:53.017,-33619.59,-46416.015,-85018.095,-50269.365,-12796.019999999999,-18045.27,6396.974999999999,-8235.63,-6.020516274951858,2.2092533557534595,9.690329831910951,15.01005146516131,21.74550825296832,28.282689931461448,4.730564756817454,0.136751594130901,0.298522185,0.048766965,0.95812743,0.27468,3.6166199999999997,5.27996,70.0
1774822673.021372,0.0042073726654052734,2026-03-29T22:17:53.021,2026-03-29T18:17:53.021,-33634.575,-46432.665,-85039.73999999999,-50289.705,-12815.144999999999,-18062.01,6376.545,-8189.594999999999,-3.4896452169607723,2.2602288678429954,5.424282398939635,6.458377801269347,8.392660784648285,9.203784567835928,0.47768570820983003,-0.6077359964282607,0.298522185,0.048766965,0.95812743,0.27468,3.6166199999999997,5.27996,70.0
1774822673.021406,3.3855438232421875e-05,2026-03-29T22:17:53.021,2026-03-29T18:17:53.021,-33646.545,-46452.869999999995,-85082.22,-50338.665,-12865.275,-18111.149999999998,6358.905,-8149.59,0.9725604103577137,1.2564257174193838,-1.6115421205858094,-5.265299463565478,-8.787787479563285,-13.740743914385746,-3.990401838286016,-1.076258388910004,0.298522185,0.048766965,0.95812743,0.27468,3.6166199999999997,5.27996,70.0
1774822673.0251114,0.0037055015563964844,2026-03-29T22:17:53.025,2026-03-29T18:17:53.025,-33646.409999999996,-46457.055,-85088.79,-50343.345,-12869.505,-18118.125,6354.54,-8111.025,5.455034085644741,-0.4233292003153289,-8.308855223740176,-14.935851382412302,-22.150085306077894,-30.309026949237197,-6.611433955831408,-0.9778613482454924,0.298522185,0.048766965,0.95812743,0.27468,3.6166199999999997,5.27996,70.0
1774822673.0251317,2.0265579223632812e-05,2026-03-29T22:17:53.025,2026-03-29T18:17:53.025,-33631.965,-46447.604999999996,-85078.44,-50330.025,-12852.63,-18096.614999999998,6362.505,-8069.49,7.82832219594852,-2.0438516981293864,-11.527444180989178,-18.109964687119213,-25.71906502964392,-33.24648910608499,-6.187459525731826,-0.3115874941746521,0.298522185,0.048766965,0.95812743,0.27468,3.6166199999999997,5.27996,70.0
1774822673.0313299,0.00619816780090332,2026-03-29T22:17:53.031,2026-03-29T18:17:53.031,-33638.715,-46452.645,-85076.145,-50322.825,-12842.505,-18083.204999999998,6369.344999999999,-8026.875,6.7510549516494045,-2.8424255794857833,-9.581417828588226,-13.184158150511827,-17.879542239942626,-21.47403529142633,-2.9286932529449397,0.6055151950456814,0.298522185,0.048766965,0.95812743,0.27468,3.6166199999999997,5.27996,70.0
1774822673.0313532,2.3365020751953125e-05,2026-03-29T22:17:53.031,2026-03-29T18:17:53.031,-33643.619999999995,-46446.255,-85060.53,-50306.67,-12829.41,-18074.34,6372.675,-7985.295,2.3977977955124286,-2.3928770329325206,-3.1196964850493067,-2.205884059373969,-2.1115094027570436,-0.4577390280333915,1.6565573580617121,1.2842500703659143,0.298522185,0.048766965,0.95812743,0.27468,3.6166199999999997,5.27996,70.0
1774822673.0334876,0.0021343231201171875,2026-03-29T22:17:53.033,2026-03-29T18:17:53.033,-33648.119999999995,-46449.36,-85068.405,-50319.18,-12851.279999999999,-18106.559999999998,6351.075,-7942.679999999999,-3.476489736721026,-0.8282993383979831,5.0590843624992505,9.974135292314195,14.566190801020165,20.35037329982215,5.465908515489073,1.3183267886179082,0.296446995,0.03308097,0.957211905,-8.97288,10.59044,13.505099999999999,70.0
1774822673.03351,2.2411346435546875e-05,2026-03-29T22:17:53.033,2026-03-29T18:17:53.033,-33628.68,-46429.47,-85041.09,-50286.06,-12811.994999999999,-18063.045,6358.005,-7897.41,-8.23124619539072,1.192793561136776,11.225929751781909,17.860411306492882,24.743084503426655,31.792672445667677,6.76944677692267,0.6178329251781315,0.296446995,0.03308097,0.957211905,-8.97288,10.59044,13.505099999999999,70.0
1774822673.0399673,0.006457328796386719,2026-03-29T22:17:53.039,2026-03-29T18:17:53.039,-33609.42,-46410.615,-85013.81999999999,-50255.369999999995,-12771.494999999999,-18012.6,6382.035,-7851.96,-9.526486598577304,2.771320314407761,12.440750800035262,17.81493516855578,23.93379206719699,29.055736702577878,4.993306956688638,-0.509572403234109,0.296446995,0.03308097,0.957211905,-8.97288,10.59044,13.505099999999999,70.0
1774822673.039994,2.6702880859375e-05,2026-03-29T22:17:53.039,2026-03-29T18:17:53.039,-33611.805,-46424.744999999995,-85046.715,-50295.78,-12815.55,-18060.39,6369.12,-7804.215,-6.467897606501272,3.176133911679002,7.969624607701203,9.75302262209801,12.568569463287634,13.689974289522935,0.9665247180419431,-1.4884797491901174,0.296446995,0.03308097,0.957211905,-8.97288,10.59044,13.505099999999999,70.0
1774822673.0400183,2.4318695068359375e-05,2026-03-29T22:17:53.040,2026-03-29T18:17:53.040,-33602.13,-46425.42,-85059.27,-50317.02,-12845.97,-18098.55,6366.825,-7759.304999999999,-0.15259547927081754,2.18609879059555,-0.29093981142639935,-2.7666566566306554,-4.232603563963377,-7.244996512481348,-3.47183520767658,-1.7648334880850216,0.296446995,0.03308097,0.957211905,-8.97288,10.59044,13.505099999999999,70.0
1774822673.0400255,7.152557373046875e-06,2026-03-29T22:17:53.040,2026-03-29T18:17:53.040,-33583.14,-46428.345,-85061.25,-50313.915,-12841.199999999999,-18088.92,6372.495,-7715.07,6.6969699395336635,0.20366203066817057,-8.622044873616302,-14.125267728497668,-18.98558916426139,-24.446956535089456,-6.316375540401475,-1.1108618554040173,0.296446995,0.03308097,0.957211905,-8.97288,10.59044,13.505099999999999,70.0
1774822673.045081,0.005055427551269531,2026-03-29T22:17:53.045,2026-03-29T18:17:53.045,-33559.47,-46423.619999999995,-85065.61499999999,-50323.005,-12857.58,-18108.765,6357.554999999999,-7667.099999999999,10.90542017155853,-1.9162386583724687,-13.177309063604024,-19.190862194110487,-25.202822975567116,-30.52777802140021,-6.30114851775629,0.21890788518645418,0.296446995,0.03308097,0.957211905,-8.97288,10.59044,13.505099999999999,70.0
1774822673.0451083,2.7418136596679688e-05,2026-03-29T22:17:53.045,2026-03-29T18:17:53.045,-33568.47,-46430.235,-85072.14,-50323.049999999996,-12853.755,-18105.614999999998,6359.535,-7616.115,10.319176626005707,-3.2450827200152057,-11.782392969942466,-15.663008934826664,-20.267783537913235,-23.19235433744142,-3.4587906259830983,1.5786979740202662,0.296446995,0.03308097,0.957211905,-8.97288,10.59044,13.505099999999999,70.0
1774822673.0506911,0.0055828094482421875,2026-03-29T22:17:53.050,2026-03-29T18:17:53.050,-33612.525,-46426.634999999995,-85045.635,-50289.795,-12814.605,-18068.67,6373.485,-7569.0,4.897137392051449,-3.1942448964198515,-4.985756990159412,-5.131220522688854,-6.539218461001257,-6.069961003995176,0.9115945514452248,2.2422944926847213,0.296446995,0.03308097,0.957211905,-8.97288,10.59044,13.505099999999999,70.0
1774822673.0507104,1.9311904907226562e-05,2026-03-29T22:17:53.050,2026-03-29T18:17:53.050,-33621.795,-46420.604999999996,-85038.165,-50287.725,-12811.5,-18064.53,6376.635,-7529.174999999999,-3.1312273244273934,-1.7752791604347367,4.153665951914278,7.647060294795338,9.782876281726251,13.08288753613057,4.842592241854973,1.7852946050542815,0.296446995,0.03308097,0.957211905,-8.97288,10.59044,13.505099999999999,70.0
1774822673.0531085,0.0023980140686035156,2026-03-29T22:17:53.053,2026-03-29T18:17:53.053,-33615.36,-46430.775,-85057.425,-50300.775,-12814.74,-18058.95,6382.035,-7488.585,-10.176435142993835,0.4081082571304489,11.46214708481455,16.919077642947958,21.481955064583783,25.917402891030065,6.5852972366144575,0.33960531951901074,0.28893969,0.02001948,0.951108405,-7.309539999999999,8.05728,21.30296,70.0
1774822673.0531232,1.4781951904296875e-05,2026-03-29T22:17:53.053,2026-03-29T18:17:53.053,-33647.805,-46442.115,-85033.845,-50255.595,-12759.164999999999,-18000.989999999998,6394.634999999999,-7443.99,-12.899931343221207,2.4278419901332313,13.584642805974159,18.55724231588227,23.542367984210966,27.14484393504762,5.384738341525438,-1.4267804553090129,0.28893969,0.02001948,0.951108405,-7.309539999999999,8.05728,21.30296,70.0
1774822673.0594532,0.006330013275146484,2026-03-29T22:17:53.059,2026-03-29T18:17:53.059,-33630.21,-46424.924999999996,-85030.02,-50267.61,-12782.654999999999,-18032.489999999998,6389.37,-7400.745,-9.799640247208533,3.4346213902967033,9.547341764010985,11.919352320476829,15.312556106098338,16.702971893336297,1.801655288466099,-2.616625877135921,0.28893969,0.02001948,0.951108405,-7.309539999999999,8.05728,21.30296,70.0
1774822673.0594711,1.7881393432617188e-05,2026-03-29T22:17:53.059,2026-03-29T18:17:53.059,-33619.994999999995,-46429.83,-85057.37999999999,-50316.84,-12848.715,-18110.475,6355.304999999999,-7361.28,-2.015117667831576,3.0166917797796082,1.210622564953212,0.0988366394224142,0.6745652057648347,-0.4433542538635766,-2.5536618168888796,-2.557024247722542,0.28893969,0.02001948,0.951108405,-7.309539999999999,8.05728,21.30296,70.0
1774822673.0610795,0.0016083717346191406,2026-03-29T22:17:53.061,2026-03-29T18:17:53.061,-33640.065,-46432.395,-85030.065,-50274.854999999996,-12798.81,-18059.445,6363.764999999999,-7321.365,7.07134569910992,1.3616889625694817,-7.601690659168837,-11.53253456873786,-13.800746424490544,-16.671039367964806,-5.747333551033824,-1.1711867176865998,0.28893969,0.02001948,0.951108405,-7.309539999999999,8.05728,21.30296,70.0
1774822673.061092,1.239776611328125e-05,2026-03-29T22:17:53.061,2026-03-29T18:17:53.061,-33628.32,-46425.24,-85029.075,-50277.33,-12803.984999999999,-18064.26,6366.375,-7276.23,13.30979643402679,-0.8383636192168112,-12.883315375115878,-17.796362595888205,-21.830448191126088,-25.103214777945478,-6.379501440535227,0.9338468524721325,0.28893969,0.02001948,0.951108405,-7.309539999999999,8.05728,21.30296,70.0
1774822673.0666559,0.005563974380493164,2026-03-29T22:17:53.066,2026-03-29T18:17:53.066,-33618.015,-46424.835,-85036.77,-50285.115,-12808.845,-18065.88,6367.365,-7229.07,13.688203152965338,-2.686218628064829,-12.294616358234364,-16.04240680605593,-20.167308015222833,-22.522315937481732,-4.194039257392408,2.7307034097179246,0.28893969,0.02001948,0.951108405,-7.309539999999999,8.05728,21.30296,70.0
1774822673.0666723,1.6450881958007812e-05,2026-03-29T22:17:53.066,2026-03-29T18:17:53.066,-33616.665,-46422.63,-85028.985,-50272.604999999996,-12791.88,-18046.71,6372.719999999999,-7186.905,7.788719823753773,-3.4481787497086,-6.213067296037503,-7.279613434741905,-9.906970436817058,-10.559335161456781,-0.17687301933908592,3.2735883799249,0.28893969,0.02001948,0.951108405,-7.309539999999999,8.05728,21.30296,70.0
1774822673.0716212,0.004948854446411133,2026-03-29T22:17:53.071,2026-03-29T18:17:53.071,-33607.034999999996,-46415.205,-85025.06999999999,-50274.765,-12798.225,-18054.899999999998,6367.1849999999995,-7146.764999999999,-1.910876633409472,-2.8392280215191383,2.4937124048631545,4.3846607636531845,4.168754294065209,5.258479766140794,3.89177751488482,2.193178180052284,0.28893969,0.02001948,0.951108405,-7.309539999999999,8.05728,21.30296,70.0
1774822673.071632,1.0728836059570312e-05,2026-03-29T22:17:53.071,2026-03-29T18:17:53.071,-33596.19,-46411.92,-85025.83499999999,-50280.93,-12807.09,-18063.899999999998,6365.565,-7106.49,-11.079093415683374,-1.117228341271854,9.841339266468978,13.692961562243198,15.839355664216338,18.070534364549868,6.226699672240263,-0.07346225060046546,0.28893969,0.02001948,0.951108405,-7.309539999999999,8.05728,21.30296,70.0
1774822673.0716429,1.0967254638671875e-05,2026-03-29T22:17:53.071,2026-03-29T18:17:53.071,-33592.59,-46411.47,-85025.43,-50276.43,-12797.865,-18051.3,6369.929999999999,-7062.12,-15.477605815010405,1.0368212039998626,12.581216863034257,16.639217054232446,20.21921445619926,22.664130023655797,5.818628563727876,-2.454279306773661,0.27209403,0.02539056,0.937436565,0.57988,4.959499999999999,27.26962,70.0
1774822673.071648,5.0067901611328125e-06,2026-03-29T22:17:53.071,2026-03-29T18:17:53.071,-33598.44,-46418.085,-85032.58499999999,-50279.31,-12797.64,-18053.505,6374.835,-7016.13,-12.932245936069458,2.7916440421492177,9.657182079472157,12.21152832930305,15.809188031975067,17.57672650118407,2.866499291533861,-3.751189181423191,0.27209403,0.02539056,0.937436565,0.57988,4.959499999999999,27.26962,70.0
1774822673.0850828,0.013434886932373047,2026-03-29T22:17:53.085,2026-03-29T18:17:53.085,-33618.6,-46440.54,-85058.28,-50304.195,-12820.769999999999,-18075.915,6375.96,-6969.105,-4.405947415665174,3.4801142740690114,2.603105122236491,2.7086938205826434,4.961575397947821,5.481863805142564,-1.3221562616211286,-3.244211366054251,0.27209403,0.02539056,0.937436565,0.57988,4.959499999999999,27.26962,70.0
1774822673.0851212,3.838539123535156e-05,2026-03-29T22:17:53.085,2026-03-29T18:17:53.085,-33607.619999999995,-46440.9,-85051.62,-50285.835,-12787.064999999999,-18028.17,6397.965,-6920.37,6.355692242953568,2.839901362201003,-5.262987041779077,-7.450032946908225,-7.356685519234153,-8.19103494742624,-4.912027811912881,-1.0854918188987754,0.27209403,0.02539056,0.937436565,0.57988,4.959499999999999,27.26962,70.0
1774822673.0851555,3.4332275390625e-05,2026-03-29T22:17:53.085,2026-03-29T18:17:53.085,-33592.77,-46454.67,-85084.92,-50330.295,-12838.23,-18086.895,6381.315,-6874.29,14.481415924668545,1.101453193568646,-10.424473453130807,-13.807016219877907,-15.85909504724014,-17.69975375650765,-6.343493148098017,1.7303599641170617,0.27209403,0.02539056,0.937436565,0.57988,4.959499999999999,27.26962,70.0
1774822673.085169,1.3589859008789062e-05,2026-03-29T22:17:53.085,2026-03-29T18:17:53.085,-33566.265,-46453.275,-85116.19499999999,-50389.424999999996,-12922.785,-18190.53,6340.23,-6823.304999999999,16.195541934528187,-1.0983297889983838,-10.762387517055211,-13.846976025066725,-17.223026507430813,-19.393787094282796,-5.007459188205823,3.826467024964782,0.27209403,0.02539056,0.937436565,0.57988,4.959499999999999,27.26962,70.0
1774822673.0851789,9.775161743164062e-06,2026-03-29T22:17:53.085,2026-03-29T18:17:53.085,-33573.78,-46460.744999999995,-85102.155,-50371.064999999995,-12907.17,-18173.34,6325.83,-6773.264999999999,10.58300026195078,-2.941764392471997,-6.426244420273415,-7.98430924342129,-11.368252215943908,-13.07787042396808,-1.5008552690694543,4.12078074421988,0.27209403,0.02539056,0.937436565,0.57988,4.959499999999999,27.26962,70.0
1774822673.0851903,1.1444091796875e-05,2026-03-29T22:17:53.085,2026-03-29T18:17:53.085,-33626.43,-46450.71,-85024.395,-50258.43,-12773.925,-18029.295,6381.9,-6726.15,0.06797378016400783,-3.7196763979508454,0.3788005845809505,0.8264475028061096,-1.2493572275041924,-1.846412573865843,2.642750080829064,2.3853695922724225,0.27209403,0.02539056,0.937436565,0.57988,4.959499999999999,27.26962,70.0
1774822673.0892053,0.0040149688720703125,2026-03-29T22:17:53.089,2026-03-29T18:17:53.089,-33652.575,-46455.299999999996,-85000.545,-50220.765,-12732.029999999999,-17992.89,6411.285,-6682.005,-10.640885298138489,-3.090826844643688,6.521309610055095,8.58501042178688,8.63185630826444,9.422412457439204,5.624871762399687,-0.6016308950142165,0.27209403,0.02539056,0.937436565,0.57988,4.959499999999999,27.26962,70.0
1774822673.0892212,1.5974044799804688e-05,2026-03-29T22:17:53.089,2026-03-29T18:17:53.089,-33683.445,-46464.255,-85001.22,-50227.29,-12746.744999999999,-18016.829999999998,6396.929999999999,-6639.929999999999,-16.676149057830173,-1.2248207826174395,9.407611822355351,12.086234617901919,14.246062406844965,16.18415525854808,6.161588061827586,-3.4056148313277395,0.27209403,0.02539056,0.937436565,0.57988,4.959499999999999,27.26962,70.0
1774822673.0933356,0.004114389419555664,2026-03-29T22:17:53.093,2026-03-29T18:17:53.093,-33648.525,-46428.21,-85028.12999999999,-50284.35,-12812.49,-18074.745,6383.745,-6598.53,-15.240634078881254,1.227701466426946,8.08532805032587,10.248840485558432,13.674262915142851,16.039390796033295,4.033422672481491,-4.629500537003103,0.27331473,0.027160575,0.940122105,20.49418,-0.48832,22.52376,70.0
1774822673.0933576,2.193450927734375e-05,2026-03-29T22:17:53.093,2026-03-29T18:17:53.093,-33616.799999999996,-46417.005,-85036.455,-50292.0,-12813.975,-18064.62,6393.285,-6545.429999999999,-6.911241734583914,3.3433837961918313,3.5128686883380427,4.378925705668596,7.701072827060433,9.528796261204809,0.1713072426797326,-3.614172239385345,0.27331473,0.027160575,0.940122105,20.49418,-0.48832,22.52376,70.0
1774822673.1000383,0.006680727005004883,2026-03-29T22:17:53.100,2026-03-29T18:17:53.100,-33613.74,-46424.384999999995,-85042.62,-50300.46,-12824.144999999999,-18074.565,6382.844999999999,-6490.98,4.59362332993744,4.257785868678866,-2.051779783637238,-2.6478855904299365,-0.7816053167003819,-0.3186148410974441,-3.7532641213677183,-0.7921894785915388,0.27331473,0.027160575,0.940122105,20.49418,-0.48832,22.52376,70.0
1774822673.100054,1.5735626220703125e-05,2026-03-29T22:17:53.100,2026-03-29T18:17:53.100,-33602.94,-46417.229999999996,-85022.145,-50269.185,-12784.23,-18025.965,6383.385,-6439.23,14.08883989710877,3.5110153497277623,-6.1775441450989295,-7.805498331075613,-8.178416004413275,-9.388902013044317,-6.0523716197364115,2.4946256480544626,0.27331473,0.027160575,0.940122105,20.49418,-0.48832,22.52376,70.0
1774822673.1000671,1.3113021850585938e-05,2026-03-29T22:17:53.100,2026-03-29T18:17:53.100,-33584.085,-46412.325,-85000.77,-50235.03,-12740.895,-17975.925,6419.835,-6385.86,17.27834530474617,1.2737218909233106,-7.334924408066821,-9.232622893487243,-11.718525873910647,-14.190815256255709,-5.745986074400039,4.638042418055568,0.27331473,0.027160575,0.940122105,20.49418,-0.48832,22.52376,70.0
1774822673.100072,4.76837158203125e-06,2026-03-29T22:17:53.100,2026-03-29T18:17:53.100,-33623.28,-46456.155,-85039.155,-50290.155,-12818.564999999999,-18073.079999999998,6386.13,-6343.0199999999995,12.712901004683419,-1.6556171184902002,-5.437861796746696,-6.866909988017782,-10.456757150632491,-13.16525110326367,-2.976226690490992,4.556558229385932,0.27331473,0.027160575,0.940122105,20.49418,-0.48832,22.52376,70.0
1774822673.108297,0.008225202560424805,2026-03-29T22:17:53.108,2026-03-29T18:17:53.108,-33617.52,-46438.47,-85034.97,-50296.095,-12832.154999999999,-18104.445,6351.03,-6299.054999999999,2.4513009714341485,-4.1147680985991,-1.6760328924354264,-2.2043479079617754,-5.407264813640629,-7.124433937414943,1.0620878062014412,2.2448021311978263,0.27331473,0.027160575,0.940122105,20.49418,-0.48832,22.52376,70.0
1774822673.108344,4.696846008300781e-05,2026-03-29T22:17:53.108,2026-03-29T18:17:53.108,-33614.549999999996,-46439.865,-85061.43,-50323.049999999996,-12857.984999999999,-18136.62,6337.125,-6255.224999999999,-8.877772842932359,-5.0289093528088795,2.186925900566533,2.580997969006415,1.1171303560268437,1.2616167123323365,4.6394497520592415,-1.2016061737551464,0.27331473,0.027160575,0.940122105,20.49418,-0.48832,22.52376,70.0
1774822673.1083724,2.8371810913085938e-05,2026-03-29T22:17:53.108,2026-03-29T18:17:53.108,-33626.34,-46441.08,-85062.33,-50323.14,-12858.525,-18137.565,6331.5,-6216.12,-16.181192569707573,-3.8798232209033636,4.649853899308573,5.65987652307163,6.56784195785496,8.637900192303704,6.23241130355049,-4.109016120960205,0.27331473,0.027160575,0.940122105,20.49418,-0.48832,22.52376,70.0
1774822673.1083808,8.344650268554688e-06,2026-03-29T22:17:53.108,2026-03-29T18:17:53.108,-33606.494999999995,-46412.505,-85024.98,-50289.345,-12835.574999999999,-18120.375,6344.865,-6185.07,-16.208370233738734,-0.9888687974185603,5.044121648874443,6.227943207530265,9.135602107937844,12.285395276419758,5.169613197559734,-5.045225655904963,0.27331473,0.027160575,0.940122105,20.49418,-0.48832,22.52376,70.0
1774822673.1135628,0.005182027816772461,2026-03-29T22:17:53.113,2026-03-29T18:17:53.113,-33587.145,-46417.455,-85038.93,-50307.075,-12849.705,-18126.45,6367.545,-6158.565,-9.00703894907667,2.5371984782126558,3.628897601904877,4.601503605685312,8.276384684251868,11.08184398240301,1.910245368547491,-3.5311208940894976,0.27551199,0.070495425,0.9436621350000001,26.6287,-4.18124,19.4565,70.0
1774822673.1136,3.719329833984375e-05,2026-03-29T22:17:53.113,2026-03-29T18:17:53.113,-33587.415,-46437.705,-85065.03,-50314.994999999995,-12827.925,-18089.82,6366.6449999999995,-6119.91,2.1280115195733114,5.215906680821039,1.2670945181013364,1.8102238540427145,4.682617504244689,5.785850493157154,-2.1584765361682363,-0.28802606793759306,0.27551199,0.070495425,0.9436621350000001,26.6287,-4.18124,19.4565,70.0
1774822673.1172056,0.0036056041717529297,2026-03-29T22:17:53.117,2026-03-29T18:17:53.117,-33596.505,-46443.24,-85049.73,-50280.884999999995,-12785.805,-18058.23,6350.4,-6074.099999999999,12.175086246756722,5.811142289579533,-1.0716527198240497,-1.0048725784408512,-0.16315013650886773,-1.3893890852414632,-5.313591892188892,3.1079061304190625,0.27551199,0.070495425,0.9436621350000001,26.6287,-4.18124,19.4565,70.0
1774822673.1172204,1.4781951904296875e-05,2026-03-29T22:17:53.117,2026-03-29T18:17:53.117,-33590.34,-46432.215,-85062.06,-50330.475,-12867.93,-18151.38,6336.45,-6042.87,16.667434535314904,3.9077243209708827,-2.7042153141523237,-3.05160838841365,-4.591183067612633,-7.68855609197058,-6.22451839930636,4.997772197288643,0.27551199,0.070495425,0.9436621350000001,26.6287,-4.18124,19.4565,70.0
1774822673.1212647,0.004044294357299805,2026-03-29T22:17:53.121,2026-03-29T18:17:53.121,-33574.68,-46406.295,-85027.815,-50300.685,-12831.975,-18080.55,6409.125,-6011.28,13.692265198628135,0.16953498188274668,-3.367083926159003,-4.023309673526258,-7.263932800922507,-10.843512112089916,-4.509861152330452,4.457415695519512,0.27551199,0.070495425,0.9436621350000001,26.6287,-4.18124,19.4565,70.0
1774822673.1212888,2.4080276489257812e-05,2026-03-29T22:17:53.121,2026-03-29T18:17:53.121,-33568.604999999996,-46400.715,-85025.745,-50292.45,-12815.865,-18058.14,6427.62,-5982.075,4.706627628888717,-3.8700611816074506,-3.1136381248982774,-3.954348448906948,-7.485180662188737,-9.850586084414696,-0.8919285461317126,1.7541351850008302,0.27551199,0.070495425,0.9436621350000001,26.6287,-4.18124,19.4565,70.0
1774822673.12873,0.007441282272338867,2026-03-29T22:17:53.128,2026-03-29T18:17:53.128,-33590.744999999995,-46419.84,-85035.645,-50297.085,-12811.005,-18044.594999999998,6403.23,-5963.804999999999,-6.178016423376408,-6.433484918627853,-2.1279955619063586,-2.9919894228377446,-5.292627430285766,-5.25095960061719,3.110982973783792,-1.7853474345914102,0.27551199,0.070495425,0.9436621350000001,26.6287,-4.18124,19.4565,70.0
1774822673.1287456,1.5497207641601562e-05,2026-03-29T22:17:53.128,2026-03-29T18:17:53.128,-33596.46,-46439.415,-85053.465,-50300.64,-12794.355,-18011.52,6417.09,-5936.94,-14.090191340458862,-6.287472451778004,-0.6154526827677665,-1.2848716823899355,-1.3896723122145025,1.1418592762417263,5.8216454530033275,-4.43051212286073,0.27551199,0.070495425,0.9436621350000001,26.6287,-4.18124,19.4565,70.0
1774822673.128759,1.33514404296875e-05,2026-03-29T22:17:53.128,2026-03-29T18:17:53.128,-33614.64,-46426.229999999996,-85020.705,-50260.005,-12752.369999999999,-17978.76,6422.58,-5906.474999999999,-15.593039434967297,-3.3423118256820064,1.1714257666041026,0.9444336293761633,3.0344488036810215,6.937898505750269,6.102930755121152,-4.900125617074723,0.27551199,0.070495425,0.9436621350000001,26.6287,-4.18124,19.4565,70.0
1774822673.1287663,7.3909759521484375e-06,2026-03-29T22:17:53.128,2026-03-29T18:17:53.128,-33591.42,-46406.97,-85011.39,-50267.07,-12776.265,-18015.795,6422.264999999999,-5881.59,-10.184301024096353,1.2320622089307647,2.8428248484576564,3.2449464796813374,6.581957736462905,10.03337611731644,3.8293195700931757,-2.98891381665191,0.27551199,0.070495425,0.9436621350000001,26.6287,-4.18124,19.4565,70.0
1774822673.1390288,0.010262489318847656,2026-03-29T22:17:53.139,2026-03-29T18:17:53.139,-33571.17,-46421.729999999996,-85067.235,-50342.939999999995,-12868.064999999999,-18120.645,6381.36,-5848.83,-0.44427116112031295,5.462932670074509,3.8571999707634537,4.891529871063261,8.015495737386898,9.345375335470562,-0.06174869389296814,0.34159613888790114,0.26989677,0.09020973,0.951108405,7.53844,-10.48362,17.86946,70.0
1774822673.1390493,2.0503997802734375e-05,2026-03-29T22:17:53.139,2026-03-29T18:17:53.139,-33590.385,-46439.595,-85065.165,-50325.165,-12852.135,-18116.145,6355.98,-5813.19,9.199050777649374,7.431046729124569,3.677656218240815,5.082558730296474,6.668307603549356,5.177086081088622,-3.9573026145216734,3.448869153428737,0.26989677,0.09020973,0.951108405,7.53844,-10.48362,17.86946,70.0
1774822673.1390753,2.5987625122070312e-05,2026-03-29T22:17:53.139,2026-03-29T18:17:53.139,-33571.034999999996,-46433.655,-85063.905,-50319.54,-12846.105,-18110.43,6364.9349999999995,-5773.05,14.49475809333988,6.152266124832912,2.0652132476476863,3.345807733300543,2.7711284150829076,-0.9032938724320059,-6.234367210438664,4.825325274809792,0.26989677,0.09020973,0.951108405,7.53844,-10.48362,17.86946,70.0
1774822673.1390812,5.9604644775390625e-06,2026-03-29T22:17:53.139,2026-03-29T18:17:53.139,-33574.229999999996,-46430.28,-85045.00499999999,-50289.119999999995,-12809.43,-18072.899999999998,6383.969999999999,-5743.304999999999,13.25285093660192,2.0745720050027012,-0.6542859314253533,-0.05930960637662307,-2.471460331503899,-6.627850586249056,-5.930647151012829,3.836288623140559,0.26989677,0.09020973,0.951108405,7.53844,-10.48362,17.86946,70.0
1774822673.148944,0.009862661361694336,2026-03-29T22:17:53.148,2026-03-29T18:17:53.148,-33601.005,-46438.74,-85058.055,-50313.915,-12841.47,-18109.079999999998,6387.48,-5722.83,6.248249885424125,-3.0626625412349266,-3.550370573427283,-4.018687932432934,-7.1769855236030855,-9.848271821928506,-3.146230008310161,1.01557387996556,0.26989677,0.09020973,0.951108405,7.53844,-10.48362,17.86946,70.0
1774822673.148975,3.0994415283203125e-05,2026-03-29T22:17:53.148,2026-03-29T18:17:53.148,-33619.365,-46460.159999999996,-85077.495,-50336.549999999996,-12860.324999999999,-18114.12,6397.83,-5700.285,-3.2266331791953022,-6.973466082921272,-5.381822864577296,-6.88720428918134,-9.432054510915727,-9.327211021801718,0.9886467067296306,-2.2204124415926265,0.26989677,0.09020973,0.951108405,7.53844,-10.48362,17.86946,70.0
1774822673.1490035,2.86102294921875e-05,2026-03-29T22:17:53.149,2026-03-29T18:17:53.149,-33614.955,-46468.485,-85080.105,-50329.575,-12838.365,-18074.024999999998,6412.634999999999,-5661.8099999999995,-10.913572687690952,-7.854133700898704,-5.145750164385723,-7.1898788120529655,-8.0839780734487,-5.217390900528039,4.769378850183265,-4.287751252923022,0.26989677,0.09020973,0.951108405,7.53844,-10.48362,17.86946,70.0
1774822673.149016,1.239776611328125e-05,2026-03-29T22:17:53.149,2026-03-29T18:17:53.149,-33604.155,-46474.29,-85103.37,-50360.04,-12865.32,-18101.969999999998,6380.91,-5622.165,-13.511308196706155,-5.22772143082679,-2.630197390182753,-4.392378640557362,-3.3422296646703544,0.9595640334250124,6.614234747740805,-4.2163824411185855,0.26989677,0.09020973,0.951108405,7.53844,-10.48362,17.86946,70.0
1774822673.14903,1.4066696166992188e-05,2026-03-29T22:17:53.149,2026-03-29T18:17:53.149,-33621.615,-46457.415,-85059.18,-50300.64,-12796.019999999999,-18031.86,6371.235,-5584.365,-10.097575005326599,-0.2030678700569465,1.3348360358784874,0.6660019137852222,3.1281090618637157,6.8509925587998035,5.7210689215257835,-2.109373188440453,0.26989677,0.09020973,0.951108405,7.53844,-10.48362,17.86946,70.0
1774822673.1490407,1.0728836059570312e-05,2026-03-29T22:17:53.149,2026-03-29T18:17:53.149,-33656.265,-46443.104999999996,-85012.245,-50243.04,-12739.455,-17982.135,6368.264999999999,-5541.84,-2.436588625417049,4.992312770139335,5.118141817126087,5.966110952236214,8.752673137251714,10.151635324805632,2.413811749482184,0.9393525014703947,0.26989677,0.09020973,0.951108405,7.53844,-10.48362,17.86946,70.0
1774822673.1536121,0.004571437835693359,2026-03-29T22:17:53.153,2026-03-29T18:17:53.153,-33598.979999999996,-46396.485,-84988.98,-50250.42,-12778.335,-18041.309999999998,6368.219999999999,-5502.24,5.918605239626605,8.009410449763239,6.970656570730089,9.124062010319662,11.076984924556209,9.503645625328687,-1.9696920997182275,3.4134851197878566,0.280761,0.091857675,0.95959227,12.192739999999999,-10.57518,17.36588,70.0
1774822673.153787,0.0001747608184814453,2026-03-29T22:17:53.153,2026-03-29T18:17:53.153,-33561.99,-46389.33,-84996.27,-50256.63,-12781.484999999999,-18041.265,6416.594999999999,-5462.1449999999995,11.277200043340079,7.454055087170244,5.85834169351441,8.493218192184168,8.86406674794513,5.067506129019257,-5.6128095198303125,4.133221325351295,0.280761,0.091857675,0.95959227,12.192739999999999,-10.57518,17.36588,70.0
1774822673.157401,0.003614187240600586,2026-03-29T22:17:53.157,2026-03-29T18:17:53.157,-33560.369999999995,-46410.299999999996,-85012.29,-50250.465,-12756.734999999999,-18009.719999999998,6434.235,-5416.5599999999995,11.446621949442003,3.5426778037024462,2.037000736039862,4.029867533310333,2.757232557644957,-1.482068299996181,-6.967848896813797,2.8224850722339117,0.280761,0.091857675,0.95959227,12.192739999999999,-10.57518,17.36588,70.0
1774822673.1574233,2.2172927856445312e-05,2026-03-29T22:17:53.157,2026-03-29T18:17:53.157,-33568.155,-46438.92,-85071.915,-50335.244999999995,-12862.125,-18128.34,6376.455,-5385.285,6.626350533912747,-1.9759978487869154,-2.9487561102249797,-2.5346843739854115,-4.847658607553143,-7.5678277246067305,-5.411832889446352,0.20954802830217387,0.280761,0.091857675,0.95959227,12.192739999999999,-10.57518,17.36588,70.0
1774822673.1657188,0.008295536041259766,2026-03-29T22:17:53.165,2026-03-29T18:17:53.165,-33574.994999999995,-46442.564999999995,-85068.72,-50328.405,-12853.439999999999,-18117.719999999998,6365.07,-5350.679999999999,-0.8024145410264084,-6.608521103577174,-6.895704867243067,-8.364854699340155,-10.73802239732383,-10.716856506395999,-1.5336180163219582,-2.372401925741403,0.280761,0.091857675,0.95959227,12.192739999999999,-10.57518,17.36588,70.0
1774822673.1657395,2.0742416381835938e-05,2026-03-29T22:17:53.165,2026-03-29T18:17:53.165,-33623.64,-46437.705,-85013.145,-50253.479999999996,-12773.835,-18038.565,6384.0599999999995,-5299.74,-7.4430849983181195,-8.256047555851337,-7.940616506795291,-10.774227315786355,-12.264775238348872,-9.572902997256442,3.080498108885724,-3.6676761897687054,0.280761,0.091857675,0.95959227,12.192739999999999,-10.57518,17.36588,70.0
1774822673.1657588,1.9311904907226562e-05,2026-03-29T22:17:53.165,2026-03-29T18:17:53.165,-33627.465,-46423.89,-84998.385,-50237.955,-12755.205,-18018.899999999998,6412.724999999999,-5251.59,-10.438507756109859,-6.178958357143346,-5.462606512758732,-8.493642358766396,-8.562636251487998,-4.496184771955098,6.4899154107904184,-3.1131018907952024,0.280761,0.091857675,0.95959227,12.192739999999999,-10.57518,17.36588,70.0
1774822673.165766,7.152557373046875e-06,2026-03-29T22:17:53.165,2026-03-29T18:17:53.165,-33572.34,-46404.27,-85023.22499999999,-50282.775,-12806.369999999999,-18068.399999999998,6404.625,-5209.965,-8.702120749001237,-1.3373347483416713,-0.4425499014651518,-2.342087564503057,-1.0355902970470046,2.5213540020576746,7.214514325988757,-1.0823842213080699,0.280761,0.091857675,0.95959227,12.192739999999999,-10.57518,17.36588,70.0
1774822673.169666,0.0039000511169433594,2026-03-29T22:17:53.169,2026-03-29T18:17:53.169,-33569.415,-46403.325,-85019.67,-50282.955,-12810.285,-18074.07,6388.245,-5168.925,-3.2948135078518943,4.052983145605661,4.924013660908642,5.0543713827038,7.161660546171382,8.625300056481173,4.880132012695525,1.3458327724117236,0.280761,0.091857675,0.95959227,12.192739999999999,-10.57518,17.36588,70.0
1774822673.1696873,2.1219253540039062e-05,2026-03-29T22:17:53.169,2026-03-29T18:17:53.169,-33569.01,-46408.59,-85043.79,-50311.034999999996,-12838.635,-18105.93,6365.7,-5128.605,3.1732281615834492,7.543011404953284,8.207735999189854,10.4060138560752,12.462193260493626,11.26196238036256,0.41178205311263544,2.958845693629963,0.280761,0.091857675,0.95959227,12.192739999999999,-10.57518,17.36588,70.0
1774822673.1739535,0.004266262054443359,2026-03-29T22:17:53.173,2026-03-29T18:17:53.173,-33594.795,-46413.225,-85001.12999999999,-50229.09,-12731.805,-17993.295,6400.349999999999,-5086.575,7.793887915122172,7.575936584016384,7.871662303475753,11.256144299952405,12.469269335533584,9.260670868135598,-4.325573795521818,3.0183418448831785,0.29547043500000003,0.10278294,0.96227781,22.75266,-12.31482,9.842699999999999,70.0
1774822673.1739848,3.123283386230469e-05,2026-03-29T22:17:53.173,2026-03-29T18:17:53.173,-33601.005,-46424.205,-85016.34,-50249.97,-12757.365,-18021.329999999998,6391.17,-5055.389999999999,8.66933261299039,4.192422564695014,4.008700920592907,7.134670028844925,7.066560821346018,3.3701991936949,-7.303835681433225,1.5998746115749607,0.29547043500000003,0.10278294,0.96227781,22.75266,-12.31482,9.842699999999999,70.0
1774822673.1894884,0.015503644943237305,2026-03-29T22:17:53.189,2026-03-29T18:17:53.189,-33586.2,-46427.58,-85042.53,-50288.085,-12792.555,-18045.855,6378.165,-5023.26,5.688835106119278,-1.0082294484071221,-1.6707937390107854,-0.18410154932632122,-1.4694901912822762,-4.00332521400687,-7.203915566965914,-0.49333054545960625,0.29547043500000003,0.10278294,0.96227781,22.75266,-12.31482,9.842699999999999,70.0
1774822673.18951,2.1696090698242188e-05,2026-03-29T22:17:53.189,2026-03-29T18:17:53.189,-33587.505,-46431.0,-85064.44499999999,-50336.729999999996,-12859.38,-18115.695,6345.405,-4981.59,0.4581663693978156,-5.6257791501519065,-6.609891753141933,-7.45911891473542,-9.436815968146576,-9.77571993302131,-4.0063397886065495,-2.176539419751801,0.29547043500000003,0.10278294,0.96227781,22.75266,-12.31482,9.842699999999999,70.0
1774822673.189536,2.5987625122070312e-05,2026-03-29T22:17:53.189,2026-03-29T18:17:53.189,-33590.79,-46430.64,-85055.4,-50328.765,-12857.49,-18118.079999999998,6351.705,-4937.8949999999995,-4.534999960298775,-7.575428189373047,-8.580036738357645,-11.447712341053991,-13.339400341422508,-11.484760755292621,0.9674881532930556,-2.645134931943409,0.29547043500000003,0.10278294,0.96227781,22.75266,-12.31482,9.842699999999999,70.0
1774822673.189544,7.867813110351562e-06,2026-03-29T22:17:53.189,2026-03-29T18:17:53.189,-33565.409999999996,-46403.729999999996,-85015.53,-50281.92,-12805.695,-18062.37,6399.855,-4895.19,-7.096678231998484,-6.03979612309072,-6.709182981616912,-10.381916544767634,-11.45205035142756,-8.358540695422269,5.598870276964605,-1.7611194736882658,0.29547043500000003,0.10278294,0.96227781,22.75266,-12.31482,9.842699999999999,70.0
1774822673.1895535,9.5367431640625e-06,2026-03-29T22:17:53.189,2026-03-29T18:17:53.189,-33565.049999999996,-46409.715,-85024.44,-50286.6,-12802.59,-18052.559999999998,6418.53,-4855.139999999999,-6.290989406591043,-1.8173187265077606,-1.8789955898519393,-4.769991113706532,-4.603933977860389,-1.6805108747479125,7.878418548990693,-0.07812156826639177,0.29547043500000003,0.10278294,0.96227781,22.75266,-12.31482,9.842699999999999,70.0
1774822673.189561,7.3909759521484375e-06,2026-03-29T22:17:53.189,2026-03-29T18:17:53.189,-33564.42,-46417.634999999995,-85043.295,-50306.985,-12824.279999999999,-18082.44,6396.57,-4823.099999999999,-2.769808128761448,3.083764098055842,3.6941698075274014,2.8477763259812763,4.184047361930181,5.7280081895107955,6.785860972911819,1.4871230005852227,0.29547043500000003,0.10278294,0.96227781,22.75266,-12.31482,9.842699999999999,70.0
1774822673.1895702,9.298324584960938e-06,2026-03-29T22:17:53.189,2026-03-29T18:17:53.189,-33587.415,-46424.97,-85036.72499999999,-50295.6,-12817.755,-18087.66,6379.469999999999,-4791.599999999999,1.6417834448641022,6.402172168427106,7.492997421087284,9.070127382775073,11.049844310761303,10.704222538003256,2.753731867193091,2.1482121186043224,0.29547043500000003,0.10278294,0.96227781,22.75266,-12.31482,9.842699999999999,70.0
1774822673.1895776,7.3909759521484375e-06,2026-03-29T22:17:53.189,2026-03-29T18:17:53.189,-33587.055,-46423.619999999995,-85032.54,-50291.46,-12817.755,-18087.614999999998,6381.224999999999,-4763.7,4.866952353440766,6.674329199453022,7.857704861540892,11.182989479363862,13.016483969348286,11.110065531361476,-2.499465695146556,1.644177952176387,0.29547043500000003,0.10278294,0.96227781,22.75266,-12.31482,9.842699999999999,70.0
1774822673.1934283,0.003850698471069336,2026-03-29T22:17:53.193,2026-03-29T18:17:53.193,-33586.47,-46436.04,-85047.66,-50299.47,-12812.4,-18062.64,6359.8949999999995,-4732.514999999999,5.54942713877177,3.8877965629002746,4.726737023925373,8.366728677032485,9.309086522929258,6.77089992253673,-6.705072527095723,0.33787305815343394,0.29284593000000003,0.09008766,0.963925755,31.984959999999997,-16.00774,11.46026,70.0
1774822673.193441,1.2636184692382812e-05,2026-03-29T22:17:53.193,2026-03-29T18:17:53.193,-33570.494999999995,-46431.54,-85038.795,-50276.61,-12774.914999999999,-18016.965,6370.38,-4698.2699999999995,3.6239132248918002,-0.5574964429851668,-0.37738992493424534,2.01513757002433,1.6681134867312712,-0.4345031719532699,-8.032454819597843,-1.0163483124010775,0.29284593000000003,0.09008766,0.963925755,31.984959999999997,-16.00774,11.46026,70.0
1774822673.19738,0.003939151763916016,2026-03-29T22:17:53.197,2026-03-29T18:17:53.197,-33556.905,-46425.555,-85062.15,-50333.354999999996,-12860.685,-18128.655,6347.025,-4680.045,0.24477680337086133,-4.544468871824996,-5.092678054738066,-4.957947551327523,-6.471740506167193,-7.3848418632777575,-5.894870122122669,-1.6956539574909162,0.29284593000000003,0.09008766,0.963925755,31.984959999999997,-16.00774,11.46026,70.0
1774822673.1973991,1.9073486328125e-05,2026-03-29T22:17:53.197,2026-03-29T18:17:53.197,-33578.865,-46430.145,-85043.16,-50304.915,-12828.105,-18092.925,6392.835,-4652.865,-2.853173104911288,-6.248049549872959,-7.326112897347755,-9.477330836448086,-11.547324346436945,-11.079456377846952,-1.2136593739745893,-1.3898801091680097,0.29284593000000003,0.09008766,0.963925755,31.984959999999997,-16.00774,11.46026,70.0
1774822673.2029545,0.005555391311645508,2026-03-29T22:17:53.202,2026-03-29T18:17:53.202,-33566.04,-46430.82,-85061.34,-50330.43,-12851.369999999999,-18104.13,6422.985,-4618.3949999999995,-4.224668752846893,-4.976854292566278,-6.199066400303544,-9.6870813326709,-11.453691767122345,-9.953562753694813,3.980638104108824,-0.3417764107824491,0.29284593000000003,0.09008766,0.963925755,31.984959999999997,-16.00774,11.46026,70.0
1774822673.2029665,1.1920928955078125e-05,2026-03-29T22:17:53.202,2026-03-29T18:17:53.202,-33586.02,-46448.325,-85070.565,-50327.775,-12837.465,-18081.809999999998,6411.014999999999,-4581.224999999999,-3.386177612801276,-1.4568195374218094,-2.3957078158639624,-5.722411363573696,-6.432846061891278,-4.560056995079854,7.436679448293933,0.8160037152962882,0.29284593000000003,0.09008766,0.963925755,31.984959999999997,-16.00774,11.46026,70.0
1774822673.210072,0.007105588912963867,2026-03-29T22:17:53.210,2026-03-29T18:17:53.210,-33611.58,-46440.0,-85034.655,-50291.28,-12805.92,-18061.739999999998,6398.325,-4548.195,-0.9783726580945808,2.5608202949091963,2.2245447648446515,0.4523995400811933,1.1181283835921372,2.6881877773649125,7.667671465941309,1.4258505570061752,0.29284593000000003,0.09008766,0.963925755,31.984959999999997,-16.00774,11.46026,70.0
1774822673.2100935,2.1457672119140625e-05,2026-03-29T22:17:53.210,2026-03-29T18:17:53.210,-33596.685,-46431.405,-85030.29,-50289.03,-12805.109999999999,-18065.43,6400.08,-4519.215,1.631929021458283,5.162653493921476,5.539069265187705,6.021040931057603,7.797913825022128,8.6006915549747,4.597610743970892,1.1674286519224997,0.29284593000000003,0.09008766,0.963925755,31.984959999999997,-16.00774,11.46026,70.0
1774822673.2101157,2.2172927856445312e-05,2026-03-29T22:17:53.210,2026-03-29T18:17:53.210,-33557.895,-46438.02,-85077.18,-50343.93,-12857.67,-18115.605,6381.36,-4487.22,3.0859208089135004,5.184931158080402,6.149643081869302,8.61914417294606,10.754983864129215,10.629529057232045,-0.4157333378355533,0.22185878265289732,0.29284593000000003,0.09008766,0.963925755,31.984959999999997,-16.00774,11.46026,70.0
1774822673.2101269,1.1205673217773438e-05,2026-03-29T22:17:53.210,2026-03-29T18:17:53.210,-33560.82,-46433.34,-85050.405,-50300.729999999996,-12802.68,-18057.69,6377.13,-4453.695,2.7227428239316174,2.7394458644658255,3.9809519205039865,7.35292603645768,8.924875351230654,7.987961796262467,-5.186756870753779,-0.8444194686420817,0.29284593000000003,0.09008766,0.963925755,31.984959999999997,-16.00774,11.46026,70.0
1774822673.213872,0.0037450790405273438,2026-03-29T22:17:53.213,2026-03-29T18:17:53.213,-33564.645,-46411.29,-84998.06999999999,-50245.424999999996,-12749.49,-18005.715,6400.3949999999995,-4419.18,0.880944650223073,-0.8863563034628693,0.2302962764368872,3.0871267586945756,3.4045943090190947,1.966802672641967,-7.663582847053721,-1.4049815366765541,0.29077074,0.07751445,0.96496335,44.4829,-18.708759999999998,9.354379999999999,70.0
1774822673.2139049,3.2901763916015625e-05,2026-03-29T22:17:53.213,2026-03-29T18:17:53.213,-33562.89,-46407.78,-85017.23999999999,-50291.775,-12814.47,-18073.44,6390.63,-4385.655,-1.327129412845449,-3.8897766990669025,-3.272265100298559,-2.07872859899997,-3.162873777000716,-4.685087730202152,-6.817805303240067,-1.1258341206957516,0.29077074,0.07751445,0.96496335,44.4829,-18.708759999999998,9.354379999999999,70.0
1774822673.2175145,0.0036096572875976562,2026-03-29T22:17:53.217,2026-03-29T18:17:53.217,-33569.549999999996,-46415.564999999995,-85025.83499999999,-50297.31,-12813.48,-18068.94,6401.115,-4350.15,-2.6364711274215082,-4.841190726272514,-4.9582633091642405,-5.8471511295962,-7.861346055762238,-9.022860713133152,-3.073102449740129,-0.15209431018518774,0.29077074,0.07751445,0.96496335,44.4829,-18.708759999999998,9.354379999999999,70.0
1774822673.217538,2.3603439331054688e-05,2026-03-29T22:17:53.217,2026-03-29T18:17:53.217,-33572.744999999995,-46427.085,-85030.155,-50291.145,-12800.925,-18057.915,6414.255,-4318.74,-2.315429560970977,-3.3655795866272697,-4.231925360234001,-6.758834979786143,-8.814941802068471,-9.227448036980856,1.9064120147482242,0.9710653512451382,0.29077074,0.07751445,0.96496335,44.4829,-18.708759999999998,9.354379999999999,70.0
1774822673.221648,0.004109859466552734,2026-03-29T22:17:53.221,2026-03-29T18:17:53.221,-33570.854999999996,-46440.18,-85050.72,-50313.6,-12826.08,-18089.82,6403.86,-4288.68,-0.5572162375773971,-0.2919342362849946,-1.6721527025293847,-4.75459903871894,-5.9421919078066665,-5.385442360625518,5.962089778077716,1.5984686515377893,0.29077074,0.07751445,0.96496335,44.4829,-18.708759999999998,9.354379999999999,70.0
1774822673.2216687,2.0742416381835938e-05,2026-03-29T22:17:53.221,2026-03-29T18:17:53.221,-33581.79,-46437.615,-85046.805,-50311.259999999995,-12823.199999999999,-18087.795,6397.245,-4256.73,1.6273676220244357,2.789961419808239,1.338008795010171,-1.0488765967067077,-0.8451191456572994,0.6156224450725526,7.383222612005565,1.342497760761127,0.29077074,0.07751445,0.96496335,44.4829,-18.708759999999998,9.354379999999999,70.0
1774822673.225451,0.0037822723388671875,2026-03-29T22:17:53.225,2026-03-29T18:17:53.225,-33585.57,-46421.055,-85020.56999999999,-50278.77,-12783.285,-18040.545,6404.985,-4223.07,2.9600824861369097,4.335951667773891,3.338573431416961,2.5599121235780378,4.052810488900318,6.00580169330303,5.6313885590051855,0.29449379658440195,0.29077074,0.07751445,0.96496335,44.4829,-18.708759999999998,9.354379999999999,70.0
1774822673.2254887,3.7670135498046875e-05,2026-03-29T22:17:53.225,2026-03-29T18:17:53.225,-33557.895,-46410.119999999995,-85027.635,-50297.895,-12811.994999999999,-18072.09,6392.295,-4195.845,2.5996883016028565,3.6138433970247927,3.5009418378297115,4.564871356252791,6.6660430387335845,8.420838772610535,1.5389951310720267,-1.010546964285649,0.29077074,0.07751445,0.96496335,44.4829,-18.708759999999998,9.354379999999999,70.0
1774822673.229674,0.00418543815612793,2026-03-29T22:17:53.229,2026-03-29T18:17:53.229,-33561.315,-46409.67,-85026.735,-50298.03,-12818.115,-18087.704999999998,6397.514999999999,-4168.71,0.626679491031428,1.0519837855120453,1.9736240893365233,4.384477820714048,6.145485013640067,6.956198585279693,-3.087638206258007,-1.869878520887765,0.29077074,0.07751445,0.96496335,44.4829,-18.708759999999998,9.354379999999999,70.0
1774822673.2297304,5.626678466796875e-05,2026-03-29T22:17:53.229,2026-03-29T18:17:53.229,-33586.335,-46418.67,-84999.645,-50247.405,-12760.65,-18036.675,6408.045,-4134.87,-1.9574770239577157,-1.9968181442914024,-0.2797513277924702,2.4863114066016543,3.1242142715515464,2.509132624278691,-6.270200860623569,-1.785710241459986,0.29077074,0.07751445,0.96496335,44.4829,-18.708759999999998,9.354379999999999,70.0
1774822673.2335665,0.0038361549377441406,2026-03-29T22:17:53.233,2026-03-29T18:17:53.233,-33581.97,-46416.195,-85010.22,-50273.325,-12802.14,-18093.645,6380.19,-4103.1449999999995,-3.732718052431608,-3.9517469221101256,-2.0355025786099388,0.005697121759475955,-0.742275590472063,-2.7229769936206925,-6.706942554548397,-0.7389254763547017,0.30322188,0.09924291,0.9567846600000001,43.017939999999996,-17.9305,1.4497,70.0
1774822673.233593,2.6464462280273438e-05,2026-03-29T22:17:53.233,2026-03-29T18:17:53.233,-33566.04,-46403.189999999995,-85002.39,-50265.945,-12788.505,-18067.41,6392.205,-4070.43,-3.6153807103552285,-3.8086881435370885,-2.453928810136026,-1.8918405937952933,-3.6559482911824723,-6.321284962572708,-4.302937436817417,0.7817067028049756,0.30322188,0.09924291,0.9567846600000001,43.017939999999996,-17.9305,1.4497,70.0
1774822673.2387733,0.00518035888671875,2026-03-29T22:17:53.238,2026-03-29T18:17:53.238,-33568.92,-46416.42,-85018.36499999999,-50281.695,-12793.814999999999,-18055.35,6411.24,-4040.595,-1.4735899492005833,-1.6488396157392975,-1.4802905768933698,-2.559222372342346,-4.517312190141459,-6.773505764723998,-0.16784535200584316,2.0145206494546186,0.30322188,0.09924291,0.9567846600000001,43.017939999999996,-17.9305,1.4497,70.0
1774822673.238788,1.4543533325195312e-05,2026-03-29T22:17:53.238,2026-03-29T18:17:53.238,-33565.005,-46413.54,-85021.92,-50291.46,-12802.769999999999,-18058.68,6399.45,-4014.045,1.7321064818227914,1.4040760077140089,0.1884747262703359,-2.068799769294313,-3.3318047575855947,-4.120511769037985,3.8970610079472383,2.307692531381932,0.30322188,0.09924291,0.9567846600000001,43.017939999999996,-17.9305,1.4497,70.0
1774822673.2477536,0.008965730667114258,2026-03-29T22:17:53.247,2026-03-29T18:17:53.247,-33561.27,-46414.125,-85026.87,-50299.244999999995,-12809.43,-18059.67,6398.73,-3987.18,4.383123017491258,3.7568192898757187,1.530646030266109,-1.0155313950977454,-1.036148614248916,0.16033930005735586,6.18465384437131,1.456531349481087,0.30322188,0.09924291,0.9567846600000001,43.017939999999996,-17.9305,1.4497,70.0
1774822673.2477727,1.9073486328125e-05,2026-03-29T22:17:53.247,2026-03-29T18:17:53.247,-33558.659999999996,-46411.29,-85021.37999999999,-50295.555,-12807.269999999999,-18055.844999999998,6405.075,-3965.895,5.015089597901498,4.162024181380216,1.777617628569934,-0.08493993125319503,1.1009060812417897,3.9425942804084135,5.797325264798184,-0.1765799159888893,0.30322188,0.09924291,0.9567846600000001,43.017939999999996,-17.9305,1.4497,70.0
1774822673.2478073,3.457069396972656e-05,2026-03-29T22:17:53.247,2026-03-29T18:17:53.247,-33556.68,-46408.32,-85012.65,-50280.84,-12789.314999999999,-18040.14,6414.48,-3933.81,3.1027494705840843,2.364362238514471,0.8303316092055841,0.34606488950466696,2.15356247884817,5.500099230591579,2.9936028424563887,-1.823558785815737,0.30322188,0.09924291,0.9567846600000001,43.017939999999996,-17.9305,1.4497,70.0
1774822673.2478151,7.867813110351562e-06,2026-03-29T22:17:53.247,2026-03-29T18:17:53.247,-33558.975,-46411.965,-85015.17,-50282.145,-12793.005,-18047.43,6413.58,-3900.96,-0.5947597565059182,-0.7521695993648067,-0.7038429543670665,0.35628026136703483,1.9388606529215038,4.302257080839122,-0.9641343647384275,-2.6774004507654054,0.30322188,0.09924291,0.9567846600000001,43.017939999999996,-17.9305,1.4497,70.0
1774822673.2478244,9.298324584960938e-06,2026-03-29T22:17:53.247,2026-03-29T18:17:53.247,-33563.835,-46417.95,-85021.245,-50287.905,-12801.779999999999,-18062.01,6399.8099999999995,-3869.46,-4.334024528208837,-3.5970427820799804,-1.8657879847658858,0.3211380365893461,0.9694392242873654,1.1852296449845234,-4.376272805881007,-2.28639648657978,0.30322188,0.09924291,0.9567846600000001,43.017939999999996,-17.9305,1.4497,70.0
1774822673.247832,7.62939453125e-06,2026-03-29T22:17:53.247,2026-03-29T18:17:53.247,-33573.735,-46429.784999999996,-85035.42,-50295.42,-12809.97,-18075.105,6376.545,-3838.6349999999998,-6.215683744446501,-4.675128982385769,-1.8940053373210306,0.5763625721485433,0.039564995300327366,-2.1508453235393517,-5.833192480056084,-0.7835277036270158,0.30322188,0.09924291,0.9567846600000001,43.017939999999996,-17.9305,1.4497,70.0
1774822673.2595131,0.011681079864501953,2026-03-29T22:17:53.259,2026-03-29T18:17:53.259,-33578.505,-46436.4,-85041.94499999999,-50300.28,-12818.43,-18089.82,6374.295,-3814.065,-5.14535098050116,-3.357004237310957,-0.668887354293654,1.1310861173304771,-0.28656378559673257,-4.037136098735317,-4.793646223866843,1.1618225215664684,0.31262127,0.112121295,0.939877965,30.00116,-18.037319999999998,3.00622,70.0
1774822673.2595327,1.9550323486328125e-05,2026-03-29T22:17:53.259,2026-03-29T18:17:53.259,-33568.965,-46424.61,-85033.08,-50291.505,-12810.465,-18091.89,6386.985,-3785.7599999999998,-1.442639761475361,-0.22601853756887308,1.1920145719051705,1.618251085130774,0.014056728118899365,-3.6624725375008076,-1.779737857124307,2.6492669732369434,0.31262127,0.112121295,0.939877965,30.00116,-18.037319999999998,3.00622,70.0
1774822673.2595625,2.9802322387695312e-05,2026-03-29T22:17:53.259,2026-03-29T18:17:53.259,-33542.549999999996,-46404.9,-85021.29,-50287.32,-12810.869999999999,-18100.17,6376.724999999999,-3760.605,3.2314702231358816,3.182999442022816,2.6465921970243507,1.5207729370117593,0.4752595537222396,-1.4241417555837048,1.8778073067667744,2.966801258988152,0.31262127,0.112121295,0.939877965,30.00116,-18.037319999999998,3.00622,70.0
1774822673.2595704,7.867813110351562e-06,2026-03-29T22:17:53.259,2026-03-29T18:17:53.259,-33523.65,-46381.95,-84990.78,-50252.67,-12771.99,-18054.54,6376.1849999999995,-3729.96,6.628535258743407,5.135258197365287,2.7898387737670673,0.5398205324233382,0.5016020638845993,1.34926705989638,4.622142654432836,1.9274805407152569,0.31262127,0.112121295,0.939877965,30.00116,-18.037319999999998,3.00622,70.0
1774822673.2595797,9.298324584960938e-06,2026-03-29T22:17:53.259,2026-03-29T18:17:53.259,-33514.784999999996,-46383.57,-84996.315,-50255.28,-12769.695,-18037.98,6393.78,-3700.7549999999997,7.002288123750245,4.570069154959366,1.3689882781007607,-1.123683678594657,-0.1956727206389031,3.1347050496869473,5.328041739536924,-0.03395587334058066,0.31262127,0.112121295,0.939877965,30.00116,-18.037319999999998,3.00622,70.0
1774822673.259587,7.3909759521484375e-06,2026-03-29T22:17:53.259,2026-03-29T18:17:53.259,-33561.225,-46412.729999999996,-84994.73999999999,-50241.24,-12742.875,-17994.329999999998,6429.33,-3674.25,4.002911011155247,1.6600517478226637,-1.0270262811791115,-2.765389497591866,-1.3573030880692158,3.017894323133714,3.7600096078841014,-2.0498568896101377,0.31262127,0.112121295,0.939877965,30.00116,-18.037319999999998,3.00622,70.0
1774822673.2661552,0.006568193435668945,2026-03-29T22:17:53.266,2026-03-29T18:17:53.266,-33576.885,-46427.31,-85028.48999999999,-50291.1,-12802.814999999999,-18059.265,6413.355,-3651.66,-1.0807106548204826,-2.2337420547435047,-3.2197089689864815,-3.4900607452372614,-2.283153463071794,1.1498292167912008,0.6466331485970707,-3.2079057008702034,0.31262127,0.112121295,0.939877965,30.00116,-18.037319999999998,3.00622,70.0
1774822673.266238,8.273124694824219e-05,2026-03-29T22:17:53.266,2026-03-29T18:17:53.266,-33577.74,-46433.25,-85029.97499999999,-50289.435,-12800.295,-18059.67,6413.445,-3626.2799999999997,-5.880220171075477,-5.204045734852034,-4.022694166142293,-2.6944688420760117,-2.2369717678396874,-1.3672476307434693,-2.649780664203267,-2.962858119122741,0.31262127,0.112121295,0.939877965,30.00116,-18.037319999999998,3.00622,70.0
1774822673.2724984,0.006260395050048828,2026-03-29T22:17:53.272,2026-03-29T18:17:53.272,-33574.32,-46450.35,-85053.23999999999,-50304.375,-12800.564999999999,-18046.079999999998,6387.75,-3598.47,-8.063842291122638,-5.731580523979785,-2.8647673572656913,-0.46193843918464755,-0.9205456756110503,-3.0906716165146273,-4.721764324852814,-1.3866301242181405,0.31262127,0.112121295,0.939877965,30.00116,-18.037319999999998,3.00622,70.0
1774822673.2725348,3.647804260253906e-05,2026-03-29T22:17:53.272,2026-03-29T18:17:53.272,-33573.6,-46446.435,-85053.105,-50317.244999999995,-12822.75,-18070.605,6384.105,-3572.64,-6.478189281647071,-3.4534158098770016,-0.13320595741543273,2.3649559348470315,1.2616169092828462,-3.01822899863296,-4.7130457414154066,0.8547300676960722,0.31262127,0.112121295,0.939877965,30.00116,-18.037319999999998,3.00622,70.0
1774822673.2726305,9.560585021972656e-05,2026-03-29T22:17:53.272,2026-03-29T18:17:53.272,-33559.38,-46425.104999999996,-85028.22,-50297.49,-12811.365,-18066.915,6408.63,-3549.87,-1.7531267524933392,0.620195483014382,2.9529501870338812,4.510693263174047,3.320257819644121,-1.1305391332819437,-2.6729011192491186,2.787003185077724,0.331236945,0.10131810000000001,0.9300513300000001,25.42316,-14.10024,0.44254,70.0
1774822673.272663,3.266334533691406e-05,2026-03-29T22:17:53.272,2026-03-29T18:17:53.272,-33538.32,-46401.03,-85010.895,-50286.78,-12805.92,-18065.25,6423.255,-3534.48,3.945857784801099,4.561354956779183,4.898652624614435,4.860129910582874,4.148744476346575,1.5861023973523414,0.4777916657131617,3.551445068710699,0.331236945,0.10131810000000001,0.9300513300000001,25.42316,-14.10024,0.44254,70.0
1774822673.2793393,0.006676197052001953,2026-03-29T22:17:53.279,2026-03-29T18:17:53.279,-33543.99,-46410.479999999996,-85017.87,-50283.27,-12792.869999999999,-18048.42,6430.005,-3517.1549999999997,7.922168472027019,6.443706053973177,4.658779165102869,3.0345094976468134,3.1102600084650383,3.648504969752407,3.351647412037225,2.7819807020270813,0.331236945,0.10131810000000001,0.9300513300000001,25.42316,-14.10024,0.44254,70.0
1774822673.27936,2.0742416381835938e-05,2026-03-29T22:17:53.279,2026-03-29T18:17:53.279,-33566.265,-46447.83,-85060.215,-50318.325,-12820.365,-18073.17,6404.8949999999995,-3501.9449999999997,8.238477303489299,5.284048162135909,2.1806939432927748,-0.34647058866823577,0.43553657561621495,3.8561919079945497,4.697627953096645,0.7728138006242802,0.331236945,0.10131810000000001,0.9300513300000001,25.42316,-14.10024,0.44254,70.0
1774822673.2902386,0.010878562927246094,2026-03-29T22:17:53.290,2026-03-29T18:17:53.290,-33546.104999999996,-46433.205,-85063.68,-50340.915,-12859.65,-18122.04,6387.974999999999,-3490.245,4.669481948371095,1.545774978809472,-1.511989364215229,-3.8727933737640767,-2.7954823179225112,1.9416347090629813,3.943912298090774,-1.636608074660135,0.331236945,0.10131810000000001,0.9300513300000001,25.42316,-14.10024,0.44254,70.0
1774822673.290269,3.0279159545898438e-05,2026-03-29T22:17:53.290,2026-03-29T18:17:53.290,-33537.69,-46427.805,-85063.905,-50349.33,-12869.82,-18127.44,6388.0199999999995,-3478.455,-1.1551487537413323,-3.0502303194967055,-4.754011144473527,-5.9517554172821825,-5.109175954910329,-1.246092304760143,1.4466244032192908,-3.412378302242145,0.331236945,0.10131810000000001,0.9300513300000001,25.42316,-14.10024,0.44254,70.0
1774822673.2902994,3.0517578125e-05,2026-03-29T22:17:53.290,2026-03-29T18:17:53.290,-33539.58,-46419.615,-85046.04,-50326.29,-12844.845,-18101.16,6397.74,-3460.545,-6.503011697596624,-6.327990519457105,-6.0007372128649425,-5.542940921176686,-5.327933725404047,-4.128574862061033,-1.6661225876266883,-3.766186989731104,0.331236945,0.10131810000000001,0.9300513300000001,25.42316,-14.10024,0.44254,70.0
1774822673.2903118,1.239776611328125e-05,2026-03-29T22:17:53.290,2026-03-29T18:17:53.290,-33550.784999999996,-46409.759999999995,-85010.44499999999,-50279.22,-12799.26,-18064.395,6416.28,-3432.645,-8.835737403029599,-6.693521034112108,-4.563933128759279,-2.6740105506639833,-3.16294045067304,-5.174192267656396,-3.9917870615553146,-2.499630212201428,0.331236945,0.10131810000000001,0.9300513300000001,25.42316,-14.10024,0.44254,70.0
1774822673.2903264,1.4543533325195312e-05,2026-03-29T22:17:53.290,2026-03-29T18:17:53.290,-33565.095,-46420.695,-85020.61499999999,-50284.619999999995,-12807.314999999999,-18082.98,6399.719999999999,-3409.1549999999997,-7.028479864064182,-3.9092498497049677,-0.9703966992608396,1.5167547280020777,0.5862588600879676,-3.682977224607105,-4.478794538565969,-0.10559145154565093,0.331236945,0.10131810000000001,0.9300513300000001,25.42316,-14.10024,0.44254,70.0
1774822673.290337,1.0728836059570312e-05,2026-03-29T22:17:53.290,2026-03-29T18:17:53.290,-33557.174999999996,-46423.799999999996,-85024.75499999999,-50276.88,-12787.605,-18055.53,6389.325,-3386.52,-1.920012236777991,0.7704366847937818,3.2363815726789444,5.2481065805948734,4.339434996629985,-0.18789571858748744,-2.9042981987069183,2.421602508092181,0.331236945,0.10131810000000001,0.9300513300000001,25.42316,-14.10024,0.44254,70.0
1774822673.2940755,0.0037384033203125,2026-03-29T22:17:53.294,2026-03-29T18:17:53.294,-33575.354999999996,-46413.09,-84989.205,-50226.615,-12730.32,-17995.41,6416.054999999999,-3360.645,4.0788403324011435,5.174708066460606,6.17290400517901,6.872112405500431,6.42334163627406,3.7393638080265403,0.013345391105654542,3.995146699349356,0.361754445,0.077087205,0.930478575,21.08932,-7.691039999999999,2.62472,70.0
1774822673.2941053,2.9802322387695312e-05,2026-03-29T22:17:53.294,2026-03-29T18:17:53.294,-33556.229999999996,-46399.634999999995,-84985.47,-50238.494999999995,-12755.205,-18032.085,6418.575,-3336.795,8.134705442412647,7.234191241689251,6.467359568508893,5.611040152680956,5.828937583054772,6.203624570240823,2.928022322596064,3.8981915507599982,0.361754445,0.077087205,0.930478575,21.08932,-7.691039999999999,2.62472,70.0
1774822673.2978053,0.0037000179290771484,2026-03-29T22:17:53.297,2026-03-29T18:17:53.297,-33539.13,-46401.525,-85006.305,-50271.345,-12787.199999999999,-18057.375,6420.96,-3314.0699999999997,8.345927527307062,5.959181369910841,3.897452052608324,1.9212030355221312,2.690267637380566,5.892998755318872,4.475093120514825,2.106051144283844,0.361754445,0.077087205,0.930478575,21.08932,-7.691039999999999,2.62472,70.0
1774822673.2978425,3.719329833984375e-05,2026-03-29T22:17:53.297,2026-03-29T18:17:53.297,-33537.869999999995,-46410.299999999996,-85023.765,-50290.02,-12807.314999999999,-18074.25,6410.384999999999,-3294.045,4.647327458119826,1.9130844350510963,-0.4808114289684447,-2.6825244756948567,-1.7380798246936464,2.746418151684979,3.9061277397134813,-0.6743074198214662,0.361754445,0.077087205,0.930478575,21.08932,-7.691039999999999,2.62472,70.0
1774822673.3015409,0.0036983489990234375,2026-03-29T22:17:53.301,2026-03-29T18:17:53.301,-33527.88,-46402.244999999995,-85023.94499999999,-50300.865,-12831.975,-18114.3,6388.695,-3272.535,-1.170796445594758,-3.044660316175455,-4.7789190678606595,-6.266388209310469,-5.601227261307191,-1.9467928352614863,1.4559455843254525,-3.277065810745192,0.361754445,0.077087205,0.930478575,21.08932,-7.691039999999999,2.62472,70.0
1774822673.3015628,2.193450927734375e-05,2026-03-29T22:17:53.301,2026-03-29T18:17:53.301,-33553.395,-46408.59,-85005.98999999999,-50264.955,-12788.369999999999,-18072.045,6400.304999999999,-3247.3799999999997,-6.3347696174020065,-6.6251906089412795,-7.101791227698469,-7.30188546594654,-7.2354416231118535,-6.084330742931578,-1.7397692324047933,-4.561088264990408,0.361754445,0.077087205,0.930478575,21.08932,-7.691039999999999,2.62472,70.0
1774822673.305786,0.0042231082916259766,2026-03-29T22:17:53.305,2026-03-29T18:17:53.305,-33571.979999999996,-46415.34,-85003.605,-50252.985,-12768.75,-18046.53,6408.179999999999,-3216.33,-8.423494481481033,-7.177173200152282,-6.387401557910912,-5.317349070456734,-5.8858476792341845,-7.696575662215159,-4.156026160868921,-3.907020376326535,0.361754445,0.077087205,0.930478575,21.08932,-7.691039999999999,2.62472,70.0
1774822673.3058157,2.9802322387695312e-05,2026-03-29T22:17:53.305,2026-03-29T18:17:53.305,-33556.905,-46403.775,-84999.645,-50255.909999999996,-12772.17,-18050.445,6404.4,-3190.23,-6.51876477654115,-4.452207677828992,-2.8866049696583724,-1.1001659269285853,-2.041007478718861,-5.873802942555535,-4.5955923515056085,-1.5134578869804463,0.361754445,0.077087205,0.930478575,21.08932,-7.691039999999999,2.62472,70.0
1774822673.3107228,0.004907131195068359,2026-03-29T22:17:53.310,2026-03-29T18:17:53.310,-33556.005,-46413.63,-85014.27,-50269.634999999995,-12780.045,-18051.12,6404.219999999999,-3164.265,-1.6166003601421128,0.2878271146229934,1.9307194681421862,3.6302821547367983,2.7566677414696588,-1.243169554074351,-2.7789285258412493,1.648358122947043,0.361754445,0.077087205,0.930478575,21.08932,-7.691039999999999,2.62472,70.0
1774822673.3107548,3.1948089599609375e-05,2026-03-29T22:17:53.310,2026-03-29T18:17:53.310,-33542.28,-46409.58,-85029.795,-50304.06,-12826.439999999999,-18095.04,6389.28,-3130.9649999999997,3.888383642135856,4.865765413647481,6.003719131259749,6.9344996145843005,6.542014990962442,4.242624621532094,0.4823713747902427,4.2216949775073775,0.361754445,0.077087205,0.930478575,21.08932,-7.691039999999999,2.62472,70.0
1774822673.314144,0.003389120101928711,2026-03-29T22:17:53.314,2026-03-29T18:17:53.314,-33545.655,-46414.799999999996,-85031.73,-50301.405,-12814.65,-18064.079999999998,6398.46,-3095.2799999999997,7.380503688991317,7.201369363850317,7.569211302410678,7.449179834938302,7.734748948128738,8.135073917435909,3.63337963073185,5.043359935551008,0.378478035,0.06860334,0.9204078,22.63058,-2.12114,3.1283,70.0
1774822673.314162,1.811981201171875e-05,2026-03-29T22:17:53.314,2026-03-29T18:17:53.314,-33542.955,-46408.59,-85016.43,-50278.634999999995,-12790.755,-18041.67,6405.03,-3069.4049999999997,7.279878579955473,6.2647954038151985,5.924875139219205,4.941232291474787,5.791161194368213,8.583096643858225,5.10328181771087,3.6696613323210503,0.378478035,0.06860334,0.9204078,22.63058,-2.12114,3.1283,70.0
1774822673.3175685,0.003406524658203125,2026-03-29T22:17:53.317,2026-03-29T18:17:53.317,-33536.744999999995,-46410.21,-85022.81999999999,-50285.205,-12797.1,-18048.015,6401.61,-3043.305,3.768381006041267,2.5306344482605287,1.73731560689475,0.40002059795563016,1.4366416852540669,5.20242731584485,4.0780689850449585,0.6115808422679473,0.378478035,0.06860334,0.9204078,22.63058,-2.12114,3.1283,70.0
1774822673.317588,1.9550323486328125e-05,2026-03-29T22:17:53.317,2026-03-29T18:17:53.317,-33549.885,-46425.24,-85034.565,-50293.755,-12802.68,-18055.44,6391.844999999999,-3018.4649999999997,-1.3541691796966813,-2.267558531389516,-3.2365592762214077,-4.361224429642201,-3.6123318633517223,-0.6822538200561975,0.9422637544483135,-2.8440411505311674,0.378478035,0.06860334,0.9204078,22.63058,-2.12114,3.1283,70.0
1774822673.322981,0.005393028259277344,2026-03-29T22:17:53.322,2026-03-29T18:17:53.322,-33542.505,-46415.61,-85021.875,-50277.509999999995,-12784.859999999999,-18043.2,6390.495,-2996.595,-5.590375833238318,-5.953644652136951,-6.894040630844825,-7.4294509257686165,-7.32516815699018,-6.557158474305422,-2.8466979285954,-5.171908173845909,0.378478035,0.06860334,0.9204078,22.63058,-2.12114,3.1283,70.0
1774822673.322997,1.5974044799804688e-05,2026-03-29T22:17:53.322,2026-03-29T18:17:53.322,-33551.729999999996,-46421.505,-85012.425,-50254.11,-12751.605,-18005.895,6424.245,-2975.49,-6.97215617740205,-6.906748636806474,-7.678339309754207,-7.55274434027624,-8.166449005806427,-9.797288408551994,-5.422747848668948,-5.282591077101126,0.378478035,0.06860334,0.9204078,22.63058,-2.12114,3.1283,70.0
1774822673.3255222,0.0025250911712646484,2026-03-29T22:17:53.325,2026-03-29T18:17:53.325,-33535.17,-46419.479999999996,-85040.37,-50303.97,-12816.449999999999,-18075.555,6418.259999999999,-2958.0299999999997,-4.987172786652359,-4.778175588652572,-5.238703500517677,-4.640813062391653,-5.720312860508576,-8.839505165238949,-5.417418296888034,-3.035493757550891,0.378478035,0.06860334,0.9204078,22.63058,-2.12114,3.1283,70.0
1774822673.3255353,1.3113021850585938e-05,2026-03-29T22:17:53.325,2026-03-29T18:17:53.325,-33521.13,-46415.43,-85046.04,-50313.689999999995,-12828.869999999999,-18090.045,6403.95,-2938.77,-0.7631075604412949,-0.6084492777909655,-0.5808347531935938,0.18852229762211783,-0.8828542935817844,-3.9273244451437193,-2.6727916553160997,0.6525846593275494,0.378478035,0.06860334,0.9204078,22.63058,-2.12114,3.1283,70.0
1774822673.3331323,0.0075969696044921875,2026-03-29T22:17:53.333,2026-03-29T18:17:53.333,-33553.395,-46418.85,-85007.83499999999,-50258.205,-12769.515,-18035.055,6406.695,-2914.875,3.5534852251119142,3.688308461014185,4.353804470150453,5.035837379021478,4.461008400667066,2.9238510765717485,1.6055204978411068,4.1752149179312745,0.378478035,0.06860334,0.9204078,22.63058,-2.12114,3.1283,70.0
1774822673.3332555,0.0001232624053955078,2026-03-29T22:17:53.333,2026-03-29T18:17:53.333,-33555.06,-46415.25,-85000.545,-50252.13,-12767.49,-18037.98,6408.315,-2892.555,5.888496476229269,6.214464949997587,7.501058198206805,7.958556499151936,8.162574575540171,8.755951285667514,5.366542519135118,5.936910384621569,0.378478035,0.06860334,0.9204078,22.63058,-2.12114,3.1283,70.0
1774822673.333341,8.535385131835938e-05,2026-03-29T22:17:53.333,2026-03-29T18:17:53.333,-33541.74,-46420.65,-85033.44,-50298.299999999996,-12821.49,-18094.815,6394.905,-2868.255,5.246432865308749,5.934548485509288,7.537752751139288,7.739930893569556,8.663720595547096,10.950815810101375,6.686805519579493,5.081017744812778,0.376158705,0.080627235,0.916806735,11.353439999999999,3.26564,5.81406,70.0
1774822673.3333893,4.839897155761719e-05,2026-03-29T22:17:53.333,2026-03-29T18:17:53.333,-33543.36,-46422.72,-85026.78,-50283.45,-12801.734999999999,-18072.36,6400.62,-2844.045,2.1389574802224156,3.096209510365025,4.435123441267813,4.390316918961158,5.647341080306891,8.408613540657282,4.740669104095795,1.910434191436993,0.376158705,0.080627235,0.916806735,11.353439999999999,3.26564,5.81406,70.0
1774822673.3421068,0.008717536926269531,2026-03-29T22:17:53.342,2026-03-29T18:17:53.342,-33548.4,-46419.03,-85009.545,-50256.18,-12770.145,-18041.445,6409.259999999999,-2819.745,-1.7508080307784855,-0.9426831558019528,-0.5277594172646161,-0.82255646791114,0.2157364762265712,2.0905577990986877,0.283086695794896,-2.207520803055622,0.376158705,0.080627235,0.916806735,11.353439999999999,3.26564,5.81406,70.0
1774822673.342128,2.1219253540039062e-05,2026-03-29T22:17:53.342,2026-03-29T18:17:53.342,-33549.885,-46411.604999999996,-85018.545,-50280.75,-12799.935,-18073.755,6395.625,-2791.2149999999997,-4.466614019565346,-4.371972897420522,-5.294825459536149,-5.842181467913302,-5.497618230243509,-5.339510673497399,-4.627017868847101,-5.430429143459792,0.376158705,0.080627235,0.916806735,11.353439999999999,3.26564,5.81406,70.0
1774822673.342146,1.7881393432617188e-05,2026-03-29T22:17:53.342,2026-03-29T18:17:53.342,-33544.305,-46413.134999999995,-85029.03,-50292.854999999996,-12810.24,-18085.32,6390.945,-2753.415,-4.765458924998352,-5.749983242403675,-7.886509663503124,-8.624519906647533,-9.155356547406361,-10.644669900371103,-7.571809653524215,-6.270959157464516,0.376158705,0.080627235,0.916806735,11.353439999999999,3.26564,5.81406,70.0
1774822673.342154,8.106231689453125e-06,2026-03-29T22:17:53.342,2026-03-29T18:17:53.342,-33537.555,-46423.755,-85039.73999999999,-50296.68,-12812.625,-18087.255,6393.6449999999995,-2713.77,-2.6933773681171607,-4.610723654478323,-7.221355765384975,-7.966120444101876,-9.168769631280487,-11.43470713255718,-6.957178309014041,-4.291209197606872,0.376158705,0.080627235,0.916806735,11.353439999999999,3.26564,5.81406,70.0
1774822673.3468628,0.004708766937255859,2026-03-29T22:17:53.346,2026-03-29T18:17:53.346,-33515.549999999996,-46414.979999999996,-85034.83499999999,-50301.63,-12824.189999999999,-18096.434999999998,6393.69,-2674.62,0.519327211722517,-1.6014226730319394,-3.565309923579812,-4.026410906678679,-5.390116278897554,-7.249400546590995,-2.8570723592037894,-0.3332434344927386,0.376158705,0.080627235,0.916806735,11.353439999999999,3.26564,5.81406,70.0
1774822673.3468924,2.956390380859375e-05,2026-03-29T22:17:53.346,2026-03-29T18:17:53.346,-33508.395,-46413.854999999996,-85039.33499999999,-50316.345,-12839.805,-18108.765,6394.23,-2625.795,3.1566149270415247,1.8773046201025525,1.5769548176010668,1.683530470865202,0.7582938503052833,0.18903285873464062,2.9217584589971466,3.836669247630307,0.376158705,0.080627235,0.916806735,11.353439999999999,3.26564,5.81406,70.0
1774822673.3505352,0.0036427974700927734,2026-03-29T22:17:53.350,2026-03-29T18:17:53.350,-33523.875,-46413.54,-85033.17,-50312.115,-12833.64,-18107.055,6388.11,-2586.69,3.9234610177126035,4.331845742185355,6.083339992275516,6.868519648437703,6.80532146431078,7.688845917512686,7.632501446725273,6.321531251428503,0.376158705,0.080627235,0.916806735,11.353439999999999,3.26564,5.81406,70.0
1774822673.3505497,1.4543533325195312e-05,2026-03-29T22:17:53.350,2026-03-29T18:17:53.350,-33543.854999999996,-46403.505,-85003.29,-50276.7,-12798.09,-18081.855,6386.535,-2562.12,2.5853494204969514,4.82151062816905,8.091107260473652,9.36736239312153,10.22036541990999,11.970857162576733,8.893088418262655,5.966061997965859,0.376158705,0.080627235,0.916806735,11.353439999999999,3.26564,5.81406,70.0
1774822673.3537428,0.0031931400299072266,2026-03-29T22:17:53.353,2026-03-29T18:17:53.353,-33537.375,-46401.525,-84987.09,-50239.125,-12744.81,-18014.175,6414.84,-2532.4649999999997,0.023091807411831308,3.308574350633409,6.766713431321668,8.057159265848636,9.477479869890887,11.11584485929325,5.883258310208993,2.9023856964275976,0.37939356,0.07617168,0.9201026250000001,23.1952,5.96666,10.3005,70.0
1774822673.3537602,1.7404556274414062e-05,2026-03-29T22:17:53.353,2026-03-29T18:17:53.353,-33541.335,-46424.564999999995,-85016.025,-50261.49,-12754.215,-17996.445,6439.139999999999,-2507.67,-2.298091181609793,0.5881968320205321,2.650735280582366,3.363697027396671,4.744249104726215,5.4317802649263,-0.1657969495498453,-1.4929427942779565,0.37939356,0.07617168,0.9201026250000001,23.1952,5.96666,10.3005,70.0
1774822673.357797,0.004036664962768555,2026-03-29T22:17:53.357,2026-03-29T18:17:53.357,-33567.39,-46453.095,-85055.48999999999,-50316.795,-12827.16,-18087.39,6401.474999999999,-2489.985,-3.1406205311554922,-2.128285639737001,-2.5643825463305814,-2.8572589145651097,-2.1195437119376552,-2.655043745955777,-6.468597807571756,-5.220960761199717,0.37939356,0.07617168,0.9201026250000001,23.1952,5.96666,10.3005,70.0
1774822673.3578193,2.2411346435546875e-05,2026-03-29T22:17:53.357,2026-03-29T18:17:53.357,-33539.49,-46425.825,-85036.545,-50306.715,-12827.654999999999,-18107.82,6384.51,-2473.245,-2.146953417197419,-3.7589526247209397,-6.731789438731324,-8.047868356248927,-8.287127313681221,-9.648291969007856,-9.973074367520741,-6.5788610936756236,0.37939356,0.07617168,0.9201026250000001,23.1952,5.96666,10.3005,70.0
1774822673.3621724,0.004353046417236328,2026-03-29T22:17:53.362,2026-03-29T18:17:53.362,-33523.784999999996,-46434.96,-85063.14,-50333.805,-12849.57,-18123.75,6381.585,-2452.3199999999997,0.008780968778560319,-3.7772553004777,-8.134930816747657,-10.003324418525365,-11.134511536629683,-12.51082143655096,-8.841343196430119,-4.948573545857559,0.37939356,0.07617168,0.9201026250000001,23.1952,5.96666,10.3005,70.0
1774822673.362214,4.172325134277344e-05,2026-03-29T22:17:53.362,2026-03-29T18:17:53.362,-33506.19,-46423.575,-85050.98999999999,-50319.99,-12835.98,-18111.015,6370.965,-2432.61,2.034033360072647,-2.353500378575949,-6.1946074023075814,-7.81725136459706,-9.367956018554166,-9.997555000020467,-3.403043456252857,-1.0849489249702904,0.37939356,0.07617168,0.9201026250000001,23.1952,5.96666,10.3005,70.0
1774822673.3724463,0.010232210159301758,2026-03-29T22:17:53.372,2026-03-29T18:17:53.372,-33507.0,-46406.34,-85014.22499999999,-50275.08,-12785.039999999999,-18063.54,6383.835,-2411.055,2.7561733161996687,-0.1928651501358099,-1.7072180066049443,-2.3073784817166105,-3.6188331551345647,-3.1999096419730133,3.910461910309308,3.234262764528011,0.37939356,0.07617168,0.9201026250000001,23.1952,5.96666,10.3005,70.0
1774822673.3724663,2.002716064453125e-05,2026-03-29T22:17:53.372,2026-03-29T18:17:53.372,-33542.369999999995,-46410.93,-84997.8,-50249.744999999995,-12750.345,-18018.405,6419.655,-2392.065,1.776766206434548,1.8158752367060855,3.483390721951381,4.281329097506581,3.771501809644251,4.938321395300815,9.660816393797074,6.034264761334005,0.37939356,0.07617168,0.9201026250000001,23.1952,5.96666,10.3005,70.0
1774822673.3725111,4.482269287109375e-05,2026-03-29T22:17:53.372,2026-03-29T18:17:53.372,-33519.645,-46412.505,-85019.48999999999,-50281.604999999996,-12781.35,-18041.76,6430.634999999999,-2378.745,-0.3145023642998088,2.9651258867824963,7.244681135692482,9.193561737577994,9.709851299531884,10.914502504705746,11.030302492847365,6.057612897606575,0.37939356,0.07617168,0.9201026250000001,23.1952,5.96666,10.3005,70.0
1774822673.372522,1.0967254638671875e-05,2026-03-29T22:17:53.372,2026-03-29T18:17:53.372,-33509.655,-46418.265,-85039.245,-50312.564999999995,-12821.535,-18087.344999999998,6412.545,-2367.585,-2.2788787218940683,2.957677632917347,8.032112497748155,10.32499050264081,11.65785884804827,12.192768982261386,7.20649948834519,3.3382691367555646,0.37939356,0.07617168,0.9201026250000001,23.1952,5.96666,10.3005,70.0
1774822673.3736055,0.0010833740234375,2026-03-29T22:17:53.373,2026-03-29T18:17:53.373,-33519.78,-46414.53,-85026.285,-50302.125,-12826.664999999999,-18117.54,6374.88,-2360.3849999999998,-2.931105401977784,1.9384825150466527,5.52325988477166,7.133848254864968,8.728965472612096,8.288147931723632,-0.15928105510900586,-0.8314049619107359,0.37414455,0.109679895,0.9122291100000001,16.77074,10.48362,-5.1273599999999995,70.0
1774822673.3736188,1.33514404296875e-05,2026-03-29T22:17:53.373,2026-03-29T18:17:53.373,-33533.369999999995,-46415.295,-85013.55,-50277.78,-12795.615,-18097.02,6352.92,-2354.49,-1.8178637416674814,0.3627628421659695,0.7492841119670277,0.9027606251577907,2.0954039459468716,0.9413532260650522,-7.671520277593635,-4.5190476359463005,0.37414455,0.109679895,0.9122291100000001,16.77074,10.48362,-5.1273599999999995,70.0
1774822673.3794029,0.005784034729003906,2026-03-29T22:17:53.379,2026-03-29T18:17:53.379,-33554.295,-46424.564999999995,-85016.745,-50275.89,-12784.59,-18071.055,6381.719999999999,-2341.44,0.5037378106178341,-1.208365268938543,-4.329449478365357,-5.776888061760915,-5.483513824354874,-6.673578893906622,-11.77200696226732,-6.058247030288485,0.37414455,0.109679895,0.9122291100000001,16.77074,10.48362,-5.1273599999999995,70.0
1774822673.3794196,1.6689300537109375e-05,2026-03-29T22:17:53.379,2026-03-29T18:17:53.379,-33534.63,-46418.04,-85021.155,-50296.77,-12814.019999999999,-18090.719999999998,6405.705,-2327.625,2.7479386597051936,-2.2925962429875675,-7.628689359870028,-10.090629007913911,-10.82053923677787,-11.340579456236242,-10.439287630458098,-4.8123719731304195,0.37414455,0.109679895,0.9122291100000001,16.77074,10.48362,-5.1273599999999995,70.0
1774822673.3823996,0.0029799938201904297,2026-03-29T22:17:53.382,2026-03-29T18:17:53.382,-33511.994999999995,-46407.825,-85013.64,-50281.875,-12787.695,-18049.274999999998,6428.61,-2309.085,3.598456144384967,-2.6000527925410313,-7.795774008021923,-10.197654802287158,-11.654182893995205,-11.1720529865302,-4.187393640093873,-1.4408989215501333,0.37414455,0.109679895,0.9122291100000001,16.77074,10.48362,-5.1273599999999995,70.0
1774822673.3824127,1.3113021850585938e-05,2026-03-29T22:17:53.382,2026-03-29T18:17:53.382,-33521.354999999996,-46409.715,-85013.415,-50283.585,-12797.369999999999,-18072.54,6402.014999999999,-2288.3399999999997,2.448976893932958,-2.073183383236465,-4.764399962593894,-6.024323827725418,-7.61519097134841,-6.3683032362975505,4.131597061744815,2.444957749402506,0.37414455,0.109679895,0.9122291100000001,16.77074,10.48362,-5.1273599999999995,70.0
1774822673.392628,0.010215282440185547,2026-03-29T22:17:53.392,2026-03-29T18:17:53.392,-33549.03,-46419.39,-84992.625,-50237.369999999995,-12734.505,-18003.69,6424.92,-2269.305,-0.2195855867474907,-0.8771330778290956,0.21864198467935175,0.6914614894360602,-0.38867010928788026,0.937527909564043,10.646260240469942,5.059177418732365,0.37414455,0.109679895,0.9122291100000001,16.77074,10.48362,-5.1273599999999995,70.0
1774822673.3926454,1.7404556274414062e-05,2026-03-29T22:17:53.392,2026-03-29T18:17:53.392,-33532.11,-46420.604999999996,-85023.58499999999,-50288.58,-12801.779999999999,-18079.02,6406.514999999999,-2254.815,-3.044074692990784,0.6392395371855455,5.10565440686121,7.129857160102416,6.998551280411307,7.645425972828062,12.288176813307437,5.2725060178448135,0.37414455,0.109679895,0.9122291100000001,16.77074,10.48362,-5.1273599999999995,70.0
1774822673.3943355,0.0016901493072509766,2026-03-29T22:17:53.394,2026-03-29T18:17:53.394,-33512.22,-46415.295,-85039.83,-50314.814999999995,-12825.494999999999,-18085.59,6412.455,-2244.69,-4.476747937637874,2.011798540006979,7.8891933419034475,10.583247266045028,11.458887862584854,11.019031089452847,8.250404601726164,3.106351020974212,0.37414455,0.109679895,0.9122291100000001,16.77074,10.48362,-5.1273599999999995,70.0
1774822673.3943567,2.1219253540039062e-05,2026-03-29T22:17:53.394,2026-03-29T18:17:53.394,-33527.655,-46423.305,-85038.97499999999,-50306.49,-12804.57,-18051.885,6411.6449999999995,-2236.185,-3.617817003671254,2.7704271053010614,7.42718968936202,9.604189355100923,11.144431481510708,9.8020662749802,0.38217562707301606,-0.33016558426398285,0.37414455,0.109679895,0.9122291100000001,16.77074,10.48362,-5.1273599999999995,70.0
1774822673.3943748,1.811981201171875e-05,2026-03-29T22:17:53.394,2026-03-29T18:17:53.394,-33534.99,-46412.055,-85003.73999999999,-50263.965,-12756.645,-18008.415,6412.7699999999995,-2225.6549999999997,-0.7407270009303785,2.5863061833985928,3.9130404399333334,4.6160035886577,6.214206264409474,4.665166475705352,-7.673241586663322,-3.4071283641002097,0.38000391,0.148009875,0.909238395,-1.9380199999999999,17.3201,-5.646199999999999,70.0
1774822673.394382,7.152557373046875e-06,2026-03-29T22:17:53.394,2026-03-29T18:17:53.394,-33534.854999999996,-46415.655,-85018.455,-50292.63,-12800.295,-18067.454999999998,6363.585,-2216.745,2.7836160737169937,1.4193757743959676,-1.2033183090886521,-2.2732201617808476,-1.250882145491135,-2.163412514947202,-12.188945722624037,-4.755060851566499,0.38000391,0.148009875,0.909238395,-1.9380199999999999,17.3201,-5.646199999999999,70.0
1774822673.3984637,0.00408172607421875,2026-03-29T22:17:53.398,2026-03-29T18:17:53.398,-33534.81,-46417.455,-85027.275,-50309.909999999996,-12828.869999999999,-18095.985,6339.6449999999995,-2206.44,5.149254721730188,-0.40257157104062,-5.812182873887145,-8.16979400907139,-8.138131006865741,-7.880369342596718,-11.099347132675542,-3.8821016599115166,0.38000391,0.148009875,0.909238395,-1.9380199999999999,17.3201,-5.646199999999999,70.0
1774822673.398484,2.0265579223632812e-05,2026-03-29T22:17:53.398,2026-03-29T18:17:53.398,-33546.78,-46421.1,-85019.4,-50292.99,-12806.144999999999,-18065.565,6377.76,-2189.835,5.039961314972511,-2.2394724774163173,-8.014129510841354,-10.619092362863007,-11.611368528702958,-10.262071682535563,-4.952817530271126,-1.3451793618396095,0.38000391,0.148009875,0.909238395,-1.9380199999999999,17.3201,-5.646199999999999,70.0
1774822673.4025407,0.004056692123413086,2026-03-29T22:17:53.402,2026-03-29T18:17:53.402,-33513.75,-46405.034999999996,-85003.47,-50273.865,-12792.689999999999,-18057.69,6428.384999999999,-2181.24,2.3428959030594534,-3.3478766586428788,-6.904924006092528,-8.632991596712147,-10.28239766671736,-8.513836765527943,3.3714144567184956,1.5796479709955573,0.38000391,0.148009875,0.909238395,-1.9380199999999999,17.3201,-5.646199999999999,70.0
1774822673.4025755,3.4809112548828125e-05,2026-03-29T22:17:53.402,2026-03-29T18:17:53.402,-33516.36,-46414.845,-85007.7,-50272.74,-12793.814999999999,-18061.155,6421.545,-2170.215,-1.7290975726016333,-3.184628820178755,-2.9502659840476193,-3.0875842526867796,-4.760249029407461,-3.498276219743984,10.033638409413477,3.5406723372698123,0.38000391,0.148009875,0.909238395,-1.9380199999999999,17.3201,-5.646199999999999,70.0
1774822673.4083457,0.005770206451416016,2026-03-29T22:17:53.408,2026-03-29T18:17:53.408,-33520.545,-46413.945,-85017.87,-50277.869999999995,-12792.195,-18060.165,6407.6849999999995,-2151.315,-5.19341831743352,-1.6798253760861657,2.206521285443348,3.668016680412042,2.6355895482182063,2.6986157064557355,12.029432217357511,3.742310670086782,0.38000391,0.148009875,0.909238395,-1.9380199999999999,17.3201,-5.646199999999999,70.0
1774822673.408367,2.1219253540039062e-05,2026-03-29T22:17:53.408,2026-03-29T18:17:53.408,-33502.275,-46399.409999999996,-85006.53,-50273.729999999996,-12785.805,-18053.594999999998,6414.389999999999,-2146.59,-6.271988950992599,0.6608324529257861,6.426196301340173,8.81461154832487,8.859210769861713,7.641886992969692,8.559513582895406,2.266426200407867,0.38000391,0.148009875,0.909238395,-1.9380199999999999,17.3201,-5.646199999999999,70.0
1774822673.408386,1.9073486328125e-05,2026-03-29T22:17:53.408,2026-03-29T18:17:53.408,-33474.15,-46374.119999999995,-84983.76,-50263.515,-12776.265,-18050.309999999998,6418.71,-2144.0699999999997,-4.301140229510765,2.905813750596381,7.962868360003915,10.245598874017146,11.397139488886008,9.492498771661246,1.3418251516823025,-0.04581466169080547,0.38000391,0.148009875,0.909238395,-1.9380199999999999,17.3201,-5.646199999999999,70.0
1774822673.408393,6.9141387939453125e-06,2026-03-29T22:17:53.408,2026-03-29T18:17:53.408,-33473.79,-46385.955,-84996.855,-50270.67,-12777.255,-18043.02,6407.73,-2133.9449999999997,-0.11241262400583635,4.068244975401398,6.190680380694106,7.430533299543487,9.279745408082732,7.662677783003716,-6.251553877335203,-2.05941921907892,0.38000391,0.148009875,0.909238395,-1.9380199999999999,17.3201,-5.646199999999999,70.0
1774822673.4141457,0.0057528018951416016,2026-03-29T22:17:53.414,2026-03-29T18:17:53.414,-33488.505,-46409.445,-85019.715,-50287.68,-12793.365,-18057.645,6398.37,-2120.985,4.325335649279608,3.549949878607385,1.8635672884127619,1.605432105717509,3.440733247850512,2.9652521127127205,-10.794012618567061,-2.9055450674706575,0.364317915,0.15637167,0.91723398,-24.12606,16.26716,-18.037319999999998,70.0
1774822673.4141667,2.09808349609375e-05,2026-03-29T22:17:53.414,2026-03-29T18:17:53.414,-33482.295,-46416.869999999995,-85035.645,-50303.159999999996,-12810.15,-18077.94,6404.3099999999995,-2111.985,6.84475071503413,1.4544821334321558,-3.202158669308379,-4.774501544578972,-3.701825091731071,-2.755015718416866,-10.370773721261926,-2.3581407031904593,0.364317915,0.15637167,0.91723398,-24.12606,16.26716,-18.037319999999998,70.0
1774822673.4187925,0.004625797271728516,2026-03-29T22:17:53.418,2026-03-29T18:17:53.418,-33471.135,-46425.104999999996,-85054.36499999999,-50315.895,-12811.41,-18064.89,6417.315,-2100.1949999999997,6.146063863470311,-1.3964032241632727,-6.890563089991522,-9.075044754034518,-9.251185928655401,-7.337127379015686,-5.38652744398736,-0.8630959401533418,0.364317915,0.15637167,0.91723398,-24.12606,16.26716,-18.037319999999998,70.0
1774822673.4188173,2.47955322265625e-05,2026-03-29T22:17:53.418,2026-03-29T18:17:53.418,-33505.2,-46444.545,-85073.12999999999,-50348.115,-12855.42,-18111.555,6409.62,-2085.0299999999997,2.4627464923105773,-3.7813175276364532,-7.674039142769762,-9.572931162860865,-11.003995198947175,-9.0937518112516,1.7264002463084696,0.7585695748602705,0.364317915,0.15637167,0.91723398,-24.12606,16.26716,-18.037319999999998,70.0
1774822673.4262345,0.007417201995849609,2026-03-29T22:17:53.426,2026-03-29T18:17:53.426,-33511.59,-46437.165,-85053.33,-50329.619999999995,-12842.369999999999,-18103.77,6415.65,-2068.02,-2.512334837154445,-4.611484150827559,-5.2521415750419225,-6.1440227907253595,-8.31646849247223,-7.401977204675918,7.711604404228009,1.7527723196207197,0.364317915,0.15637167,0.91723398,-24.12606,16.26716,-18.037319999999998,70.0
1774822673.426251,1.6450881958007812e-05,2026-03-29T22:17:53.426,2026-03-29T18:17:53.426,-33509.97,-46428.21,-85038.39,-50309.055,-12817.664999999999,-18085.77,6409.755,-2059.47,-6.418699184451722,-3.440481872540574,-0.6713141096291095,-0.2767143310252145,-2.329562977573473,-2.9064479772899383,10.00128497150514,1.7845938400062273,0.364317915,0.15637167,0.91723398,-24.12606,16.26716,-18.037319999999998,70.0
1774822673.4262657,1.4781951904296875e-05,2026-03-29T22:17:53.426,2026-03-29T18:17:53.426,-33501.69,-46427.354999999996,-85039.47,-50307.119999999995,-12811.59,-18081.18,6402.96,-2053.845,-7.361349301672227,-0.707273713879477,4.124743881493178,5.576738792194225,4.518476964341462,2.7200991708397084,7.825314735615534,1.0352705551036891,0.364317915,0.15637167,0.91723398,-24.12606,16.26716,-18.037319999999998,70.0
1774822673.4262712,5.4836273193359375e-06,2026-03-29T22:17:53.426,2026-03-29T18:17:53.426,-33485.76,-46414.755,-85014.045,-50279.939999999995,-12786.029999999999,-18062.145,6385.724999999999,-2042.865,-4.835498052767858,2.4203687823818316,7.122190295804318,9.026939743662084,9.48223044179854,7.373250060833749,2.4342410124918343,0.026385445405895786,0.364317915,0.15637167,0.91723398,-24.12606,16.26716,-18.037319999999998,70.0
1774822673.4297676,0.003496408462524414,2026-03-29T22:17:53.429,2026-03-29T18:17:53.429,-33491.79,-46415.655,-85020.705,-50306.04,-12831.66,-18121.364999999998,6347.835,-2030.76,0.010652354969514605,4.550988155257259,7.088828005284698,8.7218229212407,10.60172318591275,9.27282633988753,-3.6044824356268785,-0.7034120262538466,0.364317915,0.15637167,0.91723398,-24.12606,16.26716,-18.037319999999998,70.0
1774822673.429794,2.6464462280273438e-05,2026-03-29T22:17:53.429,2026-03-29T18:17:53.429,-33497.64,-46412.595,-85014.855,-50287.994999999995,-12797.82,-18070.11,6379.245,-2004.9299999999998,4.909070781638971,4.7017606886304355,4.087625816589446,4.872684116927628,7.467804148100539,7.6251771324091555,-7.6469300673286105,-0.880359433018475,0.364317915,0.15637167,0.91723398,-24.12606,16.26716,-18.037319999999998,70.0
1774822673.442459,0.012665033340454102,2026-03-29T22:17:53.442,2026-03-29T18:17:53.442,-33470.055,-46409.265,-85028.4,-50300.28,-12799.845,-18051.48,6417.585,-1984.9499999999998,7.5481759714069465,2.764686431911463,-0.5653046550285642,-0.8702260576006501,1.366840708948333,2.956563318240198,-8.142740788699363,-0.5904459861367684,0.32812416,0.134826315,0.916684665,-35.098,13.093079999999999,-17.27432,70.0
1774822673.4424782,1.9073486328125e-05,2026-03-29T22:17:53.442,2026-03-29T18:17:53.442,-33458.4,-46424.34,-85060.305,-50339.744999999995,-12847.68,-18110.565,6383.34,-1974.375,6.674896803184353,-0.41995365954094016,-4.876463788580021,-6.1245296079558935,-5.243278397650273,-3.022934035690729,-5.211212340533654,-0.15925464167195627,0.32812416,0.134826315,0.916684665,-35.098,13.093079999999999,-17.27432,70.0
1774822673.4425237,4.553794860839844e-05,2026-03-29T22:17:53.442,2026-03-29T18:17:53.442,-33469.784999999996,-46422.9,-85047.56999999999,-50325.75,-12839.76,-18118.395,6362.865,-1958.895,2.692245504466826,-3.4303779286387885,-7.033335645190819,-8.762751116888078,-9.714609696763244,-8.011480680160398,-0.42034573917484847,0.08847136225750714,0.32812416,0.134826315,0.916684665,-35.098,13.093079999999999,-17.27432,70.0
1774822673.4425333,9.5367431640625e-06,2026-03-29T22:17:53.442,2026-03-29T18:17:53.442,-33496.02,-46409.04,-85002.48,-50276.835,-12796.289999999999,-18086.355,6375.42,-1946.61,-2.533551044500838,-4.909268938323475,-6.174104328397889,-7.77203842673412,-10.261579926978927,-9.979154568453026,4.048907647869015,0.035330080894502895,0.32812416,0.134826315,0.916684665,-35.098,13.093079999999999,-17.27432,70.0
1774822673.4440088,0.0014755725860595703,2026-03-29T22:17:53.444,2026-03-29T18:17:53.444,-33501.195,-46404.494999999995,-84996.94499999999,-50266.08,-12777.525,-18057.015,6412.634999999999,-1927.395,-6.5608023898917835,-4.190431133680442,-2.7385199063584285,-3.6409504352986652,-6.671538722310251,-7.992331984986066,6.409111117473234,-0.17753400150472298,0.32812416,0.134826315,0.916684665,-35.098,13.093079999999999,-17.27432,70.0
1774822673.4440215,1.2636184692382812e-05,2026-03-29T22:17:53.444,2026-03-29T18:17:53.444,-33488.369999999995,-46414.665,-85021.2,-50287.365,-12788.369999999999,-18052.829999999998,6441.66,-1911.06,-7.526720828758041,-1.6103312506228649,1.7461555786850107,1.8728581148981118,-0.39279139290408854,-2.665448027905847,5.972956299244095,-0.27476685968243997,0.32812416,0.134826315,0.916684665,-35.098,13.093079999999999,-17.27432,70.0
1774822673.4440348,1.33514404296875e-05,2026-03-29T22:17:53.444,2026-03-29T18:17:53.444,-33483.465,-46412.955,-85015.98,-50276.025,-12775.365,-18049.14,6425.235,-1896.03,-5.016698896250732,1.6461971518923828,5.343748605238404,6.486628206558619,6.039043615471516,3.981940578097989,3.2856967761456692,-0.05897264339524446,0.32812416,0.134826315,0.916684665,-35.098,13.093079999999999,-17.27432,70.0
1774822673.444043,8.106231689453125e-06,2026-03-29T22:17:53.444,2026-03-29T18:17:53.444,-33478.47,-46408.77,-85008.42,-50271.165,-12773.115,-18049.005,6418.304999999999,-1884.87,-0.23965125280844699,4.096716547539531,6.551160541271739,8.335713315293685,10.015423869488092,9.2631007881935,-0.2912158631771976,0.4288084744546774,0.32812416,0.134826315,0.916684665,-35.098,13.093079999999999,-17.27432,70.0
1774822673.4545677,0.010524749755859375,2026-03-29T22:17:53.454,2026-03-29T18:17:53.454,-33466.95,-46412.145,-85013.28,-50274.134999999995,-12765.869999999999,-18024.84,6420.014999999999,-1868.895,4.5629391425705315,4.649499727414047,4.935192609368212,6.728266846256698,9.91037726613835,10.903844695943663,-3.2731503157381643,0.9065764226725779,0.32812416,0.134826315,0.916684665,-35.098,13.093079999999999,-17.27432,70.0
1774822673.454588,2.0265579223632812e-05,2026-03-29T22:17:53.454,2026-03-29T18:17:53.454,-33447.6,-46406.25,-85031.37,-50299.29,-12786.615,-18035.145,6412.95,-1847.97,7.181445144310269,3.103883738651782,1.290482554793588,2.4062342561623136,5.752346498092116,8.034121797418829,-4.668005700185702,1.015510465319484,0.32812416,0.134826315,0.916684665,-35.098,13.093079999999999,-17.27432,70.0
1774822673.454605,1.71661376953125e-05,2026-03-29T22:17:53.454,2026-03-29T18:17:53.454,-33443.415,-46411.65,-85048.605,-50322.555,-12820.68,-18081.585,6396.3,-1834.5149999999999,6.464847706751693,0.22702157449942664,-2.74103067018172,-2.7871243856772763,-0.7683140081956212,1.653591747157056,-4.260061952657059,0.5554437459647166,0.31445232,0.11059542,0.9117408300000001,-37.20388,12.253779999999999,-21.57764,70.0
1774822673.4546132,8.106231689453125e-06,2026-03-29T22:17:53.454,2026-03-29T18:17:53.454,-33481.215,-46413.63,-85026.95999999999,-50303.744999999995,-12810.824999999999,-18082.53,6396.57,-1823.5349999999999,2.828347862201433,-2.625014994842875,-5.4107947869277195,-6.688716834601718,-6.974249032920091,-5.678866253713303,-2.5113912807357845,-0.35267671987780524,0.31445232,0.11059542,0.9117408300000001,-37.20388,12.253779999999999,-21.57764,70.0
1774822673.458916,0.0043027400970458984,2026-03-29T22:17:53.458,2026-03-29T18:17:53.458,-33498.54,-46424.115,-85023.81,-50288.354999999996,-12785.49,-18048.87,6414.705,-1810.845,-1.9822962588899293,-4.1552801689037375,-5.630238743191571,-7.71796341917356,-10.296454285597518,-10.859577534361986,-0.21964964664983708,-1.2857088349608001,0.31445232,0.11059542,0.9117408300000001,-37.20388,12.253779999999999,-21.57764,70.0
1774822673.4589436,2.765655517578125e-05,2026-03-29T22:17:53.458,2026-03-29T18:17:53.458,-33508.44,-46443.645,-85047.25499999999,-50307.21,-12806.01,-18070.695,6392.384999999999,-1795.635,-5.737647315659212,-3.7296647635905016,-3.42380411005442,-5.523918172990724,-9.345151770525428,-11.56334127611588,1.848292540003201,-1.724780293020704,0.31445232,0.11059542,0.9117408300000001,-37.20388,12.253779999999999,-21.57764,70.0
1774822673.4623272,0.003383636474609375,2026-03-29T22:17:53.462,2026-03-29T18:17:53.462,-33514.604999999996,-46440.45,-85035.23999999999,-50280.795,-12781.035,-18047.835,6386.94,-1773.09,-6.767811502763335,-1.649038748421037,0.1246383296070941,-1.1091854377761634,-4.5067692978592175,-7.307162714040153,3.1777863878311376,-1.3444097679779072,0.31445232,0.11059542,0.9117408300000001,-37.20388,12.253779999999999,-21.57764,70.0
1774822673.4623537,2.6464462280273438e-05,2026-03-29T22:17:53.462,2026-03-29T18:17:53.462,-33486.345,-46417.32,-85029.39,-50287.32,-12804.164999999999,-18088.38,6375.78,-1759.6799999999998,-4.709413804233998,1.0318110730807049,3.394240308693477,3.6169947293780598,2.1971367935044412,0.24127921227508708,3.542441365110086,-0.22334431838493202,0.31445232,0.11059542,0.9117408300000001,-37.20388,12.253779999999999,-21.57764,70.0
1774822673.4662144,0.0038607120513916016,2026-03-29T22:17:53.466,2026-03-29T18:17:53.466,-33497.28,-46416.06,-85003.02,-50246.729999999996,-12743.82,-18016.02,6403.23,-1747.26,-0.6205737319100957,3.0377474975463574,4.970646377409131,6.662816179527704,7.947342428217443,7.898452175029086,2.9321936499275165,1.1505130485395436,0.31445232,0.11059542,0.9117408300000001,-37.20388,12.253779999999999,-21.57764,70.0
1774822673.466246,3.147125244140625e-05,2026-03-29T22:17:53.466,2026-03-29T18:17:53.466,-33502.59,-46427.58,-85024.26,-50276.34,-12770.82,-18035.864999999998,6398.235,-1735.02,3.5635631794607696,3.4897517970430108,4.26840079492803,6.801145689902632,10.318619063654387,12.312442811216158,1.4882641950035764,2.101142662606251,0.31445232,0.11059542,0.9117408300000001,-37.20388,12.253779999999999,-21.57764,70.0
1774822673.470278,0.004032135009765625,2026-03-29T22:17:53.470,2026-03-29T18:17:53.470,-33488.82,-46417.905,-85028.04,-50282.685,-12783.779999999999,-18061.875,6387.344999999999,-1725.84,5.9539999376639114,2.3019358913175605,1.7536425079896234,4.0763650041845985,8.319668718293576,11.450878996274776,-0.4941223260397163,2.106887110065013,0.31445232,0.11059542,0.9117408300000001,-37.20388,12.253779999999999,-21.57764,70.0
1774822673.4703116,3.361701965332031e-05,2026-03-29T22:17:53.470,2026-03-29T18:17:53.470,-33458.805,-46401.03,-85021.92,-50270.85,-12765.015,-18043.065,6423.66,-1719.3149999999998,5.565976792523014,0.17411237635123478,-1.3213295892080585,-0.24511524173772656,2.827131265913468,5.559172131898632,-2.5301978469344504,1.086769787315255,0.31445232,0.11059542,0.9117408300000001,-37.20388,12.253779999999999,-21.57764,70.0
1774822673.476663,0.006351470947265625,2026-03-29T22:17:53.476,2026-03-29T18:17:53.476,-33442.335,-46393.38,-85001.67,-50256.0,-12744.765,-18012.465,6467.849999999999,-1712.7,2.7200261216579893,-1.7988719077840776,-3.532414695263846,-4.253637450785393,-3.7864870978506024,-2.8727113776827022,-3.974830823337363,-0.5262919637257482,0.32928382500000003,0.103576395,0.90905529,-34.518119999999996,17.71686,-25.438419999999997,70.0
1774822673.4766853,2.2172927856445312e-05,2026-03-29T22:17:53.476,2026-03-29T18:17:53.476,-33454.89,-46402.604999999996,-85009.36499999999,-50290.83,-12792.105,-18063.585,6428.384999999999,-1709.1899999999998,-1.17421556743098,-2.689949726821427,-3.9492390354212294,-6.2446231473146705,-8.679866816910934,-10.16150706069134,-4.192470958437955,-1.975809376920299,0.32928382500000003,0.103576395,0.90905529,-34.518119999999996,17.71686,-25.438419999999997,70.0
1774822673.4767323,4.696846008300781e-05,2026-03-29T22:17:53.476,2026-03-29T18:17:53.476,-33455.205,-46404.99,-85031.415,-50334.93,-12844.17,-18117.855,6383.925,-1704.0149999999999,-4.317920115288281,-2.1854668232862875,-2.538314517992698,-5.458042135606754,-9.779879069437388,-13.057078893436998,-2.8454091806606323,-2.548374130303047,0.32928382500000003,0.103576395,0.90905529,-34.518119999999996,17.71686,-25.438419999999997,70.0
1774822673.4767413,9.059906005859375e-06,2026-03-29T22:17:53.476,2026-03-29T18:17:53.476,-33462.765,-46409.67,-85032.855,-50325.479999999996,-12826.935,-18085.005,6405.66,-1698.3899999999999,-5.3580846139529115,-0.6948760896561054,-0.12320951538414544,-2.381182317927757,-6.682238496277531,-10.217550648076093,-0.16499513629833187,-1.9335365728325395,0.32928382500000003,0.103576395,0.90905529,-34.518119999999996,17.71686,-25.438419999999997,70.0
1774822673.4822645,0.005523204803466797,2026-03-29T22:17:53.482,2026-03-29T18:17:53.482,-33449.445,-46409.534999999996,-85048.47,-50338.35,-12844.935,-18103.905,6411.014999999999,-1686.0149999999999,-3.9681883824626527,0.9143056402181619,2.0621868479182432,1.5139000416484925,-0.8131346037122273,-2.8514469960185114,2.976548632728858,-0.39169354508985843,0.32928382500000003,0.103576395,0.90905529,-34.518119999999996,17.71686,-25.438419999999997,70.0
1774822673.4822896,2.5033950805664062e-05,2026-03-29T22:17:53.482,2026-03-29T18:17:53.482,-33450.84,-46405.979999999996,-85048.11,-50334.705,-12845.205,-18118.44,6406.065,-1674.09,-0.926651542975762,1.8007012450170026,2.995851221299831,4.46845221161319,5.221513815763501,5.789378397096255,5.310078237552624,1.36052617627895,0.32928382500000003,0.103576395,0.90905529,-34.518119999999996,17.71686,-25.438419999999997,70.0
1774822673.49282,0.010530471801757812,2026-03-29T22:17:53.492,2026-03-29T18:17:53.492,-33473.565,-46387.35,-84995.955,-50281.695,-12785.58,-18053.954999999998,6424.65,-1664.145,2.3082787048789934,1.5890113660394856,2.3544781048431735,5.242224999082888,8.805108738144654,11.857235403097638,5.686422587959739,2.494531550248898,0.32928382500000003,0.103576395,0.90905529,-34.518119999999996,17.71686,-25.438419999999997,70.0
1774822673.492855,3.504753112792969e-05,2026-03-29T22:17:53.492,2026-03-29T18:17:53.492,-33477.885,-46380.42,-84969.135,-50249.43,-12750.48,-18012.87,6440.085,-1657.08,4.298650661851972,0.5353617981431111,0.6289888988332144,3.652050510545941,8.46760186008308,12.646408493905616,3.6529073463533304,2.47308722369978,0.32928382500000003,0.103576395,0.90905529,-34.518119999999996,17.71686,-25.438419999999997,70.0
1774822673.4928846,2.956390380859375e-05,2026-03-29T22:17:53.492,2026-03-29T18:17:53.492,-33464.295,-46386.494999999995,-84986.145,-50263.064999999995,-12764.609999999999,-18031.77,6425.955,-1654.155,4.265098144328083,-0.6583592312502382,-1.1763029329957206,0.6004933455586082,4.507766232488575,7.824624812162553,-0.2044901607460017,1.3111828904429306,0.32928382500000003,0.103576395,0.90905529,-34.518119999999996,17.71686,-25.438419999999997,70.0
1774822673.4928963,1.1682510375976562e-05,2026-03-29T22:17:53.492,2026-03-29T18:17:53.492,-33462.315,-46403.909999999996,-85013.19,-50285.07,-12782.295,-18051.885,6405.21,-1648.0349999999999,2.3806398455010584,-1.266515645125676,-2.0945332418592417,-2.4036413674302777,-1.1935683159134247,-0.41419730266799304,-4.37601450442449,-0.43501300340061694,0.32928382500000003,0.103576395,0.90905529,-34.518119999999996,17.71686,-25.438419999999997,70.0
1774822673.4929104,1.4066696166992188e-05,2026-03-29T22:17:53.492,2026-03-29T18:17:53.492,-33466.905,-46416.284999999996,-85030.92,-50301.314999999995,-12804.074999999999,-18072.945,6402.42,-1643.58,-0.383783451656141,-0.9577911164958552,-1.705853891245899,-3.9888617434296196,-6.067953370532384,-8.352372214126188,-7.01663496121717,-1.9430973686003477,0.331969365,0.092834235,0.91235118,-38.72988,19.18182,-27.7732,70.0
1774822673.49292,9.5367431640625e-06,2026-03-29T22:17:53.492,2026-03-29T18:17:53.492,-33452.28,-46413.99,-85035.915,-50299.2,-12797.865,-18062.01,6413.355,-1643.58,-2.7546789429527414,0.024206950968141096,-0.3397610885203215,-3.56262777479901,-8.03506780244004,-12.445665953371849,-6.779474001183197,-2.5233808316813966,0.331969365,0.092834235,0.91235118,-38.72988,19.18182,-27.7732,70.0
1774822673.4994447,0.006524801254272461,2026-03-29T22:17:53.499,2026-03-29T18:17:53.499,-33449.04,-46418.715,-85044.42,-50305.365,-12797.234999999999,-18058.59,6424.11,-1640.7,-3.7410756502618097,1.0165757421436488,1.132446985074041,-1.5433606652056289,-6.412288883731001,-10.930788935803921,-3.5090107982878638,-1.942970055813068,0.331969365,0.092834235,0.91235118,-38.72988,19.18182,-27.7732,70.0
1774822673.4994748,3.0040740966796875e-05,2026-03-29T22:17:53.499,2026-03-29T18:17:53.499,-33458.49,-46410.255,-85035.555,-50314.95,-12816.269999999999,-18083.61,6437.115,-1633.995,-3.041160028799174,1.3387635827632218,1.7999945167536326,0.9154901492413609,-2.148971486062641,-4.601882443485765,1.5652984306433562,-0.5186302558123426,0.331969365,0.092834235,0.91235118,-38.72988,19.18182,-27.7732,70.0
1774822673.5019815,0.002506732940673828,2026-03-29T22:17:53.501,2026-03-29T18:17:53.501,-33474.15,-46413.18,-85029.03,-50312.475,-12813.164999999999,-18077.399999999998,6446.16,-1626.75,-1.1079672242195435,0.7104337360134305,1.2359522794190758,2.5519983202256658,2.6954280049494774,3.5943069919980384,6.281201605878271,1.0581220689942967,0.331969365,0.092834235,0.91235118,-38.72988,19.18182,-27.7732,70.0
1774822673.5020003,1.8835067749023438e-05,2026-03-29T22:17:53.502,2026-03-29T18:17:53.502,-33480.854999999996,-46433.159999999996,-85053.015,-50326.424999999996,-12822.84,-18090.135,6433.335,-1621.62,1.120360092746213,-0.5568329768167108,-0.2469504695852086,2.6427793787603653,5.9527640550672025,9.941768445955331,8.480356583080425,2.066386119331576,0.331969365,0.092834235,0.91235118,-38.72988,19.18182,-27.7732,70.0
1774822673.5058076,0.0038073062896728516,2026-03-29T22:17:53.505,2026-03-29T18:17:53.505,-33456.645,-46437.705,-85064.48999999999,-50324.49,-12807.539999999999,-18077.535,6407.594999999999,-1612.845,2.6724228030123838,-1.7129612585737055,-1.7561807873154156,1.338102075580334,6.336333754089561,11.661663358947953,7.01580750600056,2.094898852575744,0.331969365,0.092834235,0.91235118,-38.72988,19.18182,-27.7732,70.0
1774822673.5058396,3.1948089599609375e-05,2026-03-29T22:17:53.505,2026-03-29T18:17:53.505,-33462.945,-46437.345,-85058.37,-50323.905,-12808.125,-18069.3,6370.425,-1607.6699999999998,2.961063838721702,-1.9932374272559605,-2.3185327095107136,-0.4781290016837579,3.957414157931246,8.147458873230912,2.3508540114480305,1.2107773665458794,0.331969365,0.092834235,0.91235118,-38.72988,19.18182,-27.7732,70.0
1774822673.5100968,0.0042572021484375,2026-03-29T22:17:53.510,2026-03-29T18:17:53.510,-33471.63,-46419.165,-85048.73999999999,-50347.305,-12861.72,-18134.145,6344.865,-1603.125,1.9901833128671487,-1.0800656853232742,-1.4516276659640168,-1.7142238073649927,0.15536956580651437,1.1705199470415677,-3.563461263483976,-0.11173443407796758,0.331969365,0.092834235,0.91235118,-38.72988,19.18182,-27.7732,70.0
1774822673.5101159,1.9073486328125e-05,2026-03-29T22:17:53.510,2026-03-29T18:17:53.510,-33485.04,-46396.305,-85003.155,-50294.07,-12810.195,-18090.315,6400.485,-1596.24,0.2874467615885298,0.6627170628166498,0.5112074705451509,-1.6895415444503346,-3.2309195938009947,-6.009034713499171,-8.115154676107574,-1.2489740384072656,0.331969365,0.092834235,0.91235118,-38.72988,19.18182,-27.7732,70.0
1774822673.5138984,0.003782510757446289,2026-03-29T22:17:53.513,2026-03-29T18:17:53.513,-33467.715,-46405.395,-85028.22,-50317.47,-12830.085,-18103.005,6413.849999999999,-1587.915,-1.374421523270313,2.333150093244411,2.5411088199535277,-0.5067578921758974,-4.7617273255620125,-10.18020029573842,-9.206244826913192,-1.730709644966475,0.302794635,0.07989481500000001,0.9033180000000001,-41.125699999999995,11.41448,-26.506619999999998,70.0
1774822673.5139115,1.3113021850585938e-05,2026-03-29T22:17:53.513,2026-03-29T18:17:53.513,-33461.729999999996,-46402.515,-85024.8,-50306.534999999996,-12811.41,-18075.105,6404.625,-1578.2849999999999,-2.323311819266152,2.957138200362147,3.4414777761854194,1.0258794964327722,-4.020788797294433,-9.634583499176848,-6.237120590012773,-1.436983888052365,0.302794635,0.07989481500000001,0.9033180000000001,-41.125699999999995,11.41448,-26.506619999999998,70.0
1774822673.5219648,0.008053302764892578,2026-03-29T22:17:53.521,2026-03-29T18:17:53.521,-33470.325,-46402.11,-85011.25499999999,-50287.905,-12786.345,-18043.065,6416.955,-1563.705,-2.2480401159432186,2.0369780870855716,2.517363351376075,1.8782157429256552,-1.6875597818948362,-4.868758250459189,-0.4308244369143914,-0.605239114956293,0.302794635,0.07989481500000001,0.9033180000000001,-41.125699999999995,11.41448,-26.506619999999998,70.0
1774822673.5219955,3.075599670410156e-05,2026-03-29T22:17:53.521,2026-03-29T18:17:53.521,-33478.47,-46406.295,-85011.75,-50288.58,-12789.404999999999,-18056.34,6410.16,-1545.165,-1.279067769819246,-0.11951236746228508,0.02381686348770017,1.4173430985490922,0.9261107526205283,1.7546493311755145,5.675851375331035,0.3322516259086432,0.302794635,0.07989481500000001,0.9033180000000001,-41.125699999999995,11.41448,-26.506619999999998,70.0
1774822673.522028,3.24249267578125e-05,2026-03-29T22:17:53.522,2026-03-29T18:17:53.522,-33475.815,-46409.759999999995,-85025.25,-50304.24,-12807.81,-18074.969999999998,6411.33,-1524.87,0.11638769179583773,-2.4893348239198394,-2.873623112578107,-0.1893469940744508,2.59269840267259,7.180040081475227,9.359809302383377,0.9776596313180361,0.302794635,0.07989481500000001,0.9033180000000001,-41.125699999999995,11.41448,-26.506619999999998,70.0
1774822673.522046,1.811981201171875e-05,2026-03-29T22:17:53.522,2026-03-29T18:17:53.522,-33460.244999999995,-46410.165,-85032.405,-50311.35,-12815.595,-18079.469999999998,6409.98,-1510.065,1.3554211302088195,-3.8261923237409112,-4.645372185352828,-2.0266859428053485,2.7535198922807047,9.081418866480844,8.94742663602553,1.1400710761364057,0.302794635,0.07989481500000001,0.9033180000000001,-41.125699999999995,11.41448,-26.506619999999998,70.0
1774822673.5258992,0.0038530826568603516,2026-03-29T22:17:53.525,2026-03-29T18:17:53.525,-33454.845,-46406.655,-85020.705,-50295.42,-12798.18,-18055.62,6403.634999999999,-1501.5149999999999,1.9738105725675452,-3.3149187487229343,-4.195111128670822,-2.9299854662384015,1.6879321571585577,6.865206343811633,4.588087295623921,0.8744015208880492,0.302794635,0.07989481500000001,0.9033180000000001,-41.125699999999995,11.41448,-26.506619999999998,70.0
1774822673.525909,9.775161743164062e-06,2026-03-29T22:17:53.525,2026-03-29T18:17:53.525,-33465.375,-46409.31,-85024.305,-50297.895,-12801.33,-18067.725,6406.695,-1483.02,1.7844750544258927,-1.045428010647654,-1.4963071151387706,-2.165792110074396,0.22637266068397158,1.8179437801971898,-1.797722997613382,0.3919549506602826,0.302794635,0.07989481500000001,0.9033180000000001,-41.125699999999995,11.41448,-26.506619999999998,70.0
1774822673.5301075,0.004198551177978516,2026-03-29T22:17:53.530,2026-03-29T18:17:53.530,-33488.729999999996,-46419.84,-85030.065,-50302.395,-12807.99,-18085.14,6400.215,-1464.48,0.9154810735242676,1.9613821104212636,2.2883249940688537,0.0853930003180732,-0.7880402282935423,-3.6119245579542745,-7.378705057268113,-0.08377705052482334,0.302794635,0.07989481500000001,0.9033180000000001,-41.125699999999995,11.41448,-26.506619999999998,70.0
1774822673.5301282,2.0742416381835938e-05,2026-03-29T22:17:53.530,2026-03-29T18:17:53.530,-33494.94,-46413.585,-85016.34,-50285.79,-12789.045,-18073.44,6383.07,-1445.85,-0.26627465932369426,4.2196981031713285,5.310352773920816,2.735178060249345,-0.9673761490820173,-7.006110184954795,-9.68935900057777,-0.4246438591438858,0.302794635,0.07989481500000001,0.9033180000000001,-41.125699999999995,11.41448,-26.506619999999998,70.0
1774822673.541588,0.011459827423095703,2026-03-29T22:17:53.541,2026-03-29T18:17:53.541,-33471.315,-46403.145,-85013.64,-50280.165,-12775.68,-18053.82,6393.465,-1425.69,-1.3033140032952761,4.521268692036751,5.943976002684702,4.3158466323450675,-0.5215135477019762,-7.058671215871354,-7.737639441005966,-0.6150023517131684,0.268248825,0.07434063,0.890317545,-41.522459999999995,2.53316,-32.21386,70.0
1774822673.541618,3.0040740966796875e-05,2026-03-29T22:17:53.541,2026-03-29T18:17:53.541,-33455.744999999995,-46395.72,-85012.11,-50283.0,-12776.22,-18040.545,6436.3949999999995,-1406.79,-1.8115860390287946,2.5800429189312095,3.65092678187308,3.7744193690133767,-0.025571391516505212,-4.060914459569615,-2.43776634181382,-0.6902801599658166,0.268248825,0.07434063,0.890317545,-41.522459999999995,2.53316,-32.21386,70.0
1774822673.5416393,2.1219253540039062e-05,2026-03-29T22:17:53.541,2026-03-29T18:17:53.541,-33454.845,-46398.645,-85017.375,-50291.729999999996,-12792.689999999999,-18061.065,6425.91,-1390.77,-1.6093241414658317,-0.7640670431592674,-0.6546215339545024,1.109268898655251,0.016562528485023358,0.38076445714244617,3.823679596774731,-0.6592896150497116,0.268248825,0.07434063,0.890317545,-41.522459999999995,2.53316,-32.21386,70.0
1774822673.54165,1.0728836059570312e-05,2026-03-29T22:17:53.541,2026-03-29T18:17:53.541,-33470.729999999996,-46416.465,-85037.48999999999,-50313.78,-12814.875,-18081.54,6408.764999999999,-1379.25,-0.7756994935718918,-3.911969937124723,-4.966246844913304,-2.5166903275325927,-0.47024959419474405,4.192981779642294,8.2799066845938,-0.4772936088783284,0.268248825,0.07434063,0.890317545,-41.522459999999995,2.53316,-32.21386,70.0
1774822673.5550468,0.013396739959716797,2026-03-29T22:17:53.555,2026-03-29T18:17:53.555,-33464.88,-46408.095,-85005.405,-50265.54,-12749.58,-18004.545,6407.955,-1374.615,0.3759777932491183,-5.2812029755575205,-7.132077944974568,-5.290869621631192,-1.0779607444144272,5.805009318209092,9.026787464780167,-0.09445567066017509,0.268248825,0.07434063,0.890317545,-41.522459999999995,2.53316,-32.21386,70.0
1774822673.5550773,3.0517578125e-05,2026-03-29T22:17:53.555,2026-03-29T18:17:53.555,-33458.715,-46416.555,-85015.8,-50271.75,-12744.045,-17979.75,6425.594999999999,-1365.3899999999999,1.4043740228142285,-4.109670277608527,-5.936869377746098,-5.663512755192185,-1.1969011605769069,4.784468277284272,5.849077692061742,0.4560131761982379,0.268248825,0.07434063,0.890317545,-41.522459999999995,2.53316,-32.21386,70.0
1774822673.5551062,2.8848648071289062e-05,2026-03-29T22:17:53.555,2026-03-29T18:17:53.555,-33448.994999999995,-46418.58,-85059.36,-50346.494999999995,-12841.425,-18089.37,6398.955,-1343.97,1.8970613730305264,-0.8758209565386676,-1.7720243505693432,-3.1961367200169066,-0.4562303822954201,1.887928658186194,0.2656842363812216,1.0030414826704546,0.268248825,0.07434063,0.890317545,-41.522459999999995,2.53316,-32.21386,70.0
1774822673.5551188,1.2636184692382812e-05,2026-03-29T22:17:53.555,2026-03-29T18:17:53.555,-33453.18,-46392.75,-85013.325,-50301.405,-12811.769999999999,-18087.3,6409.44,-1318.2749999999999,1.6297256253801853,2.894628745380203,3.4716218789382225,1.1126329531278352,0.9583177475872219,-1.4245004337417617,-5.204024378824979,1.276526733647152,0.268248825,0.07434063,0.890317545,-41.522459999999995,2.53316,-32.21386,70.0
1774822673.5551329,1.4066696166992188e-05,2026-03-29T22:17:53.555,2026-03-29T18:17:53.555,-33452.415,-46386.81,-84994.965,-50278.365,-12789.9,-18073.934999999998,6412.005,-1304.46,0.6693587727350115,5.358675524811326,7.273750448057505,5.233425755447745,2.3263189700404223,-3.719696298680877,-8.19534191494732,1.0417547738141983,0.268248825,0.07434063,0.890317545,-41.522459999999995,2.53316,-32.21386,70.0
1774822673.555144,1.1205673217773438e-05,2026-03-29T22:17:53.555,2026-03-29T18:17:53.555,-33458.22,-46402.515,-85008.42,-50286.284999999996,-12797.369999999999,-18081.765,6381.585,-1298.07,-0.6269961403573342,5.268935786782622,7.712428676721919,7.079288204334251,2.771591814468492,-4.202335279030212,-7.537178487211185,0.26205025126024245,0.268248825,0.07434063,0.890317545,-41.522459999999995,2.53316,-32.21386,70.0
1774822673.5551572,1.3113021850585938e-05,2026-03-29T22:17:53.555,2026-03-29T18:17:53.555,-33477.795,-46426.229999999996,-85033.665,-50298.795,-12805.47,-18085.274999999998,6382.9349999999995,-1280.475,-1.733151030688765,2.612114527637942,4.444882051560751,5.572024676741535,1.7954280292848244,-2.9498439497383155,-3.710739218648325,-0.8130378538034265,0.27819753,0.06152328,0.887876145,-46.25306,3.6166199999999997,-33.44992,70.0
1774822673.555167,9.775161743164062e-06,2026-03-29T22:17:53.555,2026-03-29T18:17:53.555,-33478.335,-46428.84,-85031.055,-50298.345,-12808.619999999999,-18089.594999999998,6402.6449999999995,-1272.0149999999999,-2.1608243009342725,-1.356557763349558,-1.0631394774251344,1.2531020309201875,-0.34960051201329173,-0.7294857412409265,1.4519490909833517,-1.7103993151658727,0.27819753,0.06152328,0.887876145,-46.25306,3.6166199999999997,-33.44992,70.0
1774822673.560792,0.005625009536743164,2026-03-29T22:17:53.560,2026-03-29T18:17:53.560,-33468.345,-46430.64,-85033.125,-50305.59,-12810.33,-18084.239999999998,6414.884999999999,-1264.5,-1.674737910244299,-4.713448570873626,-6.202073559197373,-3.900711480690345,-2.6896989235878705,1.4444535901303277,5.65459096186364,-1.9435150568549908,0.27819753,0.06152328,0.887876145,-46.25306,3.6166199999999997,-33.44992,70.0
