unix_time_s,dt_s,UTC,LOCAL,EMG1_Raw,EMG2_Raw,EMG3_Raw,EMG4_Raw,EMG5_Raw,EMG6_Raw,EMG7_Raw,EMG8_Raw,EMG1_Filtered,EMG2_Filtered,EMG3_Filtered,EMG4_Filtered,EMG5_Filtered,EMG6_Filtered,EMG7_Filtered,EMG8_Filtered,Accel1_Raw,Accel2_Raw,Accel3_Raw,Gyro1_Raw,Gyro2_Raw,Gyro3_Raw,Battery
1774823225.3955424,,2026-03-29T22:27:05.395,2026-03-29T18:27:05.395,-28556.28,-42671.25,-80425.845,-50022.18,-10641.779999999999,-17378.73,6056.235,-55004.354999999996,1.876753027476102,2.5324997649033243,-0.9468495085981267,-3.2535844186517315,-2.1779754421594966,-1.5334448451109886,0.47787053187782946,-1.1233786149941483,-0.106139865,-0.9766820700000001,-0.252623865,1.32762,2.9604399999999997,-0.32045999999999997,69.0
1774823225.3955753,3.2901763916015625e-05,2026-03-29T22:27:05.395,2026-03-29T18:27:05.395,-28553.67,-42706.35,-80478.315,-50026.59,-10643.94,-17386.245,6076.8,-54999.72,9.053880220421377,3.9751428077266104,3.3094325606788604,9.245257883736524,8.359277219348913,8.075780082516022,17.775260419393266,1.3792390470453426,-0.106139865,-0.9766820700000001,-0.252623865,1.32762,2.9604399999999997,-0.32045999999999997,69.0
1774823225.3995254,0.0039501190185546875,2026-03-29T22:27:05.399,2026-03-29T18:27:05.399,-28574.19,-42726.24,-80503.37999999999,-50069.655,-10688.355,-17417.52,6077.205,-55013.805,11.837205847102162,3.2260614899584548,5.92711250014916,17.33662564881047,14.89157704981616,14.022124230838216,26.713081759213267,3.338865358483214,-0.106139865,-0.9766820700000001,-0.252623865,1.32762,2.9604399999999997,-0.32045999999999997,69.0
1774823225.3995492,2.384185791015625e-05,2026-03-29T22:27:05.399,2026-03-29T18:27:05.399,-28526.535,-42652.17,-80449.605,-50056.515,-10665.0,-17382.105,6064.695,-55017.585,8.651907126729133,0.08234383961661704,5.4172069622824095,17.23673358064715,14.481704286853958,13.730883800676295,23.3814514329212,3.7787805461480355,-0.106139865,-0.9766820700000001,-0.252623865,1.32762,2.9604399999999997,-0.32045999999999997,69.0
1774823225.4033427,0.003793478012084961,2026-03-29T22:27:05.403,2026-03-29T18:27:05.403,-28490.445,-42605.505,-80432.595,-50066.145,-10654.02,-17356.364999999998,6097.005,-55004.445,0.9252631761031618,-4.145540170022625,1.940368346419373,9.090677963569181,7.480376037301582,7.441372345206613,9.571346726719932,2.4103122044876932,-0.106139865,-0.9766820700000001,-0.252623865,1.32762,2.9604399999999997,-0.32045999999999997,69.0
1774823225.403364,2.1219253540039062e-05,2026-03-29T22:27:05.403,2026-03-29T18:27:05.403,-28508.265,-42641.369999999995,-80476.73999999999,-50120.505,-10702.845,-17408.88,6131.115,-54995.715,-7.555520099168812,-7.180331241969461,-2.7370617846968144,-3.1349149354628967,-2.6993504051508803,-1.939054272236484,-8.145001591145922,-0.19084943232665202,-0.106139865,-0.9766820700000001,-0.252623865,1.32762,2.9604399999999997,-0.32045999999999997,69.0
1774823225.411678,0.008314132690429688,2026-03-29T22:27:05.411,2026-03-29T18:27:05.411,-28524.42,-42663.78,-80480.025,-50127.57,-10717.199999999999,-17413.065,6204.6449999999995,-54980.729999999996,-12.50431008811485,-6.984052606495997,-6.150083956311212,-13.60370753012717,-11.258359526196323,-10.189417631424753,-21.553115749714415,-2.8209394673204375,-0.106139865,-0.9766820700000001,-0.252623865,1.32762,2.9604399999999997,-0.32045999999999997,69.0
1774823225.4117064,2.8371810913085938e-05,2026-03-29T22:27:05.411,2026-03-29T18:27:05.411,-28542.51,-42668.955,-80466.84,-50116.409999999996,-10725.21,-17425.755,6066.135,-55000.17,-11.298331292046853,-2.99103256980564,-6.435780234763658,-17.437280665910755,-14.310202670541997,-13.703028119625623,-24.651529065716353,-4.203544418639833,-0.106139865,-0.9766820700000001,-0.252623865,1.32762,2.9604399999999997,-0.32045999999999997,69.0
1774823225.411733,2.6464462280273438e-05,2026-03-29T22:27:05.411,2026-03-29T18:27:05.411,-28580.67,-42712.335,-80501.58,-50140.89,-10758.465,-17476.29,5913.405,-55023.119999999995,-4.351005012001827,3.3391019365927894,-3.340419231720037,-13.030764258662074,-10.685681755065183,-11.096002653889363,-16.394432339673827,-3.6088591583019056,-0.11035128,-0.97692621,-0.24639829500000002,6.45498,3.92182,-3.6013599999999997,69.0
1774823225.4117448,1.1920928955078125e-05,2026-03-29T22:27:05.411,2026-03-29T18:27:05.411,-28557.539999999997,-42674.85,-80447.22,-50078.744999999995,-10709.73,-17450.28,5909.264999999999,-55032.57,5.01775502932189,9.03690678984712,1.6086979691818417,-2.7383101360861746,-2.387349373000539,-3.764367940529144,-1.042782377225334,-1.2363850473268696,-0.11035128,-0.97692621,-0.24639829500000002,6.45498,3.92182,-3.6013599999999997,69.0
1774823225.4158106,0.004065752029418945,2026-03-29T22:27:05.415,2026-03-29T18:27:05.415,-28506.195,-42611.895,-80372.34,-49998.104999999996,-10621.17,-17347.86,6118.92,-55011.915,12.180471239830846,11.035314464539374,5.872038546668657,8.37177369446415,6.4873792854430405,4.841625669143782,13.99731990603894,1.8387070780841712,-0.11035128,-0.97692621,-0.24639829500000002,6.45498,3.92182,-3.6013599999999997,69.0
1774823225.415831,2.0503997802734375e-05,2026-03-29T22:27:05.415,2026-03-29T18:27:05.415,-28538.73,-42666.57,-80417.87999999999,-50030.369999999995,-10635.255,-17328.78,6243.4349999999995,-55006.29,13.494086310714954,7.797709942234661,7.214730818269707,15.039131378594517,11.785902831569935,10.856631792162144,21.766387644032182,4.15072955614091,-0.11035128,-0.97692621,-0.24639829500000002,6.45498,3.92182,-3.6013599999999997,69.0
1774823225.4193215,0.003490447998046875,2026-03-29T22:27:05.419,2026-03-29T18:27:05.419,-28564.469999999998,-42699.42,-80437.815,-50042.025,-10644.93,-17337.69,6221.88,-55002.96,8.14568543224881,0.30456620461083694,4.8834421385623115,14.344951911928511,11.28082527773032,11.767737387187902,19.023689493423273,4.542494388269101,-0.11035128,-0.97692621,-0.24639829500000002,6.45498,3.92182,-3.6013599999999997,69.0
1774823225.4193485,2.6941299438476562e-05,2026-03-29T22:27:05.419,2026-03-29T18:27:05.419,-28594.71,-42719.13,-80468.37,-50076.494999999995,-10679.625,-17371.98,6169.32,-55024.064999999995,-1.3818044330261576,-8.185632061007487,0.021060958344372945,7.0182525727385405,5.630472558757594,7.488257300019158,7.638533840788637,2.744574413527618,-0.11035128,-0.97692621,-0.24639829500000002,6.45498,3.92182,-3.6013599999999997,69.0
1774823225.4248264,0.0054779052734375,2026-03-29T22:27:05.424,2026-03-29T18:27:05.424,-28603.079999999998,-42742.575,-80491.68,-50088.375,-10686.285,-17378.46,6130.71,-55022.805,-10.479591879500287,-13.581188872815716,-4.907096217519666,-3.0833940468125274,-2.106744839936638,0.2670495744869844,-6.517106836076712,-0.45543495616269336,-0.11035128,-0.97692621,-0.24639829500000002,6.45498,3.92182,-3.6013599999999997,69.0
1774823225.4248493,2.288818359375e-05,2026-03-29T22:27:05.424,2026-03-29T18:27:05.424,-28612.44,-42740.235,-80511.25499999999,-50107.365,-10703.835,-17398.17,6070.1849999999995,-55026.945,-14.659365580343598,-12.953593936911636,-7.3828910759619175,-10.996081750649333,-8.10105369331657,-6.473846514801103,-16.56426850749941,-3.554854462208236,-0.11035128,-0.97692621,-0.24639829500000002,6.45498,3.92182,-3.6013599999999997,69.0
1774823225.4276812,0.0028319358825683594,2026-03-29T22:27:05.427,2026-03-29T18:27:05.427,-28577.745,-42654.555,-80430.705,-50056.38,-10671.21,-17382.329999999998,6064.785,-55028.115,-11.772746077867518,-6.099840791154532,-6.139906373309095,-13.118419160510358,-9.665438357245959,-9.779438869899112,-17.98424714378825,-5.042494293865528,-0.11035128,-0.97692621,-0.24639829500000002,6.45498,3.92182,-3.6013599999999997,69.0
1774823225.4277039,2.2649765014648438e-05,2026-03-29T22:27:05.427,2026-03-29T18:27:05.427,-28548.719999999998,-42594.075,-80373.375,-50023.799999999996,-10655.279999999999,-17372.295,6138.135,-55019.43,-3.1025759502474655,4.15447944509892,-1.8202631615152232,-8.88722752648096,-6.491034708500724,-8.485901568465378,-10.698196317604987,-4.137182419892195,-0.11035128,-0.97692621,-0.24639829500000002,6.45498,3.92182,-3.6013599999999997,69.0
1774823225.4312196,0.0035157203674316406,2026-03-29T22:27:05.431,2026-03-29T18:27:05.431,-28569.825,-42638.49,-80406.81,-50041.125,-10667.295,-17382.87,6169.5,-55010.79,7.224488224202281,13.142528128922354,3.3609997512495817,-0.8641551119746989,-0.6218862597339311,-3.6220699649770793,1.1200596815939101,-1.1962807613169828,-0.12274138500000001,-0.962705055,-0.250792815,-0.10682,-2.6857599999999997,-5.81406,69.0
1774823225.4312513,3.170967102050781e-05,2026-03-29T22:27:05.431,2026-03-29T18:27:05.431,-28540.575,-42655.32,-80428.59,-50035.275,-10652.039999999999,-17370.18,6164.73,-54987.93,14.227074849242454,16.52362766123473,6.768139612767887,6.733812488026534,4.750427131086735,2.246981690466298,11.325819333542432,2.4190662323862018,-0.12274138500000001,-0.962705055,-0.250792815,-0.10682,-2.6857599999999997,-5.81406,69.0
1774823225.4355931,0.004341840744018555,2026-03-29T22:27:05.435,2026-03-29T18:27:05.435,-28500.21,-42651.225,-80438.625,-50045.31,-10658.744999999999,-17372.295,6130.304999999999,-54969.704999999994,14.489536576125662,12.403835829307452,6.7090188078860535,10.244443919698373,6.995130215333263,6.353853748126398,14.968083417576342,4.97517669214801,-0.12274138500000001,-0.962705055,-0.250792815,-0.10682,-2.6857599999999997,-5.81406,69.0
1774823225.4356065,1.33514404296875e-05,2026-03-29T22:27:05.435,2026-03-29T18:27:05.435,-28546.379999999997,-42721.244999999995,-80512.83,-50108.58,-10709.1,-17406.135,6061.41,-54989.325,7.828714558146019,2.362102577075075,3.296947301014094,8.35578530628878,5.349079560705381,7.053227162383576,10.71687988236972,5.200307322698359,-0.12274138500000001,-0.962705055,-0.250792815,-0.10682,-2.6857599999999997,-5.81406,69.0
1774823225.4392307,0.0036242008209228516,2026-03-29T22:27:05.439,2026-03-29T18:27:05.439,-28579.68,-42738.39,-80516.7,-50116.455,-10715.85,-17412.57,6093.63,-54999.045,-2.608039274716063,-9.163301507788292,-1.637535398032675,2.59461357373506,1.1655114834832367,4.494666472284837,1.3515043755984206,2.9190365649742898,-0.12274138500000001,-0.962705055,-0.250792815,-0.10682,-2.6857599999999997,-5.81406,69.0
1774823225.4392483,1.7642974853515625e-05,2026-03-29T22:27:05.439,2026-03-29T18:27:05.439,-28582.289999999997,-42702.435,-80424.045,-50020.47,-10628.595,-17335.079999999998,6189.344999999999,-55005.704999999994,-11.858747158475937,-16.884594984892,-5.52985710185291,-3.673620626099883,-2.971156153570404,0.3614161946037001,-7.873369050316954,-0.8310315699305741,-0.12274138500000001,-0.962705055,-0.250792815,-0.10682,-2.6857599999999997,-5.81406,69.0
1774823225.4436903,0.004441976547241211,2026-03-29T22:27:05.443,2026-03-29T18:27:05.443,-28572.3,-42709.68,-80412.66,-49995.63,-10603.125,-17310.42,6167.474999999999,-55008.314999999995,-15.533706450245214,-17.137749951099998,-6.432693736652911,-7.136353018688389,-4.739118504537914,-3.125213124664824,-12.0759808148277,-4.272413300557673,-0.12274138500000001,-0.962705055,-0.250792815,-0.10682,-2.6857599999999997,-5.81406,69.0
1774823225.4437191,2.8848648071289062e-05,2026-03-29T22:27:05.443,2026-03-29T18:27:05.443,-28537.155,-42712.965,-80479.485,-50077.305,-10686.869999999999,-17396.145,6071.085,-54987.299999999996,-11.91210360417681,-9.640443339263438,-4.017901459722747,-6.280209438312998,-3.3509005129763896,-4.379299535804586,-9.299029804753506,-5.734607392759319,-0.12274138500000001,-0.962705055,-0.250792815,-0.10682,-2.6857599999999997,-5.81406,69.0
1774823225.4553652,0.011646032333374023,2026-03-29T22:27:05.455,2026-03-29T18:27:05.455,-28565.19,-42721.695,-80505.81,-50106.915,-10722.285,-17439.21,6051.33,-54992.115,-2.7397552577239708,2.3182686077731143,0.29667852242639314,-2.0740616899267654,0.08219513495208856,-3.1888362545850173,-1.4406882482616983,-4.469031648088274,-0.12274138500000001,-0.962705055,-0.250792815,-0.10682,-2.6857599999999997,-5.81406,69.0
1774823225.4553938,2.86102294921875e-05,2026-03-29T22:27:05.455,2026-03-29T18:27:05.455,-28569.78,-42697.485,-80473.68,-50078.384999999995,-10700.234999999999,-17417.88,6092.19,-55005.659999999996,7.638990059157773,13.36525354026759,4.150280830155577,2.72925163094027,3.2676377498053655,-0.6678415581161923,6.887260994533558,-1.0322331359495382,-0.12274138500000001,-0.962705055,-0.250792815,-0.10682,-2.6857599999999997,-5.81406,69.0
1774823225.4554188,2.5033950805664062e-05,2026-03-29T22:27:05.455,2026-03-29T18:27:05.455,-28540.35,-42677.955,-80471.655,-50067.314999999995,-10677.824999999999,-17385.03,6125.04,-54996.84,14.372732127903383,18.51435106977664,5.528743367472718,5.238391390890214,4.109166413093291,1.4975892536521722,10.930676249729721,2.9592567620563184,-0.127746255,-0.9573339750000001,-0.244811385,-8.75924,-6.7143999999999995,-3.6166199999999997,69.0
1774823225.455428,9.059906005859375e-06,2026-03-29T22:27:05.455,2026-03-29T18:27:05.455,-28522.664999999997,-42655.32,-80452.17,-50059.935,-10673.64,-17382.465,6127.65,-54979.155,14.395680324129252,15.458382974013531,3.83920682403122,4.080911088365575,1.9614052329103606,2.057598280975815,8.403178700867505,5.594580180436185,-0.127746255,-0.9573339750000001,-0.244811385,-8.75924,-6.7143999999999995,-3.6166199999999997,69.0
1774823225.4554417,1.3828277587890625e-05,2026-03-29T22:27:05.455,2026-03-29T18:27:05.455,-28543.68,-42654.78,-80424.765,-50036.445,-10658.115,-17374.77,6095.61,-54976.454999999994,7.825964807269616,5.608866456024896,0.19007078787302537,0.1514401411709234,-1.9516861656595175,0.8924195943489408,0.7352818533349181,5.589594475390662,-0.127746255,-0.9573339750000001,-0.244811385,-8.75924,-6.7143999999999995,-3.6166199999999997,69.0
1774823225.455451,9.298324584960938e-06,2026-03-29T22:27:05.455,2026-03-29T18:27:05.455,-28563.975,-42666.39,-80421.56999999999,-50026.5,-10647.99,-17369.64,6053.849999999999,-54984.869999999995,-2.1699967387483197,-6.588584390796486,-3.267932149762552,-3.955016964024294,-5.2051716974216,-0.9841748475239999,-7.706630292307034,2.916137952277722,-0.127746255,-0.9573339750000001,-0.244811385,-8.75924,-6.7143999999999995,-3.6166199999999997,69.0
1774823225.4591203,0.003669261932373047,2026-03-29T22:27:05.459,2026-03-29T18:27:05.459,-28574.055,-42714.27,-80451.98999999999,-50040.63,-10650.555,-17365.095,6097.95,-54981.9,-10.937042484565351,-15.717724360828067,-4.568913236234314,-5.4962642326297315,-5.5727785884786485,-2.094391832331932,-12.015352304084335,-1.1709674155135816,-0.127746255,-0.9573339750000001,-0.244811385,-8.75924,-6.7143999999999995,-3.6166199999999997,69.0
1774823225.4591355,1.52587890625e-05,2026-03-29T22:27:05.459,2026-03-29T18:27:05.459,-28579.68,-42757.515,-80505.855,-50085.045,-10684.664999999999,-17386.29,6165.719999999999,-54961.695,-14.53245704749207,-17.850463983699044,-3.0431145672202,-3.24129162890941,-2.382059036021491,-1.4428848007419588,-9.468307143458993,-4.728594704772184,-0.127746255,-0.9573339750000001,-0.244811385,-8.75924,-6.7143999999999995,-3.6166199999999997,69.0
1774823225.4633312,0.004195690155029297,2026-03-29T22:27:05.463,2026-03-29T18:27:05.463,-28595.52,-42754.32,-80539.73999999999,-50119.11,-10717.38,-17406.63,6153.075,-54975.689999999995,-11.512519511603355,-12.259400661378754,0.31049989675302203,1.7163417277672066,2.9516439203729723,0.8133428153760223,-1.1100157528497936,-6.0573525660675065,-0.127746255,-0.9573339750000001,-0.244811385,-8.75924,-6.7143999999999995,-3.6166199999999997,69.0
1774823225.463363,3.170967102050781e-05,2026-03-29T22:27:05.463,2026-03-29T18:27:05.463,-28574.954999999998,-42705.18,-80513.775,-50096.79,-10688.715,-17383.815,6124.23,-54998.82,-3.488059075354238,-1.6261881769539837,3.4060388799589725,6.482577174537474,7.560403512415075,3.374540778639141,8.688185299248527,-4.519916173833144,-0.127746255,-0.9573339750000001,-0.244811385,-8.75924,-6.7143999999999995,-3.6166199999999997,69.0
1774823225.467677,0.0043141841888427734,2026-03-29T22:27:05.467,2026-03-29T18:27:05.467,-28529.55,-42639.075,-80465.4,-50089.905,-10684.44,-17385.3,6118.38,-54987.93,5.7509486815533855,9.287452283238563,4.288949828756262,7.975364076718635,8.639655347050471,4.5110189904106095,14.500588121376204,-0.8480411745219323,-0.127746255,-0.9573339750000001,-0.244811385,-8.75924,-6.7143999999999995,-3.6166199999999997,69.0
1774823225.467708,3.0994415283203125e-05,2026-03-29T22:27:05.467,2026-03-29T18:27:05.467,-28518.164999999997,-42624.945,-80428.72499999999,-50066.009999999995,-10674.09,-17383.545,6123.87,-54974.97,12.061693785934244,15.830396592697449,2.3060893577041184,4.752700030311725,5.052501879439059,3.09977449763637,12.775140307669695,3.2108454090704837,-0.127746255,-0.9573339750000001,-0.244811385,-8.75924,-6.7143999999999995,-3.6166199999999997,69.0
1774823225.4753993,0.007691144943237305,2026-03-29T22:27:05.475,2026-03-29T18:27:05.475,-28531.485,-42648.93,-80427.69,-50053.86,-10679.039999999999,-17396.325,6115.815,-54966.42,12.829682988468505,15.47983979972971,-1.4487603846819381,-1.9769412436051261,-1.8628333583773968,-0.5994567425865646,3.862056810747458,5.7348327872895,-0.120544125,-0.960141585,-0.229552635,-7.4011,-3.64714,-0.763,69.0
1774823225.4754167,1.7404556274414062e-05,2026-03-29T22:27:05.475,2026-03-29T18:27:05.475,-28542.375,-42663.15,-80430.93,-50056.515,-10692.225,-17413.695,6094.304999999999,-54962.009999999995,8.039198128126596,8.793062677299229,-4.7005012146762635,-8.7885527863592,-8.782932526155195,-4.900253374457336,-7.9728418871574185,5.5471291436770995,-0.120544125,-0.960141585,-0.229552635,-7.4011,-3.64714,-0.763,69.0
1774823225.4754329,1.621246337890625e-05,2026-03-29T22:27:05.475,2026-03-29T18:27:05.475,-28548.719999999998,-42674.445,-80449.29,-50071.545,-10703.789999999999,-17421.12,6084.9,-54958.545,0.10171329659374552,-1.0543153458245411,-5.289659927778848,-11.774315989226158,-12.012254172418654,-7.467733315902699,-16.626441072671373,2.769215967960378,-0.120544125,-0.960141585,-0.229552635,-7.4011,-3.64714,-0.763,69.0
1774823225.4754384,5.4836273193359375e-06,2026-03-29T22:27:05.475,2026-03-29T18:27:05.475,-28547.864999999998,-42672.42,-80458.065,-50086.08,-10717.875,-17436.555,6039.945,-54961.875,-7.3849474010934975,-9.825269043563303,-2.4881850703918253,-8.702495962594242,-9.42942491545494,-6.555646236213126,-17.300801949579686,-1.2552000867418378,-0.120544125,-0.960141585,-0.229552635,-7.4011,-3.64714,-0.763,69.0
1774823225.4803562,0.00491786003112793,2026-03-29T22:27:05.480,2026-03-29T18:27:05.480,-28547.37,-42651.27,-80405.73,-50022.494999999995,-10651.14,-17380.755,6022.62,-54992.159999999996,-11.298300255451744,-14.090197538965848,2.429048928885607,-0.43720628081580915,-1.7510414967790424,-2.057123149466651,-9.092360357285207,-4.619697941450182,-0.120544125,-0.960141585,-0.229552635,-7.4011,-3.64714,-0.763,69.0
1774823225.4803913,3.504753112792969e-05,2026-03-29T22:27:05.480,2026-03-29T18:27:05.480,-28581.12,-42697.979999999996,-80410.77,-50008.365,-10612.44,-17334.765,6079.679999999999,-55010.88,-10.291982147938997,-12.56122140485095,6.741938770761889,9.21710688210774,7.601597295913791,4.224957622080828,4.346653505796417,-5.770377331620649,-0.120544125,-0.960141585,-0.229552635,-7.4011,-3.64714,-0.763,69.0
1774823225.4834883,0.003097057342529297,2026-03-29T22:27:05.483,2026-03-29T18:27:05.483,-28581.704999999998,-42728.625,-80436.645,-50004.765,-10598.039999999999,-17316.0,6151.139999999999,-54985.77,-5.194770326257789,-6.3760918201872645,7.73886080501972,15.28329318274787,14.054663751007736,9.306991085961455,16.483670057958065,-4.231615479684253,-0.120544125,-0.960141585,-0.229552635,-7.4011,-3.64714,-0.763,69.0
1774823225.4835112,2.288818359375e-05,2026-03-29T22:27:05.483,2026-03-29T18:27:05.483,-28569.87,-42742.575,-80468.81999999999,-50023.17,-10615.14,-17329.095,6164.6849999999995,-54967.32,1.5679129492328474,1.6557616251255562,4.306939546834923,14.162491799884133,14.13606714353417,10.45498396831381,21.127308493281884,-0.7989765406096899,-0.120544125,-0.960141585,-0.229552635,-7.4011,-3.64714,-0.763,69.0
1774823225.487898,0.00438690185546875,2026-03-29T22:27:05.487,2026-03-29T18:27:05.487,-28571.355,-42713.865,-80482.72499999999,-50066.28,-10673.055,-17376.704999999998,6108.344999999999,-54978.299999999996,7.1590255856748986,8.377241854604582,-2.2362285873741015,5.666090329909523,7.313062116935324,6.624604938191934,15.586908972819295,2.8774864375651927,-0.120544125,-0.960141585,-0.229552635,-7.4011,-3.64714,-0.763,69.0
1774823225.4879267,2.86102294921875e-05,2026-03-29T22:27:05.487,2026-03-29T18:27:05.487,-28548.585,-42689.7,-80487.855,-50097.15,-10699.875,-17394.39,6093.45,-54971.729999999996,9.52968870398415,11.53281016755919,-8.609481871962556,-6.58415256393706,-3.5488571596113054,-0.8371419959557278,2.155531656228721,5.0997033282917865,-0.120544125,-0.960141585,-0.229552635,-7.4011,-3.64714,-0.763,69.0
1774823225.4926243,0.004697561264038086,2026-03-29T22:27:05.492,2026-03-29T18:27:05.492,-28537.155,-42670.665,-80471.52,-50094.405,-10700.55,-17395.02,6103.53,-54971.505,8.121755892720076,10.443683946658988,-11.192150767210872,-16.713685857240634,-13.411057935620308,-8.648084623022491,-12.877824150475035,4.9177452417081495,-0.11682099,-0.96850338,-0.220763595,-0.21364,-2.12114,-0.09156,69.0
1774823225.4926414,1.71661376953125e-05,2026-03-29T22:27:05.492,2026-03-29T18:27:05.492,-28523.385,-42620.67,-80417.925,-50050.395,-10672.56,-17387.01,6073.695,-54969.84,3.861600997564049,5.957654022281636,-8.009003222678752,-19.43423376172574,-17.436583470850785,-13.059661379192681,-22.24249061446341,2.5363933567852492,-0.11682099,-0.96850338,-0.220763595,-0.21364,-2.12114,-0.09156,69.0
1774823225.495456,0.0028145313262939453,2026-03-29T22:27:05.495,2026-03-29T18:27:05.495,-28516.995,-42624.45,-80394.165,-50027.445,-10655.279999999999,-17379.72,6054.66,-54948.96,-1.421443149109819,-0.13144479971321085,-0.012736950836837664,-12.782575676785296,-13.378869175165809,-11.66956988532787,-21.25246976610876,-0.842713042037,-0.11682099,-0.96850338,-0.220763595,-0.21364,-2.12114,-0.09156,69.0
1774823225.4954786,2.2649765014648438e-05,2026-03-29T22:27:05.495,2026-03-29T18:27:05.495,-28536.254999999997,-42659.82,-80419.545,-50052.689999999995,-10676.699999999999,-17396.235,6057.855,-54958.95,-5.800182227572544,-5.825451117079447,9.10559833144332,0.6515106749962701,-2.79745168143212,-4.695704591325617,-10.153921574873102,-3.637868187091157,-0.11682099,-0.96850338,-0.220763595,-0.21364,-2.12114,-0.09156,69.0
1774823225.4996328,0.004154205322265625,2026-03-29T22:27:05.499,2026-03-29T18:27:05.499,-28513.71,-42614.145,-80369.01,-50006.205,-10630.44,-17358.3,6093.945,-54965.204999999994,-7.914773961406667,-9.505184478499753,14.612828791144102,14.723769591021444,9.544369223972302,4.952602050721086,5.924903485892178,-4.64253636562792,-0.11682099,-0.96850338,-0.220763595,-0.21364,-2.12114,-0.09156,69.0
1774823225.4996445,1.1682510375976562e-05,2026-03-29T22:27:05.499,2026-03-29T18:27:05.499,-28457.28,-42577.38,-80349.03,-49973.13,-10602.315,-17340.75,6149.115,-54927.36,-7.291135260091488,-10.22938195412164,13.160090909151387,22.580886748697022,17.865256189321837,12.909323980722274,19.414039241087316,-3.551451916821351,-0.11682099,-0.96850338,-0.220763595,-0.21364,-2.12114,-0.09156,69.0
1774823225.5043087,0.004664182662963867,2026-03-29T22:27:05.504,2026-03-29T18:27:05.504,-28517.129999999997,-42644.655,-80414.86499999999,-50020.65,-10643.625,-17367.57,6162.795,-54946.755,-4.312058989134979,-7.8135433531265015,4.70614294785731,20.0193217179934,18.113289666118956,15.358188706172031,23.940757812467655,-1.0250082668650466,-0.11682099,-0.96850338,-0.220763595,-0.21364,-2.12114,-0.09156,69.0
1774823225.5043445,3.5762786865234375e-05,2026-03-29T22:27:05.504,2026-03-29T18:27:05.504,-28585.305,-42712.38,-80472.78,-50056.965,-10662.029999999999,-17365.86,6146.37,-54978.119999999995,0.023093698211335178,-2.820846823517278,-7.129368882539537,7.702063094629364,9.952335231192903,10.875075694801872,17.38553005132489,1.7010022217141907,-0.11682099,-0.96850338,-0.220763595,-0.21364,-2.12114,-0.09156,69.0
1774823225.507328,0.002983570098876953,2026-03-29T22:27:05.507,2026-03-29T18:27:05.507,-28602.09,-42731.415,-80516.87999999999,-50086.619999999995,-10670.355,-17367.255,6129.179999999999,-54983.744999999995,4.40146961977467,3.4764806706759437,-16.604578434749925,-8.924148635101993,-2.992336456712419,1.211573830117694,2.869534139924366,3.4345029875168973,-0.11682099,-0.96850338,-0.220763595,-0.21364,-2.12114,-0.09156,69.0
1774823225.5073426,1.4543533325195312e-05,2026-03-29T22:27:05.507,2026-03-29T18:27:05.507,-28593.989999999998,-42721.92,-80518.455,-50100.705,-10691.73,-17390.52,6129.945,-54983.25,7.490758740665483,9.237333972111832,-18.6379216753402,-22.070378035796278,-14.779898518099676,-9.397189348967176,-12.784723107534566,3.558903351084611,-0.11682099,-0.96850338,-0.220763595,-0.21364,-2.12114,-0.09156,69.0
1774823225.5153077,0.007965087890625,2026-03-29T22:27:05.515,2026-03-29T18:27:05.515,-28568.745,-42698.52,-80490.33,-50090.895,-10696.095,-17400.149999999998,6046.83,-54981.27,8.232281045106946,12.425493312884672,-11.48616165381446,-25.296263292337702,-19.92787532115235,-16.122392883240433,-22.33879530998407,2.234807077797865,-0.123229665,-0.97692621,-0.2282709,-2.5636799999999997,-4.13546,1.1444999999999999,69.0
1774823225.5153303,2.2649765014648438e-05,2026-03-29T22:27:05.515,2026-03-29T18:27:05.515,-28528.11,-42680.34,-80487.72,-50110.92,-10711.845,-17408.52,6072.615,-54962.415,6.149899969548676,11.4599767551412,2.076797859780247,-16.682701592376002,-15.997912817470858,-15.770270289030933,-21.55398941724655,0.21600971813375996,-0.123229665,-0.97692621,-0.2282709,-2.5636799999999997,-4.13546,1.1444999999999999,69.0
1774823225.5153496,1.9311904907226562e-05,2026-03-29T22:27:05.515,2026-03-29T18:27:05.515,-28527.48,-42672.465,-80494.425,-50141.88,-10742.984999999999,-17437.14,6142.679999999999,-54961.65,1.61984138312674,5.977123667310361,15.800865680975303,0.0842595383311739,-4.758112932123929,-8.307474127738372,-11.095467816872238,-1.5800496095116037,-0.123229665,-0.97692621,-0.2282709,-2.5636799999999997,-4.13546,1.1444999999999999,69.0
1774823225.5153584,8.821487426757812e-06,2026-03-29T22:27:05.515,2026-03-29T18:27:05.515,-28543.77,-42666.03,-80463.69,-50110.515,-10723.815,-17431.245,6145.785,-54967.275,-4.042545210174617,-2.655858035848922,22.84994677714451,17.311384710487154,8.635474818405369,3.0493578051651844,3.941040039454778,-2.503858921479919,-0.123229665,-0.97692621,-0.2282709,-2.5636799999999997,-4.13546,1.1444999999999999,69.0
1774823225.5199556,0.004597187042236328,2026-03-29T22:27:05.519,2026-03-29T18:27:05.519,-28541.925,-42667.74,-80430.48,-50056.604999999996,-10680.885,-17406.09,6118.65,-54967.994999999995,-8.837605740793325,-11.463485654472915,19.1996629450251,26.87558667450707,18.048888132178597,13.248945303366629,16.571331907405845,-2.3975662434024527,-0.123229665,-0.97692621,-0.2282709,-2.5636799999999997,-4.13546,1.1444999999999999,69.0
1774823225.519973,1.7404556274414062e-05,2026-03-29T22:27:05.519,2026-03-29T18:27:05.519,-28540.53,-42686.64,-80439.61499999999,-50052.24,-10679.715,-17415.809999999998,6087.915,-54960.93,-10.722562771398385,-16.789742397044396,5.85525112598607,24.095963123140795,19.225460115501683,17.689290514357474,21.24162546294841,-1.5397870889178238,-0.123229665,-0.97692621,-0.2282709,-2.5636799999999997,-4.13546,1.1444999999999999,69.0
1774823225.5233755,0.0034024715423583984,2026-03-29T22:27:05.523,2026-03-29T18:27:05.523,-28538.864999999998,-42675.57,-80441.01,-50051.384999999995,-10669.545,-17398.62,6053.849999999999,-54964.755,-8.473443420640901,-15.801636774301585,-11.305256305085567,10.036419001599295,11.736717582740747,14.320721033599586,16.314839302652597,-0.39841827711801103,-0.123229665,-0.97692621,-0.2282709,-2.5636799999999997,-4.13546,1.1444999999999999,69.0
1774823225.5233965,2.09808349609375e-05,2026-03-29T22:27:05.523,2026-03-29T18:27:05.523,-28512.405,-42642.27,-80433.27,-50058.0,-10668.285,-17376.93,6055.74,-54951.03,-2.407422633442593,-7.9569938029435905,-24.130933752547733,-8.899144399824248,-0.876841673165973,4.595145201162931,4.591570804693233,0.6334135113879076,-0.123229665,-0.97692621,-0.2282709,-2.5636799999999997,-4.13546,1.1444999999999999,69.0
1774823225.5284693,0.005072832107543945,2026-03-29T22:27:05.528,2026-03-29T18:27:05.528,-28514.969999999998,-42636.6,-80427.915,-50064.03,-10675.08,-17382.465,6072.57,-54949.59,5.44013628516508,4.311903149969706,-26.0857852144225,-23.926097451164015,-12.811440415147636,-7.1795083453605235,-8.265550390692372,1.3671606601640471,-0.123229665,-0.97692621,-0.2282709,-2.5636799999999997,-4.13546,1.1444999999999999,69.0
1774823225.528505,3.5762786865234375e-05,2026-03-29T22:27:05.528,2026-03-29T18:27:05.528,-28537.335,-42648.705,-80434.62,-50068.89,-10685.295,-17398.26,6046.92,-54970.244999999995,11.913489421143131,16.20603180220888,-15.561531906998315,-28.006142207166665,-18.716761089076712,-15.78326010285654,-16.525654881544206,1.7740040379800757,-0.123229665,-0.97692621,-0.2282709,-2.5636799999999997,-4.13546,1.1444999999999999,69.0
1774823225.5312452,0.002740144729614258,2026-03-29T22:27:05.531,2026-03-29T18:27:05.531,-28554.39,-42674.534999999996,-80457.885,-50077.305,-10691.865,-17403.255,6084.135,-54985.409999999996,13.987764487488857,22.404209724848723,3.058338813882286,-19.180125880954456,-16.13144899615724,-17.43294427581365,-16.999365306827272,1.8472070132724867,-0.11950653,-0.9826635,-0.235289925,-7.63,-6.28712,2.77732,69.0
1774823225.53126,1.4781951904296875e-05,2026-03-29T22:27:05.531,2026-03-29T18:27:05.531,-28562.715,-42685.2,-80451.495,-50059.439999999995,-10674.494999999999,-17384.04,6176.07,-54998.145,10.18659357106162,19.4528940615674,21.223471130880036,-1.512238471201353,-6.511949953259963,-11.463307769918217,-10.251811970719253,1.509343140471321,-0.11950653,-0.9826635,-0.235289925,-7.63,-6.28712,2.77732,69.0
1774823225.5360892,0.0048291683197021484,2026-03-29T22:27:05.536,2026-03-29T18:27:05.536,-28540.53,-42648.345,-80406.45,-50016.015,-10637.145,-17346.6,6225.165,-54977.13,1.4983217918581582,7.622348725972098,30.17142993531642,16.811134218100317,5.576288072867617,-0.5854390308733399,0.030276181146627962,0.6576114952871208,-0.11950653,-0.9826635,-0.235289925,-7.63,-6.28712,2.77732,69.0
1774823225.5361066,1.7404556274414062e-05,2026-03-29T22:27:05.536,2026-03-29T18:27:05.536,-28554.164999999997,-42641.46,-80395.875,-50007.689999999995,-10635.21,-17349.255,6152.715,-54977.895,-8.740967358286186,-8.74670453678149,25.169280299166832,27.325184145736504,14.660984034870328,10.372089180230162,9.044652103748469,-0.6734371692709294,-0.11950653,-0.9826635,-0.235289925,-7.63,-6.28712,2.77732,69.0
1774823225.5395577,0.003451108932495117,2026-03-29T22:27:05.539,2026-03-29T18:27:05.539,-28533.78,-42626.744999999995,-80368.37999999999,-49975.064999999995,-10603.8,-17322.885,6171.885,-54949.59,-16.09622642376678,-22.772840281674554,7.980479791506766,25.24547368137527,16.880989275215466,16.64254341232182,13.165795712773644,-2.159049568927967,-0.11950653,-0.9826635,-0.235289925,-7.63,-6.28712,2.77732,69.0
1774823225.5395775,1.9788742065429688e-05,2026-03-29T22:27:05.539,2026-03-29T18:27:05.539,-28514.16,-42645.33,-80416.62,-50027.715,-10636.289999999999,-17347.32,6198.3,-54932.625,-16.96421992832162,-27.936241315339032,-13.716427563610893,11.668423473158784,11.64298565209198,15.620823165308538,11.40880388989957,-3.1924662400855572,-0.11950653,-0.9826635,-0.235289925,-7.63,-6.28712,2.77732,69.0
1774823225.543609,0.00403141975402832,2026-03-29T22:27:05.543,2026-03-29T18:27:05.543,-28494.09,-42655.86,-80459.64,-50053.095,-10640.025,-17341.38,6191.91,-54935.505,-10.340214673471225,-21.12433966119952,-29.789402667645486,-7.009194717185027,1.6988861895303078,7.946758788982025,5.472998884966848,-3.1204020917147206,-0.11950653,-0.9826635,-0.235289925,-7.63,-6.28712,2.77732,69.0
1774823225.543618,9.059906005859375e-06,2026-03-29T22:27:05.543,2026-03-29T18:27:05.543,-28539.135,-42672.555,-80468.73,-50062.14,-10652.805,-17351.1,6164.054999999999,-54950.805,1.4479833831565319,-4.389560954237464,-32.418988326526076,-22.143628167388925,-8.30053150200529,-2.8784701280983462,-1.4653772167254537,-1.621577897076959,-0.11950653,-0.9826635,-0.235289925,-7.63,-6.28712,2.77732,69.0
1774823225.5479112,0.004293203353881836,2026-03-29T22:27:05.547,2026-03-29T18:27:05.547,-28535.219999999998,-42680.43,-80460.855,-50076.09,-10674.494999999999,-17383.364999999998,6100.155,-54948.645,13.500996356620215,15.536946695106963,-19.909841055902064,-26.895131170269178,-14.015461116999631,-12.11964314424134,-6.448784947289944,0.9807615857228665,-0.11950653,-0.9826635,-0.235289925,-7.63,-6.28712,2.77732,69.0
1774823225.547936,2.47955322265625e-05,2026-03-29T22:27:05.547,2026-03-29T18:27:05.547,-28530.18,-42701.625,-80469.27,-50092.695,-10694.565,-17406.675,6075.135,-54950.174999999996,20.38896922317352,29.948446279666154,2.315469028340829,-19.35487789111232,-13.32492463630152,-15.908841129813263,-8.019958845201689,3.694123077023848,-0.11950653,-0.9826635,-0.235289925,-7.63,-6.28712,2.77732,69.0
1774823225.5609908,0.013054847717285156,2026-03-29T22:27:05.560,2026-03-29T18:27:05.560,-28535.489999999998,-42682.275,-80444.87999999999,-50072.805,-10678.14,-17387.684999999998,6089.76,-54947.564999999995,18.619791184089724,31.999049055677773,24.09371051289136,-3.3017631760166526,-7.082515667257457,-12.87446653539532,-6.525918166814589,5.214705225418097,-0.117126165,-0.9824803950000001,-0.237975465,-11.567079999999999,-8.118319999999999,4.36436,69.0
1774823225.5610247,3.3855438232421875e-05,2026-03-29T22:27:05.561,2026-03-29T18:27:05.561,-28554.704999999998,-42695.865,-80412.56999999999,-50031.585,-10648.35,-17360.595,6093.495,-54944.505,8.401287902038678,19.966931278576233,35.21401753494718,13.704947481113805,1.5306591086638341,-4.607439169236899,-3.470496463448805,4.551472168881899,-0.117126165,-0.9824803950000001,-0.237975465,-11.567079999999999,-8.118319999999999,4.36436,69.0
1774823225.5610528,2.8133392333984375e-05,2026-03-29T22:27:05.561,2026-03-29T18:27:05.561,-28605.87,-42783.165,-80424.36,-50012.325,-10639.664999999999,-17350.875,6099.705,-54948.42,-6.190147090459559,-1.6181161581280374,30.237588154859584,23.928446427842736,8.63531592054049,5.175456899635669,-0.4413978502736061,1.6182198174223283,-0.117126165,-0.9824803950000001,-0.237975465,-11.567079999999999,-8.118319999999999,4.36436,69.0
1774823225.5610645,1.1682510375976562e-05,2026-03-29T22:27:05.561,2026-03-29T18:27:05.561,-28640.969999999998,-42831.18,-80489.43,-50047.064999999995,-10692.045,-17374.32,6101.82,-54960.03,-18.82946169899625,-23.649172948887163,11.15279594703137,23.015843211354742,11.427554557309769,12.330449967194241,1.713572525076559,-2.5437835983193624,-0.117126165,-0.9824803950000001,-0.237975465,-11.567079999999999,-8.118319999999999,4.36436,69.0
1774823225.561078,1.3589859008789062e-05,2026-03-29T22:27:05.561,2026-03-29T18:27:05.561,-28605.914999999997,-42755.354999999996,-80513.595,-50067.314999999995,-10710.404999999999,-17384.399999999998,6116.445,-54955.395,-23.710999699283093,-36.31601753734715,-13.430334080620739,11.859439412855208,9.273593331946481,14.05873933557389,3.035592764069742,-6.102358766076021,-0.117126165,-0.9824803950000001,-0.237975465,-11.567079999999999,-8.118319999999999,4.36436,69.0
1774823225.561088,1.0013580322265625e-05,2026-03-29T22:27:05.561,2026-03-29T18:27:05.561,-28531.62,-42641.415,-80480.97,-50056.29,-10661.67,-17372.204999999998,6126.929999999999,-54941.67,-18.24036253605085,-33.51470116812358,-32.213637025189854,-4.041372434565757,3.705158106987522,9.986068876338038,3.971298835852473,-7.242496185350665,-0.117126165,-0.9824803950000001,-0.237975465,-11.567079999999999,-8.118319999999999,4.36436,69.0
1774823225.5633428,0.0022547245025634766,2026-03-29T22:27:05.563,2026-03-29T18:27:05.563,-28480.77,-42625.17,-80505.045,-50096.384999999995,-10647.9,-17375.715,6127.514999999999,-54919.305,-4.389647668940335,-15.790610068065435,-36.4517647687212,-17.312586845858863,-2.544927774773193,2.142352910631579,4.694080060877644,-5.0888767165443625,-0.117126165,-0.9824803950000001,-0.237975465,-11.567079999999999,-8.118319999999999,4.36436,69.0
1774823225.5633569,1.4066696166992188e-05,2026-03-29T22:27:05.563,2026-03-29T18:27:05.563,-28471.68,-42611.4,-80472.465,-50113.034999999996,-10680.93,-17391.78,6126.03,-54905.579999999994,11.984388273368042,9.606966168559634,-24.045867106060253,-22.164883236188153,-6.896481480827022,-6.059595599437668,4.759500108163358,-0.2743962255552786,-0.117126165,-0.9824803950000001,-0.237975465,-11.567079999999999,-8.118319999999999,4.36436,69.0
1774823225.582722,0.01936507225036621,2026-03-29T22:27:05.582,2026-03-29T18:27:05.582,-28476.539999999997,-42575.265,-80390.16,-50070.645,-10676.97,-17396.82,6123.96,-54904.634999999995,23.640063306051914,31.71123649914246,-0.5621910820711463,-16.938535269305103,-7.988825753714353,-11.328605130183918,3.3707768244960006,5.187089178680861,-0.117126165,-0.9824803950000001,-0.237975465,-11.567079999999999,-8.118319999999999,4.36436,69.0
1774823225.582745,2.3126602172851562e-05,2026-03-29T22:27:05.582,2026-03-29T18:27:05.582,-28491.704999999998,-42588.854999999996,-80390.34,-50063.895,-10675.98,-17394.345,6112.62,-54901.53,25.190269638995396,40.624090975495335,23.311469571596913,-4.606203820742018,-6.019082748889274,-11.810601817238268,0.09736412998170804,8.742077931381777,-0.117126165,-0.9824803950000001,-0.237975465,-11.567079999999999,-8.118319999999999,4.36436,69.0
1774823225.5827644,1.9311904907226562e-05,2026-03-29T22:27:05.582,2026-03-29T18:27:05.582,-28517.265,-42627.42,-80424.045,-50070.375,-10684.035,-17402.76,6086.34,-54904.185,15.615039483783612,31.988571546255454,36.68746574424998,8.87669236748463,-2.327714244444669,-7.692512160203061,-4.450668249749304,8.502337412205184,-0.1049802,-0.984433515,-0.22717227,-5.96666,-3.69292,6.69914,69.0
1774823225.582772,7.62939453125e-06,2026-03-29T22:27:05.582,2026-03-29T18:27:05.582,-28516.184999999998,-42638.715,-80428.68,-50055.075,-10662.84,-17376.48,6101.1449999999995,-54904.905,-1.1357966188280295,9.106984209996584,33.484211068726715,17.473332090677125,1.4253954608720247,-0.9275132635757538,-8.520048699100977,4.239434230002826,-0.1049802,-0.984433515,-0.22717227,-5.96666,-3.69292,6.69914,69.0
1774823225.5827816,9.5367431640625e-06,2026-03-29T22:27:05.582,2026-03-29T18:27:05.582,-28514.385,-42657.165,-80435.25,-50046.345,-10651.77,-17367.84,6104.61,-54905.67,-17.786864274477967,-18.322501592156364,15.194680731795827,17.793241647427337,4.014648879930971,5.703331955003331,-9.897098752153338,-2.3525896785280347,-0.1049802,-0.984433515,-0.22717227,-5.96666,-3.69292,6.69914,69.0
1774823225.582788,6.4373016357421875e-06,2026-03-29T22:27:05.582,2026-03-29T18:27:05.582,-28515.69,-42673.95,-80436.95999999999,-50051.79,-10665.945,-17388.315,6097.59,-54904.454999999994,-26.93690766366017,-38.36642915151107,-9.845346164500569,10.402171298741312,4.9864452385884706,9.737065943060065,-7.103915652059038,-8.32247607070499,-0.1049802,-0.984433515,-0.22717227,-5.96666,-3.69292,6.69914,69.0
1774823225.5827963,8.344650268554688e-06,2026-03-29T22:27:05.582,2026-03-29T18:27:05.582,-28537.289999999997,-42695.82,-80453.43,-50061.915,-10667.97,-17382.645,6112.9349999999995,-54902.25,-24.38794050635592,-42.10442873614628,-30.315689283398648,-0.7760007244167552,4.52930782999308,9.909280045165364,-0.4632109109558025,-10.798647106669002,-0.1049802,-0.984433515,-0.22717227,-5.96666,-3.69292,6.69914,69.0
1774823225.582814,1.7642974853515625e-05,2026-03-29T22:27:05.582,2026-03-29T18:27:05.582,-28551.105,-42700.32,-80462.83499999999,-50059.935,-10650.555,-17366.085,6098.535,-54907.155,-11.087696975451825,-27.6296071973662,-37.08316876153679,-10.527327390001384,3.094348472891566,6.474285730030044,7.638174233916039,-8.384742674011532,-0.1049802,-0.984433515,-0.22717227,-5.96666,-3.69292,6.69914,69.0
1774823225.587652,0.004837989807128906,2026-03-29T22:27:05.587,2026-03-29T18:27:05.587,-28547.73,-42676.56,-80449.02,-50055.03,-10653.66,-17380.62,6060.735,-54923.4,7.2218208325796285,-0.9915332623167907,-27.29760130072001,-14.80093171921316,1.0780882201055608,0.9353327811334248,13.587712911785683,-1.9286360704020924,-0.1049802,-0.984433515,-0.22717227,-5.96666,-3.69292,6.69914,69.0
1774823225.5876663,1.430511474609375e-05,2026-03-29T22:27:05.587,2026-03-29T18:27:05.587,-28529.864999999998,-42649.695,-80428.995,-50048.46,-10670.445,-17410.59,6052.905,-54907.92,22.520044016538666,26.375097666686948,-5.564748038996561,-12.382930934535896,-1.235394268371514,-4.619897201267017,14.201083852186608,5.752681202460127,-0.1049802,-0.984433515,-0.22717227,-5.96666,-3.69292,6.69914,69.0
1774823225.5944817,0.006815433502197266,2026-03-29T22:27:05.594,2026-03-29T18:27:05.594,-28508.715,-42634.845,-80406.27,-50020.11,-10644.705,-17385.03,6107.8949999999995,-54874.439999999995,28.068594917184985,42.6220328225742,18.27182285682637,-5.104821918944746,-3.505932162506882,-8.281778474687219,8.412871199009574,11.11750533164251,-0.1049802,-0.984433515,-0.22717227,-5.96666,-3.69292,6.69914,69.0
1774823225.5945067,2.5033950805664062e-05,2026-03-29T22:27:05.594,2026-03-29T18:27:05.594,-28514.61,-42635.025,-80401.905,-50030.189999999995,-10651.095,-17383.635,6095.474999999999,-54865.71,21.4139990421076,40.66700307645929,33.649776859702214,3.3438171972274353,-5.1612434397699465,-8.914781525755247,-1.8896565541416934,11.556288881138418,-0.1049802,-0.984433515,-0.22717227,-5.96666,-3.69292,6.69914,69.0
1774823225.5945327,2.5987625122070312e-05,2026-03-29T22:27:05.594,2026-03-29T18:27:05.594,-28515.465,-42619.814999999995,-80394.97499999999,-50039.369999999995,-10660.455,-17391.42,6014.07,-54877.59,5.477419809467032,21.29225545901785,34.00462795801422,9.284143154244461,-5.449750598326669,-6.438305411543361,-12.426996048249594,6.674602133849874,-0.091613535,-0.9814428000000001,-0.21954289500000002,-1.77016,3.90656,10.77356,69.0
1774823225.5945442,1.1444091796875e-05,2026-03-29T22:27:05.594,2026-03-29T18:27:05.594,-28573.965,-42707.61,-80477.28,-50098.365,-10710.09,-17432.01,5935.1849999999995,-54917.595,-12.755829522870137,-7.199887668946962,19.559884199913267,10.651449972069178,-3.7935258580175706,-1.7710296852822984,-18.345667393912187,-1.4352458396748746,-0.091613535,-0.9814428000000001,-0.21954289500000002,-1.77016,3.90656,10.77356,69.0
1774823225.5945597,1.5497207641601562e-05,2026-03-29T22:27:05.594,2026-03-29T18:27:05.594,-28583.01,-42739.38,-80500.77,-50094.765,-10700.19,-17417.88,6012.045,-54922.725,-25.346723267216188,-32.607187049566114,-2.988751998344244,7.63384197258344,-0.2705668885591181,3.494175042993945,-16.499602923284414,-9.102502227591579,-0.091613535,-0.9814428000000001,-0.21954289500000002,-1.77016,3.90656,10.77356,69.0
1774823225.5945709,1.1205673217773438e-05,2026-03-29T22:27:05.594,2026-03-29T18:27:05.594,-28507.364999999998,-42627.42,-80380.44,-49991.715,-10594.98,-17298.855,6226.92,-54898.155,-26.905298742053358,-44.11446031589477,-23.634867637660115,2.199579018403375,4.101716692618098,7.579032457211294,-7.100844578893557,-12.76663250388408,-0.091613535,-0.9814428000000001,-0.21954289500000002,-1.77016,3.90656,10.77356,69.0
1774823225.5994098,0.0048389434814453125,2026-03-29T22:27:05.599,2026-03-29T18:27:05.599,-28536.57,-42644.205,-80397.27,-50018.625,-10628.279999999999,-17326.98,6206.264999999999,-54918.765,-16.918131852501464,-36.92628510661125,-33.54950705200303,-3.0840491113706077,7.56363954410869,9.056511394392036,6.119031409967475,-10.656802282488758,-0.091613535,-0.9814428000000001,-0.21954289500000002,-1.77016,3.90656,10.77356,69.0
1774823225.59943,2.0265579223632812e-05,2026-03-29T22:27:05.599,2026-03-29T18:27:05.599,-28552.86,-42664.994999999995,-80456.535,-50085.18,-10694.744999999999,-17393.985,6200.955,-54907.784999999996,0.1149894147725047,-14.246110442401282,-28.85982954008298,-6.263691836585663,8.32406984729594,7.313229013569186,17.41610351821768,-3.6576841628716017,-0.091613535,-0.9814428000000001,-0.21954289500000002,-1.77016,3.90656,10.77356,69.0
1774823225.6053464,0.0059163570404052734,2026-03-29T22:27:05.605,2026-03-29T18:27:05.605,-28538.864999999998,-42641.145,-80437.36499999999,-50065.244999999995,-10670.445,-17380.44,6248.385,-54886.409999999996,16.750055392690292,14.205204192307443,-12.099830637382237,-6.671027308306536,5.49654465000451,2.809259929044295,21.58515399187132,5.066742755955172,-0.091613535,-0.9814428000000001,-0.21954289500000002,-1.77016,3.90656,10.77356,69.0
1774823225.605373,2.6464462280273438e-05,2026-03-29T22:27:05.605,2026-03-29T18:27:05.605,-28512.585,-42612.93,-80397.72,-50020.2,-10622.789999999999,-17339.04,6237.315,-54876.645,25.903755423072525,36.421976673045634,9.173827592569905,-4.853031544781095,-0.23156654760010745,-2.977338924477212,16.394274875997365,11.52920154071432,-0.091613535,-0.9814428000000001,-0.21954289500000002,-1.77016,3.90656,10.77356,69.0
1774823225.6110673,0.005694389343261719,2026-03-29T22:27:05.611,2026-03-29T18:27:05.611,-28499.129999999997,-42619.77,-80409.465,-50058.945,-10674.359999999999,-17383.68,6163.605,-54872.685,23.902448821727187,43.22161842739967,25.841504802075306,-1.9751949295565787,-6.633226036037062,-7.968098346381316,3.7482222936227294,12.773049965890223,-0.091613535,-0.9814428000000001,-0.21954289500000002,-1.77016,3.90656,10.77356,69.0
1774823225.6110823,1.5020370483398438e-05,2026-03-29T22:27:05.611,2026-03-29T18:27:05.611,-28532.789999999997,-42646.409999999996,-80408.7,-50085.405,-10711.215,-17416.17,6108.929999999999,-54881.369999999995,11.946163870870791,32.03311963464539,31.14679154240696,0.8628626355328118,-10.79520535077382,-10.189232455059177,-11.013917751334857,8.247322710530355,-0.091613535,-0.9814428000000001,-0.21954289500000002,-1.77016,3.90656,10.77356,69.0
1774823225.6110954,1.3113021850585938e-05,2026-03-29T22:27:05.611,2026-03-29T18:27:05.611,-28591.02,-42713.82,-80404.965,-50053.365,-10676.97,-17385.075,6103.17,-54904.994999999995,-4.590843088194506,7.806580357198383,23.390710118591787,3.0163854128490066,-10.470694771278449,-8.549227031181413,-21.421863271596482,0.052685884750678744,-0.094054935,-0.98498283,-0.22814883,-1.9990599999999998,3.79974,13.41354,69.0
1774823225.6111007,5.245208740234375e-06,2026-03-29T22:27:05.611,2026-03-29T18:27:05.611,-28661.129999999997,-42778.53,-80395.33499999999,-49982.85,-10608.75,-17328.645,6133.724999999999,-54931.545,-18.62458815321237,-19.240117515708366,6.344778566334902,4.270713586543619,-5.290930830489672,-3.384127401979708,-22.759146501659018,-8.05275352994946,-0.094054935,-0.98498283,-0.22814883,-1.9990599999999998,3.79974,13.41354,69.0
1774823225.6155336,0.0044329166412353516,2026-03-29T22:27:05.615,2026-03-29T18:27:05.615,-28674.45,-42866.145,-80499.465,-50026.95,-10646.955,-17367.975,6118.5599999999995,-54925.2,-24.438349125232286,-37.98156208770653,-12.622607221686291,4.572145649891052,2.8159348956580725,3.5053208451332636,-14.220789790926018,-12.408795161840823,-0.094054935,-0.98498283,-0.22814883,-1.9990599999999998,3.79974,13.41354,69.0
1774823225.6155524,1.8835067749023438e-05,2026-03-29T22:27:05.615,2026-03-29T18:27:05.615,-28632.329999999998,-42954.795,-80668.53,-50135.67,-10728.404999999999,-17438.805,6059.835,-54902.88,-20.01449076668335,-40.964900029845175,-25.758813389012875,3.815224855752314,10.312627294754,9.43073148722606,0.6511888949659005,-11.13509131733093,-0.094054935,-0.98498283,-0.22814883,-1.9990599999999998,3.79974,13.41354,69.0
1774823225.619692,0.00413966178894043,2026-03-29T22:27:05.619,2026-03-29T18:27:05.619,-28591.02,-42854.04,-80663.04,-50148.945,-10706.31,-17411.445,6072.929999999999,-54899.595,-7.667897490202194,-27.321963621957398,-28.064082439318724,1.8939765407843208,13.619267102486383,11.853009795195826,15.473424556826618,-4.953027431522536,-0.094054935,-0.98498283,-0.22814883,-1.9990599999999998,3.79974,13.41354,69.0
1774823225.619724,3.1948089599609375e-05,2026-03-29T22:27:05.619,2026-03-29T18:27:05.619,-28527.344999999998,-42697.215,-80522.64,-50079.645,-10641.105,-17356.68,6115.86,-54893.7,7.176665721370639,-2.9046210376999073,-19.101553648389984,-1.0156867217181165,10.853832503399872,9.48566667571059,23.807819635444414,3.2168527250388466,-0.094054935,-0.98498283,-0.22814883,-1.9990599999999998,3.79974,13.41354,69.0
1774823225.623616,0.0038919448852539062,2026-03-29T22:27:05.623,2026-03-29T18:27:05.623,-28441.17,-42566.715,-80427.015,-50074.74,-10650.24,-17367.165,6121.53,-54858.42,18.414139845464526,22.280712906419982,-2.880947375788506,-4.192590690575275,2.8872067429610513,2.9777157718052933,21.990081904464912,9.659853912660802,-0.094054935,-0.98498283,-0.22814883,-1.9990599999999998,3.79974,13.41354,69.0
1774823225.6236384,2.2411346435546875e-05,2026-03-29T22:27:05.623,2026-03-29T18:27:05.623,-28440.539999999997,-42521.805,-80385.03,-50077.755,-10680.975,-17397.09,6102.0,-54864.18,21.7852383490412,38.18595466087671,13.967959834964603,-6.4164893380080175,-6.871304288751771,-5.185641006990097,10.744031540989093,11.58745028096976,-0.094054935,-0.98498283,-0.22814883,-1.9990599999999998,3.79974,13.41354,69.0
1774823225.6644316,0.04079318046569824,2026-03-29T22:27:05.664,2026-03-29T18:27:05.664,-28461.914999999997,-42514.29,-80356.72499999999,-50076.27,-10705.365,-17419.95,6103.53,-54884.564999999995,16.445399876329024,38.68376447920504,24.883889438851035,-6.436847839465995,-13.946743933996508,-11.610130205408373,-5.128224810050237,8.361661776911879,-0.094054935,-0.98498283,-0.22814883,-1.9990599999999998,3.79974,13.41354,69.0
1774823225.6644516,2.002716064453125e-05,2026-03-29T22:27:05.664,2026-03-29T18:27:05.664,-28466.145,-42550.65,-80378.145,-50076.27,-10708.38,-17424.045,6109.469999999999,-54874.979999999996,5.024026279291712,23.842691232228752,25.84623564820483,-3.683579556615606,-14.886538302817241,-13.413411098821571,-18.833758304378208,1.677345620020259,-0.094054935,-0.98498283,-0.22814883,-1.9990599999999998,3.79974,13.41354,69.0
1774823225.6644762,2.4557113647460938e-05,2026-03-29T22:27:05.664,2026-03-29T18:27:05.664,-28460.879999999997,-42557.715,-80363.16,-50029.155,-10655.55,-17380.485,6050.295,-54877.59,-7.697409996681828,-0.2788534868580116,16.748295476947472,1.1844740014308,-8.973055829534688,-9.540142718404912,-24.527879822825298,-5.330872013417233,-0.095763915,-0.973691355,-0.22448673,-4.5017,5.24944,12.48268,69.0
1774823225.6644835,7.3909759521484375e-06,2026-03-29T22:27:05.664,2026-03-29T18:27:05.664,-28479.825,-42584.939999999995,-80383.995,-50033.43,-10654.92,-17381.88,6018.255,-54885.329999999994,-16.812555121632982,-24.125014249982122,1.270297374643024,6.29227091314127,1.3002583219249515,-1.3610849697902405,-19.81930295391494,-9.585565465277464,-0.095763915,-0.973691355,-0.22448673,-4.5017,5.24944,12.48268,69.0
1774823225.6644926,9.059906005859375e-06,2026-03-29T22:27:05.664,2026-03-29T18:27:05.664,-28533.105,-42639.795,-80428.545,-50070.015,-10685.789999999999,-17405.055,6120.945,-54893.34,-19.149674305955937,-38.383886858000665,-14.596366049677886,9.257271388202623,11.282843841187693,7.776468365988343,-6.764664496561224,-9.440389720951906,-0.095763915,-0.973691355,-0.22448673,-4.5017,5.24944,12.48268,69.0
1774823225.6644993,6.67572021484375e-06,2026-03-29T22:27:05.664,2026-03-29T18:27:05.664,-28518.254999999997,-42651.99,-80439.345,-50062.994999999995,-10668.42,-17384.265,6176.565,-54884.25,-14.276406228015663,-37.53698445231721,-24.788791610555183,8.333694589527195,16.304171585322624,13.920519545612267,9.052929442062334,-5.30677165746615,-0.095763915,-0.973691355,-0.22448673,-4.5017,5.24944,12.48268,69.0
1774823225.6645064,7.152557373046875e-06,2026-03-29T22:27:05.664,2026-03-29T18:27:05.664,-28498.59,-42645.465,-80427.015,-50043.689999999995,-10646.369999999999,-17365.635,6182.01,-54866.744999999995,-4.3928711391346456,-21.914370438172625,-25.385987357320058,3.4281916134848895,13.896812994880298,14.245034650702596,20.936079155494046,0.6992203363794283,-0.095763915,-0.973691355,-0.22448673,-4.5017,5.24944,12.48268,69.0
1774823225.6645124,5.9604644775390625e-06,2026-03-29T22:27:05.664,2026-03-29T18:27:05.664,-28520.73,-42667.424999999996,-80442.54,-50052.375,-10652.85,-17376.885,6126.885,-54875.34,6.689714728978225,2.4604749512922837,-16.05080927201561,-3.596611695681885,5.030255787535407,8.371146495472807,23.9228134889712,5.848063154730663,-0.095763915,-0.973691355,-0.22448673,-4.5017,5.24944,12.48268,69.0
1774823225.66452,7.62939453125e-06,2026-03-29T22:27:05.664,2026-03-29T18:27:05.664,-28531.395,-42677.145,-80454.42,-50069.61,-10670.085,-17388.495,6097.32,-54880.2,14.997149645660622,26.147347747293505,-0.21113654643579632,-9.60228649209105,-6.270051750692743,-1.3481801723326288,16.857497738934494,8.060109923666733,-0.095763915,-0.973691355,-0.22448673,-4.5017,5.24944,12.48268,69.0
1774823225.6645253,5.245208740234375e-06,2026-03-29T22:27:05.664,2026-03-29T18:27:05.664,-28526.85,-42673.814999999995,-80451.0,-50068.17,-10668.734999999999,-17377.739999999998,6142.005,-54867.375,17.728012298565428,39.85131558245469,16.113366088067174,-11.605900004631089,-14.773767739288932,-10.764123587421157,2.8229404922817523,6.74582131564094,-0.095763915,-0.973691355,-0.22448673,-4.5017,5.24944,12.48268,69.0
1774823225.664532,6.67572021484375e-06,2026-03-29T22:27:05.664,2026-03-29T18:27:05.664,-28537.289999999997,-42688.755,-80470.53,-50094.09,-10701.72,-17418.87,6150.915,-54860.895,14.081587354943531,37.980369082984794,26.490233225188707,-8.295591487294658,-16.504113505025128,-15.719373524892884,-12.21689362833129,2.8835657601541897,-0.095763915,-0.973691355,-0.22448673,-4.5017,5.24944,12.48268,69.0
1774823225.6645377,5.7220458984375e-06,2026-03-29T22:27:05.664,2026-03-29T18:27:05.664,-28541.925,-42677.685,-80458.065,-50086.619999999995,-10698.93,-17423.595,6114.285,-54877.365,5.409056645924056,20.890557274691258,26.53658517105607,-0.8466212471597094,-10.630578936717933,-13.908541033412765,-21.96009672844968,-1.611593517468457,-0.095763915,-0.973691355,-0.22448673,-4.5017,5.24944,12.48268,69.0
1774823225.6645448,7.152557373046875e-06,2026-03-29T22:27:05.664,2026-03-29T18:27:05.664,-28562.489999999998,-42677.369999999995,-80454.23999999999,-50082.479999999996,-10687.949999999999,-17404.92,6079.455,-54905.715,-5.275953778922454,-5.059521035155389,15.765929742935128,7.452148441920564,0.11975886094157412,-5.967328623094109,-22.409558822169124,-4.848536826281655,-0.08569314,-0.947324235,-0.218322195,-18.983439999999998,8.91184,10.34628,69.0
1774823225.66455,5.245208740234375e-06,2026-03-29T22:27:05.664,2026-03-29T18:27:05.664,-28544.039999999997,-42652.08,-80416.70999999999,-50038.155,-10641.69,-17359.38,6099.57,-54897.93,-14.25533984641963,-29.764101138878434,-1.9550164290765308,12.670717727662362,10.740866708210378,4.731076027274178,-13.509685862448453,-5.763583534744672,-0.08569314,-0.947324235,-0.218322195,-18.983439999999998,8.91184,10.34628,69.0
1774823225.6645567,6.67572021484375e-06,2026-03-29T22:27:05.664,2026-03-29T18:27:05.664,-28523.565,-42643.53,-80390.79,-50001.705,-10609.199999999999,-17330.04,6132.6449999999995,-54880.29,-18.283022112840413,-43.20058572353253,-19.66736239967167,12.139831487711426,16.31028262256688,13.51853118393696,0.8883862444125217,-4.421721135985447,-0.08569314,-0.947324235,-0.218322195,-18.983439999999998,8.91184,10.34628,69.0
1774823225.6646216,6.4849853515625e-05,2026-03-29T22:27:05.664,2026-03-29T18:27:05.664,-28512.45,-42628.725,-80374.545,-49988.835,-10604.34,-17329.86,6126.4349999999995,-54869.895,-15.680961391187923,-39.44508142619916,-29.969566076361165,5.843353542777083,14.305455328609924,16.491151668089135,14.691923854820223,-1.7618822243519465,-0.08569314,-0.947324235,-0.218322195,-18.983439999999998,8.91184,10.34628,69.0
1774823225.6646295,7.867813110351562e-06,2026-03-29T22:27:05.664,2026-03-29T18:27:05.664,-28517.039999999997,-42625.439999999995,-80392.23,-50026.68,-10647.494999999999,-17369.774999999998,6134.76,-54872.189999999995,-7.032351878564738,-19.295386516824372,-28.096893011783813,-3.4354498241625016,5.767535106398726,12.26589334225041,22.14422788279912,0.9904186370285097,-0.08569314,-0.947324235,-0.218322195,-18.983439999999998,8.91184,10.34628,69.0
1774823225.6646347,5.245208740234375e-06,2026-03-29T22:27:05.664,2026-03-29T18:27:05.664,-28549.98,-42668.369999999995,-80441.955,-50080.14,-10690.695,-17397.09,6159.285,-54881.415,4.810260638796853,9.663320478927318,-14.158725275441805,-11.354544734266494,-5.233978578358199,2.6339213925081992,20.227844695709685,2.8965741522369304,-0.08569314,-0.947324235,-0.218322195,-18.983439999999998,8.91184,10.34628,69.0
1774823225.6646433,8.58306884765625e-06,2026-03-29T22:27:05.664,2026-03-29T18:27:05.664,-28546.739999999998,-42684.075,-80469.72,-50088.645,-10679.85,-17375.895,6184.035,-54876.869999999995,15.531817596564153,35.783980122521704,6.532325151036092,-14.082119834488745,-13.561462055595186,-8.201562308354005,9.892187671042022,3.592177567835554,-0.08569314,-0.947324235,-0.218322195,-18.983439999999998,8.91184,10.34628,69.0
1774823225.6646488,5.4836273193359375e-06,2026-03-29T22:27:05.664,2026-03-29T18:27:05.664,-28533.105,-42674.715,-80450.055,-50080.095,-10678.095,-17378.91,6155.91,-54879.03,20.835891565703772,47.972749035535855,25.384487473864134,-10.19034315922332,-15.43968091216869,-15.476488849876002,-4.395463370964449,3.2210389252386618,-0.08569314,-0.947324235,-0.218322195,-18.983439999999998,8.91184,10.34628,69.0
1774823225.6678572,0.0032083988189697266,2026-03-29T22:27:05.667,2026-03-29T18:27:05.667,-28497.51,-42663.689999999995,-80439.39,-50079.42,-10687.994999999999,-17394.704999999998,6129.9,-54862.47,18.14673610909374,40.40616656264425,34.06954040207963,-1.420349579863182,-10.191682107890104,-15.98208431911679,-16.571843550006857,2.154974537935421,-0.08569314,-0.947324235,-0.218322195,-18.983439999999998,8.91184,10.34628,69.0
1774823225.6678808,2.3603439331054688e-05,2026-03-29T22:27:05.667,2026-03-29T18:27:05.667,-28513.575,-42657.479999999996,-80411.355,-50055.21,-10674.494999999999,-17388.18,6118.469999999999,-54865.799999999996,7.869704588302641,15.344703180708866,28.2389302429716,8.097250176196619,-0.4703632690254537,-9.495798786635232,-21.55239959784955,0.7289905789094742,-0.08569314,-0.947324235,-0.218322195,-18.983439999999998,8.91184,10.34628,69.0
1774823225.6753376,0.007456779479980469,2026-03-29T22:27:05.675,2026-03-29T18:27:05.675,-28560.87,-42699.465,-80413.33499999999,-50052.33,-10674.18,-17390.34,6105.42,-54875.79,-6.410658290556232,-17.32970523893694,9.737422657159264,13.816540365722187,9.085668688919313,1.1178902316196158,-17.36767342972334,-0.8418382753271559,-0.08374002,-0.95495361,-0.22192326,-19.3039,8.95762,8.95762,69.0
1774823225.675367,2.956390380859375e-05,2026-03-29T22:27:05.675,2026-03-29T18:27:05.675,-28622.565,-42827.13,-80478.98999999999,-50062.725,-10674.99,-17388.045,6094.035,-54878.805,-19.066343550866883,-43.91626793643705,-13.82799138349283,12.987430864129033,14.088159152695244,11.18280046435942,-5.9589765109713175,-2.3587286337793842,-0.08374002,-0.95495361,-0.22192326,-19.3039,8.95762,8.95762,69.0
1774823225.6753993,3.218650817871094e-05,2026-03-29T22:27:05.675,2026-03-29T18:27:05.675,-28651.454999999998,-42864.299999999996,-80529.795,-50065.244999999995,-10671.119999999999,-17380.26,6094.44,-54887.939999999995,-24.60695597789641,-52.62984299702135,-32.17670742276546,6.009596196867076,12.437855435618186,16.28891396290921,7.69763335354377,-3.49141335961203,-0.08374002,-0.95495361,-0.22192326,-19.3039,8.95762,8.95762,69.0
1774823225.6754117,1.239776611328125e-05,2026-03-29T22:27:05.675,2026-03-29T18:27:05.675,-28638.719999999998,-42851.52,-80559.765,-50042.88,-10652.895,-17368.829999999998,6091.92,-54894.555,-20.082028513720317,-38.875311273459936,-36.869920505372356,-3.7513475545433628,5.2072198949432185,14.240761565369143,17.755726936795337,-3.765561982138614,-0.08374002,-0.95495361,-0.22192326,-19.3039,8.95762,8.95762,69.0
1774823225.679693,0.004281282424926758,2026-03-29T22:27:05.679,2026-03-29T18:27:05.679,-28567.215,-42737.13,-80523.9,-50027.22,-10648.305,-17357.445,6095.61,-54880.515,-6.6440364069704705,-7.678275894615233,-25.25504883156405,-11.604253419308208,-4.004298884649557,6.008216407111706,20.014878299623653,-2.766141348599268,-0.08374002,-0.95495361,-0.22192326,-19.3039,8.95762,8.95762,69.0
1774823225.6797245,3.147125244140625e-05,2026-03-29T22:27:05.679,2026-03-29T18:27:05.679,-28510.92,-42608.159999999996,-80467.155,-50068.575,-10672.65,-17344.35,6139.9349999999995,-54873.63,10.552224853018298,28.015192798648176,-1.965192045189047,-13.820907579076131,-10.870656184331558,-4.734398572919702,13.701110879111715,-0.46698844021576563,-0.08374002,-0.95495361,-0.22192326,-19.3039,8.95762,8.95762,69.0
1774823225.6837204,0.0039958953857421875,2026-03-29T22:27:05.683,2026-03-29T18:27:05.683,-28457.19,-42502.994999999995,-80365.905,-50080.59,-10687.68,-17380.395,6183.719999999999,-54858.104999999996,24.268777203422676,52.67886711455873,22.87182567581928,-9.439743003110598,-12.389446160668651,-13.259955543878105,1.7438026822764265,2.5326607101169265,-0.08374002,-0.95495361,-0.22192326,-19.3039,8.95762,8.95762,69.0
1774823225.6837525,3.218650817871094e-05,2026-03-29T22:27:05.683,2026-03-29T18:27:05.683,-28425.914999999997,-42484.77,-80332.02,-50073.795,-10674.72,-17424.09,6142.905,-54826.02,28.240814510143753,55.002836047063624,38.05678424434631,-0.6963058477653237,-8.200850304495145,-15.882243911037055,-10.560929127183568,5.079086376533692,-0.08374002,-0.95495361,-0.22192326,-19.3039,8.95762,8.95762,69.0
1774823225.6942885,0.010535955429077148,2026-03-29T22:27:05.694,2026-03-29T18:27:05.694,-28459.98,-42561.225,-80358.03,-50049.854999999996,-10661.625,-17420.895,6076.844999999999,-54824.445,20.07522783379968,33.151232623614796,36.4338296564468,8.118704201932669,-0.5931439604109406,-11.558003376158744,-17.901340599373054,5.902836823643004,-0.08374002,-0.95495361,-0.22192326,-19.3039,8.95762,8.95762,69.0
1774823225.6943223,3.3855438232421875e-05,2026-03-29T22:27:05.694,2026-03-29T18:27:05.694,-28445.309999999998,-42580.08,-80369.595,-50020.604999999996,-10641.779999999999,-17383.005,6076.62,-54829.53,2.633370935460255,-3.9956859307267742,18.32882293486088,12.788478274236182,6.7302226764551545,-2.297896499384335,-17.27044720757434,4.26095443336493,-0.08374002,-0.95495361,-0.22192326,-19.3039,8.95762,8.95762,69.0
1774823225.6943488,2.6464462280273438e-05,2026-03-29T22:27:05.694,2026-03-29T18:27:05.694,-28466.19,-42607.89,-80406.72,-50044.275,-10660.545,-17385.57,6090.66,-54829.53,-16.878845634252663,-40.392115467412104,-8.37167853695459,11.217868461133657,10.46277144822916,7.7721333585984045,-9.22909599263365,0.45392638064430574,-0.083068635,-0.967221645,-0.221129805,-9.6901,12.894699999999998,5.890359999999999,69.0
1774823225.6943605,1.1682510375976562e-05,2026-03-29T22:27:05.694,2026-03-29T18:27:05.694,-28493.145,-42632.369999999995,-80425.215,-50057.685,-10662.029999999999,-17375.22,6117.84,-54836.595,-29.88137947977994,-59.783203923253744,-31.66090846428331,4.390536918152562,9.194105860030508,14.258105405137378,2.435884298521997,-4.105910019138283,-0.083068635,-0.967221645,-0.221129805,-9.6901,12.894699999999998,5.890359999999999,69.0
1774823225.6943746,1.4066696166992188e-05,2026-03-29T22:27:05.694,2026-03-29T18:27:05.694,-28512.495,-42659.01,-80452.395,-50080.77,-10672.38,-17384.76,6110.775,-54841.095,-30.23014552128795,-53.03973814473357,-40.86868316763523,-4.210175900809049,3.9131103636770197,14.42228375889257,12.480614240023412,-7.401361239769946,-0.083068635,-0.967221645,-0.221129805,-9.6901,12.894699999999998,5.890359999999999,69.0
1774823225.6943853,1.0728836059570312e-05,2026-03-29T22:27:05.694,2026-03-29T18:27:05.694,-28498.364999999998,-42639.479999999996,-80432.595,-50062.994999999995,-10659.465,-17379.945,6148.08,-54832.005,-17.157118395572457,-22.52564933624852,-31.625797246541243,-10.387060998380052,-2.645538151293065,8.339040352111269,16.579870637970753,-7.720142123067257,-0.083068635,-0.967221645,-0.221129805,-9.6901,12.894699999999998,5.890359999999999,69.0
1774823225.7010274,0.00664210319519043,2026-03-29T22:27:05.701,2026-03-29T18:27:05.701,-28498.23,-42634.034999999996,-80418.78,-50051.564999999995,-10656.225,-17377.739999999998,6146.325,-54830.204999999994,4.082325591923257,18.621789484341633,-7.989434225231862,-11.300591352925844,-7.411325549264518,-1.2045630937167902,13.224510764548082,-4.548775518328584,-0.083068635,-0.967221645,-0.221129805,-9.6901,12.894699999999998,5.890359999999999,69.0
1774823225.701046,1.8596649169921875e-05,2026-03-29T22:27:05.701,2026-03-29T18:27:05.701,-28506.329999999998,-42635.205,-80420.58,-50053.049999999996,-10660.185,-17390.475,6054.57,-54846.18,24.295339523038997,52.151291186114086,19.32788453669896,-6.791933755225944,-8.418188346237272,-9.98788441565058,4.290603337157116,1.0174210495141216,-0.083068635,-0.967221645,-0.221129805,-9.6901,12.894699999999998,5.890359999999999,69.0
1774823225.7036448,0.0025987625122070312,2026-03-29T22:27:05.703,2026-03-29T18:27:05.703,-28503.809999999998,-42629.49,-80407.89,-50040.45,-10656.855,-17405.145,6037.469999999999,-54845.685,34.3568489528412,62.8569657688521,37.857616851515175,0.667874506569577,-5.597491799910195,-14.226659718478816,-5.945090589107881,6.620192879884586,-0.083068635,-0.967221645,-0.221129805,-9.6901,12.894699999999998,5.890359999999999,69.0
1774823225.7036648,2.002716064453125e-05,2026-03-29T22:27:05.703,2026-03-29T18:27:05.703,-28500.93,-42634.395,-80411.805,-50039.1,-10652.94,-17396.64,6087.24,-54831.195,29.375934089471084,45.5589169085755,39.13956960387347,7.318944771370252,-0.6146788311501772,-12.20401089408849,-12.847526708557899,9.650356397880925,-0.083068635,-0.967221645,-0.221129805,-9.6901,12.894699999999998,5.890359999999999,69.0
1774823225.709774,0.0061092376708984375,2026-03-29T22:27:05.709,2026-03-29T18:27:05.709,-28482.03,-42616.935,-80394.25499999999,-50017.275,-10623.779999999999,-17351.415,6141.42,-54813.195,11.099357357911131,7.660648719823114,22.6500109132085,10.01967016912601,4.076966958001851,-4.960456382062855,-13.549036195080548,8.485095732063348,-0.083068635,-0.967221645,-0.221129805,-9.6901,12.894699999999998,5.890359999999999,69.0
1774823225.7098024,2.8371810913085938e-05,2026-03-29T22:27:05.709,2026-03-29T18:27:05.709,-28486.934999999998,-42621.615,-80399.655,-50024.475,-10627.74,-17346.465,6074.235,-54820.799999999996,-12.639033449944256,-33.999986568301104,-3.9620514634791673,7.745617213315311,6.43979751386444,4.230239499367918,-8.170123447008775,3.3539309836674573,-0.083068635,-0.967221645,-0.221129805,-9.6901,12.894699999999998,5.890359999999999,69.0
1774823225.7098267,2.4318695068359375e-05,2026-03-29T22:27:05.709,2026-03-29T18:27:05.709,-28524.195,-42661.034999999996,-80439.48,-50064.795,-10659.15,-17362.934999999998,6014.385,-54846.045,-31.28720263737439,-60.676358265817555,-28.44846306861568,1.9571801031460923,5.72279333873672,11.338450413452225,0.4002759236799497,-3.6269678118160344,-0.073669245,-0.96423093,-0.21679632000000001,-8.37774,16.633399999999998,2.45686,69.0
1774823225.7098367,1.0013580322265625e-05,2026-03-29T22:27:05.709,2026-03-29T18:27:05.709,-28560.195,-42704.549999999996,-80484.25499999999,-50107.32,-10696.859999999999,-17395.515,6146.46,-54847.665,-36.3071169237889,-60.22894586895049,-39.66198475361393,-4.282821976715892,2.6355508911473264,13.343516894456739,8.004871164688714,-9.332350900571386,-0.073669245,-0.96423093,-0.21679632000000001,-8.37774,16.633399999999998,2.45686,69.0
1774823225.7175076,0.007670879364013672,2026-03-29T22:27:05.717,2026-03-29T18:27:05.717,-28578.059999999998,-42736.229999999996,-80525.79,-50149.845,-10741.275,-17442.18,6231.33,-54831.465,-25.12796825466088,-32.72426815168293,-32.69833054614634,-7.92651424152472,-1.1659476244192362,9.515023510158828,11.236232522963151,-11.05062047336399,-0.073669245,-0.96423093,-0.21679632000000001,-8.37774,16.633399999999998,2.45686,69.0
1774823225.7175329,2.5272369384765625e-05,2026-03-29T22:27:05.717,2026-03-29T18:27:05.717,-28560.87,-42708.78,-80500.23,-50129.235,-10724.625,-17435.745,6139.755,-54836.505,-2.470424421278006,9.49994458184546,-11.074845841489577,-7.438756981412826,-3.9503101934477654,1.66968048512938,8.9907733819313,-7.792929721459122,-0.073669245,-0.96423093,-0.21679632000000001,-8.37774,16.633399999999998,2.45686,69.0
1774823225.7229767,0.0054438114166259766,2026-03-29T22:27:05.722,2026-03-29T18:27:05.722,-28519.065,-42628.905,-80404.965,-50041.665,-10649.97,-17365.545,6156.135,-54842.67,21.641340890754577,47.390728518824204,15.038711027578524,-3.4338749889852123,-4.6856912043840735,-6.680694001752461,2.8361411471448146,-0.8480397770786842,-0.073669245,-0.96423093,-0.21679632000000001,-8.37774,16.633399999999998,2.45686,69.0
1774823225.7229996,2.288818359375e-05,2026-03-29T22:27:05.722,2026-03-29T18:27:05.722,-28509.704999999998,-42588.99,-80343.36,-49987.259999999995,-10612.8,-17342.46,6170.445,-54829.259999999995,36.34414024369264,63.842610005669826,33.64792160046734,1.8069369382229994,-3.37856138443672,-11.894338421043642,-3.927779320581966,6.722393521330239,-0.073669245,-0.96423093,-0.21679632000000001,-8.37774,16.633399999999998,2.45686,69.0
1774823225.7230237,2.4080276489257812e-05,2026-03-29T22:27:05.723,2026-03-29T18:27:05.723,-28547.055,-42624.765,-80359.605,-50005.08,-10636.289999999999,-17367.39,6164.55,-54833.715,34.87337270987317,51.495700595903024,36.50469407745107,5.611258738076051,-0.8945738646560815,-11.784204001449734,-7.992337585937326,11.452686740002253,-0.073669245,-0.96423093,-0.21679632000000001,-8.37774,16.633399999999998,2.45686,69.0
1774823225.7230308,7.152557373046875e-06,2026-03-29T22:27:05.723,2026-03-29T18:27:05.723,-28547.774999999998,-42662.07,-80412.39,-50060.744999999995,-10685.835,-17403.03,6135.795,-54832.14,17.70932107145781,16.07784986330393,22.8027582584763,6.278534828184118,1.5645931771140948,-6.535699181231372,-7.662339738605349,11.084739552435508,-0.073669245,-0.96423093,-0.21679632000000001,-8.37774,16.633399999999998,2.45686,69.0
1774823225.7312236,0.008192777633666992,2026-03-29T22:27:05.731,2026-03-29T18:27:05.731,-28522.664999999997,-42693.75,-80459.55,-50090.31,-10699.65,-17406.72,6130.485,-54814.095,-7.545377524917129,-26.249104730984353,-0.6778326320570918,3.8335447479365397,3.027093443165939,1.426600923809701,-3.5783288519098457,5.661676388003026,-0.073669245,-0.96423093,-0.21679632000000001,-8.37774,16.633399999999998,2.45686,69.0
1774823225.7312481,2.4557113647460938e-05,2026-03-29T22:27:05.731,2026-03-29T18:27:05.731,-28539.36,-42744.51,-80501.805,-50068.439999999995,-10656.99,-17364.105,6121.62,-54827.595,-29.54802512458903,-56.30813430104913,-22.939987376430288,-0.16025672211702294,3.0995470440334323,8.545480988013711,1.7772909151902563,-2.4323689763852205,-0.073669245,-0.96423093,-0.21679632000000001,-8.37774,16.633399999999998,2.45686,69.0
1774823225.7382395,0.006991386413574219,2026-03-29T22:27:05.738,2026-03-29T18:27:05.738,-28602.629999999997,-42757.424999999996,-80487.045,-50035.905,-10622.115,-17329.59,6140.34,-54864.18,-38.34451753356215,-60.6620534548424,-33.96869143119456,-3.548233717656454,1.996367622953943,11.712287985654383,5.481100684782626,-9.532379088751881,-0.079040325,-0.96716061,-0.225158115,-15.519419999999998,15.35156,0.33571999999999996,69.0
1774823225.7382617,2.2172927856445312e-05,2026-03-29T22:27:05.738,2026-03-29T18:27:05.738,-28604.43,-42726.42,-80462.87999999999,-50056.875,-10645.47,-17350.425,6163.245,-54865.619999999995,-29.908767616799935,-37.675065888500875,-29.276635221798152,-4.73645956132057,0.31883872419451487,9.624904835198613,5.718361766812302,-12.374802898402951,-0.079040325,-0.96716061,-0.225158115,-15.519419999999998,15.35156,0.33571999999999996,69.0
1774823225.7382803,1.8596649169921875e-05,2026-03-29T22:27:05.738,2026-03-29T18:27:05.738,-28495.26,-42654.915,-80437.36499999999,-50084.145,-10683.945,-17395.92,6101.37,-54835.064999999995,-8.0068872325916,1.8789222680872748,-11.712853371098975,-3.4348464422455525,-1.2526848955343122,3.3302673554040467,2.6745908655632813,-9.619235819314373,-0.079040325,-0.96716061,-0.225158115,-15.519419999999998,15.35156,0.33571999999999996,69.0
1774823225.738288,7.62939453125e-06,2026-03-29T22:27:05.738,2026-03-29T18:27:05.738,-28415.295,-42573.6,-80394.345,-50064.435,-10688.31,-17413.829999999998,6044.67,-54803.115,17.484742908746295,39.88277586786234,10.184083335501848,-0.647643855952385,-2.2027206638901062,-4.277982093396322,-1.6710379342701835,-2.490615216697691,-0.079040325,-0.96716061,-0.225158115,-15.519419999999998,15.35156,0.33571999999999996,69.0
1774823225.7422397,0.0039517879486083984,2026-03-29T22:27:05.742,2026-03-29T18:27:05.742,-28454.67,-42576.57,-80377.605,-50032.439999999995,-10662.48,-17400.555,6058.844999999999,-54806.13,35.053904160223176,59.22346868488432,26.36276624132644,2.0051771895859547,-2.293900801889405,-9.774772841880978,-4.705153271681706,5.769260477202487,-0.079040325,-0.96716061,-0.225158115,-15.519419999999998,15.35156,0.33571999999999996,69.0
1774823225.7422566,1.6927719116210938e-05,2026-03-29T22:27:05.742,2026-03-29T18:27:05.742,-28493.055,-42632.369999999995,-80422.92,-50070.869999999995,-10688.039999999999,-17423.82,6070.545,-54818.64,36.781328693280024,51.549020855299474,29.907634751074124,3.206824696457782,-1.5694596778651513,-10.741601601074537,-4.649830526367245,11.39255302421616,-0.079040325,-0.96716061,-0.225158115,-15.519419999999998,15.35156,0.33571999999999996,69.0
1774823225.7438612,0.0016045570373535156,2026-03-29T22:27:05.743,2026-03-29T18:27:05.743,-28521.0,-42729.57,-80472.735,-50094.99,-10693.98,-17417.79,6082.155,-54814.275,21.93540852142819,20.89480921267403,19.99155167025496,2.5891896106923893,-0.3013679293096281,-6.839543198586675,-1.5472185694688285,11.824859759480532,-0.079040325,-0.96716061,-0.225158115,-15.519419999999998,15.35156,0.33571999999999996,69.0
1774823225.743888,2.6702880859375e-05,2026-03-29T22:27:05.743,2026-03-29T18:27:05.743,-28560.465,-42791.534999999996,-80476.83,-50081.354999999996,-10679.94,-17394.75,6121.125,-54819.81,-2.7087193866085912,-18.40272855165012,1.874508456943438,0.7910611939902634,1.080214538928876,0.062386592720673775,2.7683291767799565,6.901035183706032,-0.079040325,-0.96716061,-0.225158115,-15.519419999999998,15.35156,0.33571999999999996,69.0
1774823225.7492125,0.005324602127075195,2026-03-29T22:27:05.749,2026-03-29T18:27:05.749,-28581.075,-42774.39,-80459.415,-50063.04,-10667.88,-17373.465,6163.0199999999995,-54834.795,-25.96708609366575,-48.436061015831996,-15.86520256890969,-1.0331294504937028,2.081920151962618,6.759354776763595,5.693615719855954,-1.0901110346691634,-0.079040325,-0.96716061,-0.225158115,-15.519419999999998,15.35156,0.33571999999999996,69.0
1774823225.7492316,1.9073486328125e-05,2026-03-29T22:27:05.749,2026-03-29T18:27:05.749,-28572.075,-42726.375,-80456.04,-50043.33,-10649.744999999999,-17359.515,6173.1449999999995,-54842.939999999995,-37.3405534258758,-55.92614771502323,-25.415079659250843,-1.9186843999399097,2.2869308562691195,10.186831298555424,5.323974582905868,-8.47753539727264,-0.079040325,-0.96716061,-0.225158115,-15.519419999999998,15.35156,0.33571999999999996,69.0
1774823225.752084,0.0028524398803710938,2026-03-29T22:27:05.752,2026-03-29T18:27:05.752,-28550.655,-42691.994999999995,-80466.61499999999,-50058.99,-10676.205,-17392.86,6113.835,-54839.564999999995,-31.775567602248632,-38.117847100628936,-23.170698761312774,-1.5919148165752124,1.5269312440714917,8.827049552377927,1.569603280988592,-11.909885107898344,-0.086364525,-0.97839105,-0.22497501,-17.10646,13.82556,-1.2055399999999998,69.0
1774823225.7521088,2.47955322265625e-05,2026-03-29T22:27:05.752,2026-03-29T18:27:05.752,-28527.344999999998,-42621.84,-80417.79,-50053.77,-10677.914999999999,-17397.72,6000.3,-54851.67,-11.92477067905995,-3.7439497165296003,-11.019049206049782,-0.5093599961416772,0.0165533878992235,3.3990812083180644,-3.697485219471533,-9.89140583679436,-0.086364525,-0.97839105,-0.22497501,-17.10646,13.82556,-1.2055399999999998,69.0
1774823225.7632585,0.01114964485168457,2026-03-29T22:27:05.763,2026-03-29T18:27:05.763,-28475.64,-42550.74,-80405.86499999999,-50074.965,-10678.68,-17390.34,6013.035,-54853.02,13.108528189142792,31.24823939412246,4.945716810171411,0.5305997749801766,-1.6491553312617906,-3.489676713982291,-7.576587687117844,-3.4414591974392628,-0.086364525,-0.97839105,-0.22497501,-17.10646,13.82556,-1.2055399999999998,69.0
1774823225.7632792,2.0742416381835938e-05,2026-03-29T22:27:05.763,2026-03-29T18:27:05.763,-28446.344999999998,-42555.689999999995,-80429.48999999999,-50101.11,-10695.69,-17410.995,6130.08,-54813.375,31.94917896388639,51.11636419073189,17.476199343253036,0.923331244178803,-2.6946740994375085,-8.57403904013767,-7.6861746601092715,4.415666456967261,-0.086364525,-0.97839105,-0.22497501,-17.10646,13.82556,-1.2055399999999998,69.0
1774823225.7632995,2.0265579223632812e-05,2026-03-29T22:27:05.763,2026-03-29T18:27:05.763,-28446.3,-42583.365,-80426.06999999999,-50065.965,-10654.289999999999,-17373.735,6226.335,-54789.03,36.13112971364938,47.42519321478776,21.46305793062065,0.6006123427865177,-2.517694980280915,-9.472847920409361,-3.5176549610908294,10.075836326358548,-0.086364525,-0.97839105,-0.22497501,-17.10646,13.82556,-1.2055399999999998,69.0
1774823225.7633069,7.3909759521484375e-06,2026-03-29T22:27:05.763,2026-03-29T18:27:05.763,-28489.59,-42642.854999999996,-80454.78,-50097.33,-10683.855,-17392.815,6189.705,-54800.729999999996,23.915989328971527,22.618980910447373,15.968010903747377,-0.011045322495923167,-1.0391795015241443,-5.817040216762117,3.1405423873865033,11.019741266187877,-0.086364525,-0.97839105,-0.22497501,-17.10646,13.82556,-1.2055399999999998,69.0
1774823225.7633152,8.344650268554688e-06,2026-03-29T22:27:05.763,2026-03-29T18:27:05.763,-28514.34,-42647.04,-80431.965,-50077.619999999995,-10685.34,-17403.75,6149.565,-54811.259999999995,1.0222512931008223,-11.441300722109787,4.219655274526089,-0.353083252788337,1.1534545921011194,0.5760169208467061,8.982699452992412,6.943375429273838,-0.086364525,-0.97839105,-0.22497501,-17.10646,13.82556,-1.2055399999999998,69.0
1774823225.7633216,6.4373016357421875e-06,2026-03-29T22:27:05.763,2026-03-29T18:27:05.763,-28502.28,-42637.905,-80415.98999999999,-50048.64,-10660.095,-17384.265,6150.42,-54809.595,-22.042203628342826,-39.14530144914306,-8.209978136311678,-0.15530526226400104,3.0018109400948547,6.57603885870763,10.823193063434305,-0.15617817000551312,-0.086364525,-0.97839105,-0.22497501,-17.10646,13.82556,-1.2055399999999998,69.0
1774823225.7699082,0.006586551666259766,2026-03-29T22:27:05.769,2026-03-29T18:27:05.769,-28491.344999999998,-42658.155,-80456.67,-50076.63,-10674.27,-17390.97,6137.325,-54803.61,-34.80286112283241,-48.29646999807162,-16.042634103318797,0.3733799442124127,3.47141587083523,9.25405326728896,7.282032555690654,-6.955343656580832,-0.086364525,-0.97839105,-0.22497501,-17.10646,13.82556,-1.2055399999999998,69.0
1774823225.769923,1.4781951904296875e-05,2026-03-29T22:27:05.769,2026-03-29T18:27:05.769,-28494.989999999998,-42641.775,-80427.69,-50056.92,-10663.515,-17386.065,6124.41,-54809.369999999995,-31.583407472265883,-35.48031109311679,-16.497976720737338,0.7100170930598232,2.122123107645169,7.312836684442009,-0.35451127501239227,-10.363855769949152,-0.086364525,-0.97839105,-0.22497501,-17.10646,13.82556,-1.2055399999999998,69.0
1774823225.769938,1.5020370483398438e-05,2026-03-29T22:27:05.769,2026-03-29T18:27:05.769,-28503.315,-42638.67,-80412.75,-50044.095,-10656.945,-17384.445,6114.285,-54810.99,-14.042997992160505,-7.278124330151966,-10.165791329198706,0.4234647003788042,-0.5570651473786881,1.734705048654175,-8.589648168065116,-8.935740332174905,-0.084899685,-0.98168694,-0.22228947000000002,-12.65054,16.81652,-3.70818,69.0
1774823225.7699432,5.245208740234375e-06,2026-03-29T22:27:05.769,2026-03-29T18:27:05.769,-28508.309999999998,-42656.85,-80420.895,-50045.715,-10658.925,-17383.905,6110.19,-54809.1,9.652151121907828,23.06819421555909,-0.34907449351439807,-0.4604331267920542,-3.2787340135748884,-4.685025098573842,-13.331743756524597,-3.48499932643052,-0.084899685,-0.98168694,-0.22228947000000002,-12.65054,16.81652,-3.70818,69.0
1774823225.775814,0.005870819091796875,2026-03-29T22:27:05.775,2026-03-29T18:27:05.775,-28520.864999999998,-42674.445,-80439.48,-50065.02,-10676.88,-17395.245,6107.849999999999,-54809.1,28.61805249036403,41.86534157940123,8.63058661839845,-1.3994965137435622,-4.553636835928776,-8.710322605615852,-11.917360413517802,3.3560536151714904,-0.084899685,-0.98168694,-0.22228947000000002,-12.65054,16.81652,-3.70818,69.0
1774823225.7758384,2.4318695068359375e-05,2026-03-29T22:27:05.775,2026-03-29T18:27:05.775,-28530.18,-42684.795,-80460.62999999999,-50086.845,-10697.355,-17413.02,6095.925,-54819.405,34.250288639520235,41.14359424937232,13.305785778057988,-1.653197386788682,-3.4870008277637985,-8.280505246466177,-4.546163924693292,8.40257512123049,-0.084899685,-0.98168694,-0.22228947000000002,-12.65054,16.81652,-3.70818,69.0
1774823225.7795773,0.003738880157470703,2026-03-29T22:27:05.779,2026-03-29T18:27:05.779,-28528.379999999997,-42688.845,-80469.765,-50081.805,-10694.295,-17410.005,6096.87,-54819.494999999995,24.13677129607785,22.016727464440933,12.319029194700676,-0.7967616117188239,-0.3554501213766357,-3.568943523272232,5.623117432689939,9.399945888154415,-0.084899685,-0.98168694,-0.22228947000000002,-12.65054,16.81652,-3.70818,69.0
1774823225.7796156,3.838539123535156e-05,2026-03-29T22:27:05.779,2026-03-29T18:27:05.779,-28513.844999999998,-42660.765,-80442.54,-50063.85,-10675.755,-17394.39,6104.745,-54819.9,3.1037203638511532,-6.177340305325955,6.658815814205775,0.9012494500291564,3.3893861002934105,3.061131466948147,13.837558945470107,6.0333236066431635,-0.084899685,-0.98168694,-0.22228947000000002,-12.65054,16.81652,-3.70818,69.0
1774823225.7860684,0.006452798843383789,2026-03-29T22:27:05.786,2026-03-29T18:27:05.786,-28519.245,-42643.395,-80415.98999999999,-50054.22,-10652.13,-17370.989999999998,6125.49,-54826.92,-19.0645851746817,-30.403710705387397,-1.0398914024641328,2.516081753072386,5.76912678968305,8.211866988751874,15.98090236894255,0.011850072955433933,-0.084899685,-0.98168694,-0.22228947000000002,-12.65054,16.81652,-3.70818,69.0
1774823225.786086,1.7642974853515625e-05,2026-03-29T22:27:05.786,2026-03-29T18:27:05.786,-28543.41,-42641.64,-80403.03,-50051.88,-10646.685,-17364.735,6137.955,-54828.314999999995,-32.16461215447265,-39.94338423477404,-7.695550523086019,2.9556324348982117,5.301726679033158,9.164867183237995,10.620521972257123,-5.784549775248736,-0.084899685,-0.98168694,-0.22228947000000002,-12.65054,16.81652,-3.70818,69.0
1774823225.7861772,9.107589721679688e-05,2026-03-29T22:27:05.786,2026-03-29T18:27:05.786,-28525.14,-42653.88,-80416.17,-50036.715,-10634.94,-17356.005,6132.78,-54805.005,-30.271680967078538,-31.125546289137862,-10.947245309930386,1.6476157720730638,1.878345555579894,5.299926194862888,-0.13970872103060367,-8.67452892027092,-0.084899685,-0.98168694,-0.22228947000000002,-12.65054,16.81652,-3.70818,69.0
1774823225.7861843,7.152557373046875e-06,2026-03-29T22:27:05.786,2026-03-29T18:27:05.786,-28466.28,-42626.88,-80404.69499999999,-50014.755,-10626.705,-17352.045,6107.13,-54781.829999999994,-14.434107032699004,-8.697091265372293,-9.88799363043548,-0.9890548968004388,-3.0086635636963144,-1.516252531231788,-11.476473831777218,-7.4127920100460925,-0.084899685,-0.98168694,-0.22228947000000002,-12.65054,16.81652,-3.70818,69.0
1774823225.7919393,0.005754947662353516,2026-03-29T22:27:05.791,2026-03-29T18:27:05.791,-28484.954999999998,-42647.4,-80432.50499999999,-50050.125,-10661.85,-17391.149999999998,6096.42,-54787.365,7.868337234889292,16.65724811277916,-5.205782927850639,-3.6208862147063225,-6.888705074626471,-7.808157944597562,-18.02109787374853,-2.7262844194463685,-0.0805662,-0.987363195,-0.219787035,-5.58516,21.22666,-5.76828,69.0
1774823225.7919593,2.002716064453125e-05,2026-03-29T22:27:05.791,2026-03-29T18:27:05.791,-28521.135,-42654.375,-80430.39,-50055.255,-10660.994999999999,-17386.38,6102.045,-54813.42,26.235775596482114,33.3766319178515,1.2019110266350252,-4.658560374678954,-7.542474228387411,-10.23423162943155,-16.406723592009,3.0806894010284074,-0.0805662,-0.987363195,-0.219787035,-5.58516,21.22666,-5.76828,69.0
1774823225.7957704,0.0038111209869384766,2026-03-29T22:27:05.795,2026-03-29T18:27:05.795,-28522.17,-42657.659999999996,-80405.145,-50028.345,-10638.315,-17364.78,6109.425,-54821.7,32.19082509958243,34.28299022962687,6.942802070968228,-3.1781580595080463,-4.233640443595991,-7.331898884044668,-6.980045015931716,7.245088720918591,-0.0805662,-0.987363195,-0.219787035,-5.58516,21.22666,-5.76828,69.0
1774823225.7957864,1.5974044799804688e-05,2026-03-29T22:27:05.795,2026-03-29T18:27:05.795,-28487.52,-42665.04,-80414.81999999999,-50038.29,-10656.27,-17382.87,6141.735,-54799.02,23.100887265528453,19.65208571938752,9.93865144957243,0.41567506836014484,1.7276256759269717,-0.36431546491231626,6.183142617255226,7.8496719237549115,-0.0805662,-0.987363195,-0.219787035,-5.58516,21.22666,-5.76828,69.0
1774823225.7998261,0.004039764404296875,2026-03-29T22:27:05.799,2026-03-29T18:27:05.799,-28482.975,-42687.225,-80447.58,-50059.034999999996,-10663.965,-17378.01,6159.915,-54788.265,3.3605650290263513,-3.2112307051809394,9.109408707691808,4.416723908764364,7.465416493497021,7.209089193507092,17.0432845688225,4.70173594050596,-0.0805662,-0.987363195,-0.219787035,-5.58516,21.22666,-5.76828,69.0
1774823225.7998421,1.5974044799804688e-05,2026-03-29T22:27:05.799,2026-03-29T18:27:05.799,-28530.765,-42730.784999999996,-80444.06999999999,-50060.61,-10669.005,-17382.78,6106.635,-54800.909999999996,-17.706984461980554,-23.57091351924881,4.749892752836264,6.611450575130861,9.91091009601833,11.428331959669164,20.378689295364733,-0.614559182738701,-0.0805662,-0.987363195,-0.219787035,-5.58516,21.22666,-5.76828,69.0
1774823225.8039904,0.004148244857788086,2026-03-29T22:27:05.803,2026-03-29T18:27:05.803,-28562.085,-42768.18,-80432.415,-50040.09,-10656.945,-17381.024999999998,6076.575,-54811.259999999995,-30.239483904098794,-32.27968882276659,-1.5279127276917346,5.477529317559371,7.418200635935546,9.872885431956568,14.299957372133742,-5.520352622313462,-0.0805662,-0.987363195,-0.219787035,-5.58516,21.22666,-5.76828,69.0
1774823225.804018,2.765655517578125e-05,2026-03-29T22:27:05.804,2026-03-29T18:27:05.804,-28592.1,-42783.119999999995,-80461.44,-50046.03,-10665.63,-17384.715,6139.71,-54819.945,-28.455392505218985,-25.884347160022212,-7.316203458653021,1.1464728486300058,0.7813337281686797,3.0063416363816176,1.2869386832213117,-7.677832195544558,-0.0805662,-0.987363195,-0.219787035,-5.58516,21.22666,-5.76828,69.0
1774823225.8116581,0.00764012336730957,2026-03-29T22:27:05.811,2026-03-29T18:27:05.811,-28584.18,-42728.715,-80483.805,-50090.58,-10712.744999999999,-17415.495,6170.76,-54819.63,-13.337735545831114,-7.976174713835743,-10.27814386207941,-4.447998544262411,-6.9465795110167985,-5.905984770835423,-12.807625877339792,-6.093245270927266,-0.0805662,-0.987363195,-0.219787035,-5.58516,21.22666,-5.76828,69.0
1774823225.8116732,1.5020370483398438e-05,2026-03-29T22:27:05.811,2026-03-29T18:27:05.811,-28543.86,-42683.895,-80498.11499999999,-50092.155,-10707.119999999999,-17411.265,6111.675,-54821.744999999995,7.8733312932688175,12.733565945504525,-9.082131987161155,-8.415707816455575,-11.84600630343733,-12.337602738377951,-21.396770508614345,-1.5712575459488833,-0.0805662,-0.987363195,-0.219787035,-5.58516,21.22666,-5.76828,69.0
1774823225.8116956,2.2411346435546875e-05,2026-03-29T22:27:05.811,2026-03-29T18:27:05.811,-28478.204999999998,-42610.814999999995,-80475.61499999999,-50075.82,-10683.09,-17395.47,6087.33,-54810.27,25.13103033802892,26.615976396487078,-4.033027074308246,-8.38895167284748,-11.106248649107227,-12.778946274175496,-20.250236813627406,3.6854593561354263,-0.079406535,-0.99426015,-0.221618085,-5.890359999999999,22.432199999999998,-4.77638,69.0
1774823225.8117013,5.7220458984375e-06,2026-03-29T22:27:05.811,2026-03-29T18:27:05.811,-28439.73,-42575.85,-80468.86499999999,-50105.79,-10682.73,-17394.614999999998,6083.28,-54791.64,30.338942898815265,27.593271946796246,2.9163310834367975,-3.882125326405444,-4.592194094653661,-6.61454695337442,-9.584193537579424,7.135010217857049,-0.079406535,-0.99426015,-0.221618085,-5.890359999999999,22.432199999999998,-4.77638,69.0
1774823225.8216977,0.009996414184570312,2026-03-29T22:27:05.821,2026-03-29T18:27:05.821,-28396.664999999997,-42492.689999999995,-80354.83499999999,-50051.43,-10645.065,-17371.305,6095.205,-54770.354999999996,21.161780985190905,15.803464647529758,8.868743777959484,3.230218910078743,4.8546000064216885,3.391310376245722,5.88364404939231,7.109778783860949,-0.079406535,-0.99426015,-0.221618085,-5.890359999999999,22.432199999999998,-4.77638,69.0
1774823225.8217127,1.5020370483398438e-05,2026-03-29T22:27:05.821,2026-03-29T18:27:05.821,-28417.86,-42506.369999999995,-80317.575,-50036.85,-10654.38,-17394.03,6115.41,-54771.03,2.0884526295995243,-2.7109006036450594,11.179481416043158,9.468183831742419,12.640606708115264,12.325250719362783,19.01609895297633,3.6112462145279354,-0.079406535,-0.99426015,-0.221618085,-5.890359999999999,22.432199999999998,-4.77638,69.0
1774823225.8217316,1.8835067749023438e-05,2026-03-29T22:27:05.821,2026-03-29T18:27:05.821,-28476.495,-42597.54,-80370.18,-50047.784999999996,-10674.18,-17411.85,6126.4349999999995,-54785.655,-17.746646199449444,-19.045225304086813,8.656169262794043,11.44468354283566,14.65168706264464,15.529815340847502,23.561619389297395,-1.6884233375015474,-0.079406535,-0.99426015,-0.221618085,-5.890359999999999,22.432199999999998,-4.77638,69.0
1774823225.8217363,4.76837158203125e-06,2026-03-29T22:27:05.821,2026-03-29T18:27:05.821,-28511.594999999998,-42654.78,-80423.86499999999,-50071.905,-10687.815,-17405.73,6100.5599999999995,-54795.465,-28.93507326633604,-25.69756634459828,2.2026840920038335,7.678987968721798,9.407656071530427,11.008992637567065,17.149174998187863,-6.238861678578271,-0.079406535,-0.99426015,-0.221618085,-5.890359999999999,22.432199999999998,-4.77638,69.0
1774823225.8257842,0.004047870635986328,2026-03-29T22:27:05.825,2026-03-29T18:27:05.825,-28518.795,-42666.705,-80448.61499999999,-50096.025,-10699.785,-17411.355,6068.385,-54800.64,-26.267104543365555,-20.020586798390376,-5.452173011168372,-0.4368030331957997,-0.9816060443065951,0.5999577728398878,2.531790440373534,-7.825042544677559,-0.079406535,-0.99426015,-0.221618085,-5.890359999999999,22.432199999999998,-4.77638,69.0
1774823225.8257937,9.5367431640625e-06,2026-03-29T22:27:05.825,2026-03-29T18:27:05.825,-28522.53,-42662.52,-80445.95999999999,-50093.1,-10700.279999999999,-17426.25,6045.885,-54807.119999999995,-11.172548664270519,-5.267475294016746,-10.89610785178815,-9.107307272198856,-11.636672715416172,-10.753372210688356,-13.575091231212358,-5.629564302593386,-0.079406535,-0.99426015,-0.221618085,-5.890359999999999,22.432199999999998,-4.77638,69.0
1774823225.8306556,0.0048618316650390625,2026-03-29T22:27:05.830,2026-03-29T18:27:05.830,-28524.69,-42679.845,-80473.59,-50111.595,-10713.15,-17429.85,6085.17,-54813.645,9.023870122377575,11.181179516959492,-11.572746860062553,-13.910090458318964,-17.204081316310425,-17.350873136850208,-23.58296852753138,-0.6399615066996088,-0.079406535,-0.99426015,-0.221618085,-5.890359999999999,22.432199999999998,-4.77638,69.0
1774823225.830685,2.9325485229492188e-05,2026-03-29T22:27:05.830,2026-03-29T18:27:05.830,-28498.995,-42669.27,-80468.055,-50105.295,-10710.494999999999,-17417.52,6136.83,-54788.174999999996,24.65511852167676,21.477187718764196,-7.0130034215316135,-12.04612567834451,-14.545257262031631,-15.593068757257539,-22.626922174638327,4.7972891862747975,-0.079406535,-0.99426015,-0.221618085,-5.890359999999999,22.432199999999998,-4.77638,69.0
1774823225.833249,0.0025641918182373047,2026-03-29T22:27:05.833,2026-03-29T18:27:05.833,-28487.969999999998,-42645.555,-80426.43,-50061.509999999995,-10665.9,-17376.524999999998,6190.92,-54775.755,28.3502602092995,21.050059174687238,0.850874830619816,-3.9198817216784856,-4.467648703369654,-5.914068192762176,-10.95735920817269,8.073994130262808,-0.07775859,-1.003476435,-0.226256745,1.64808,27.6969,-6.821219999999999,69.0
1774823225.833279,2.9802322387695312e-05,2026-03-29T22:27:05.833,2026-03-29T18:27:05.833,-28495.575,-42635.025,-80392.455,-50030.145,-10634.445,-17346.465,6173.46,-54788.13,18.526059660898515,10.6483997380256,8.491603242303256,6.825094738435037,8.443074145154236,7.236579538967995,6.059726658924674,7.557944788166295,-0.07775859,-1.003476435,-0.226256745,1.64808,27.6969,-6.821219999999999,69.0
1774823225.839345,0.006066083908081055,2026-03-29T22:27:05.839,2026-03-29T18:27:05.839,-28507.454999999998,-42651.36,-80403.03,-50042.159999999996,-10649.97,-17363.204999999998,6106.094999999999,-54784.259999999995,0.06740149645193975,-4.243560764644525,12.382983741659896,14.941587097826734,17.91417041842663,17.445169349318302,20.40214642469114,3.3885234119734444,-0.07775859,-1.003476435,-0.226256745,1.64808,27.6969,-6.821219999999999,69.0
1774823225.8393695,2.4557113647460938e-05,2026-03-29T22:27:05.839,2026-03-29T18:27:05.839,-28529.145,-42670.575,-80420.625,-50050.665,-10661.49,-17379.09,6068.88,-54792.9,-18.100023141836093,-16.245342055230772,10.654471582089094,16.15033704781257,19.0452853560163,19.47138581641604,25.18967236532142,-2.5516667468383107,-0.07775859,-1.003476435,-0.226256745,1.64808,27.6969,-6.821219999999999,69.0
1774823225.8393948,2.5272369384765625e-05,2026-03-29T22:27:05.839,2026-03-29T18:27:05.839,-28554.12,-42682.725,-80449.785,-50072.31,-10679.13,-17389.98,6063.344999999999,-54823.634999999995,-27.340575034338283,-19.726858917496422,4.012633776480665,9.382291541011886,10.83821522477271,11.93318738831733,18.017417884862652,-7.489042683339036,-0.07775859,-1.003476435,-0.226256745,1.64808,27.6969,-6.821219999999999,69.0
1774823225.8394055,1.0728836059570312e-05,2026-03-29T22:27:05.839,2026-03-29T18:27:05.839,-28557.855,-42649.47,-80395.02,-50031.405,-10648.26,-17365.14,6142.5,-54816.525,-23.434119236155873,-13.464084283925501,-4.535437589552317,-2.479240941932634,-3.1077087689011176,-1.8354367405876633,2.1958579035372683,-9.048412446532492,-0.07775859,-1.003476435,-0.226256745,1.64808,27.6969,-6.821219999999999,69.0
1774823225.84393,0.0045244693756103516,2026-03-29T22:27:05.843,2026-03-29T18:27:05.843,-28536.12,-42642.854999999996,-80368.02,-50019.165,-10644.75,-17361.09,6188.04,-54791.505,-8.513140243971973,-1.0416833952780145,-11.055351082151628,-13.822195403721336,-16.17319275057419,-15.260271483965289,-14.754997604462403,-6.381966692895512,-0.07775859,-1.003476435,-0.226256745,1.64808,27.6969,-6.821219999999999,69.0
1774823225.8439565,2.6464462280273438e-05,2026-03-29T22:27:05.843,2026-03-29T18:27:05.843,-28485.18,-42698.88,-80464.995,-50087.564999999995,-10692.81,-17402.445,6116.13,-54788.445,10.085520548712315,11.117847072731664,-12.520725019978174,-18.978976463745187,-21.87973708861389,-21.684305489472223,-24.685198822801098,-0.6059036341624738,-0.07775859,-1.003476435,-0.226256745,1.64808,27.6969,-6.821219999999999,69.0
1774823225.8483636,0.004407167434692383,2026-03-29T22:27:05.848,2026-03-29T18:27:05.848,-28494.539999999997,-42716.43,-80470.845,-50097.869999999995,-10707.119999999999,-17417.88,6079.41,-54796.545,23.44479631769095,17.04609396243496,-8.240566331492687,-15.067127305914447,-17.115601609953497,-17.682785097759936,-22.763794429632313,5.672653490895496,-0.07775859,-1.003476435,-0.226256745,1.64808,27.6969,-6.821219999999999,69.0
1774823225.8483775,1.3828277587890625e-05,2026-03-29T22:27:05.848,2026-03-29T18:27:05.848,-28517.175,-42699.284999999996,-80433.315,-50062.229999999996,-10685.789999999999,-17405.864999999998,6117.57,-54798.659999999996,25.370357382426086,14.165832578062055,-0.19320835630229555,-3.5685074184844487,-3.8137642204163544,-4.878433689450681,-9.870986315711512,9.535356716169613,-0.07775859,-1.003476435,-0.226256745,1.64808,27.6969,-6.821219999999999,69.0
1774823225.8521295,0.003751993179321289,2026-03-29T22:27:05.852,2026-03-29T18:27:05.852,-28529.1,-42732.54,-80468.595,-50070.195,-10684.44,-17400.42,6139.17,-54797.22,15.281799082983307,4.422656548602514,7.898622872695364,10.207108445788837,11.816477557435334,10.702280090728772,7.769704815610242,9.10371283230789,-0.085387965,-1.007748885,-0.23327577,8.02676,32.473279999999995,-13.8103,69.0
1774823225.8521435,1.4066696166992188e-05,2026-03-29T22:27:05.852,2026-03-29T18:27:05.852,-28565.414999999997,-42786.54,-80489.295,-50048.909999999996,-10645.875,-17359.515,6136.695,-54808.244999999995,-1.6691882504775815,-6.894537023880983,12.313179190437221,19.595192841985487,22.208950166728492,21.486476426149377,21.586179439608625,4.437679927850412,-0.085387965,-1.007748885,-0.23327577,8.02676,32.473279999999995,-13.8103,69.0
1774823225.8578043,0.0056607723236083984,2026-03-29T22:27:05.857,2026-03-29T18:27:05.857,-28591.289999999997,-42829.244999999995,-80520.795,-50068.259999999995,-10645.875,-17357.85,6143.985,-54809.055,-17.23780042071926,-13.972999012651117,11.064380889304514,19.824461204392005,22.129117278538143,22.06260882395501,24.844122153904493,-2.4430581650682948,-0.085387965,-1.007748885,-0.23327577,8.02676,32.473279999999995,-13.8103,69.0
1774823225.8578207,1.6450881958007812e-05,2026-03-29T22:27:05.857,2026-03-29T18:27:05.857,-28561.95,-42776.145,-80554.23,-50113.35,-10673.865,-17379.0,6146.01,-54796.14,-24.128744400810856,-13.453438282294945,4.804613859417239,10.445229264858561,11.321302453224384,11.911182227435008,15.971730062884188,-8.441752130018143,-0.085387965,-1.007748885,-0.23327577,8.02676,32.473279999999995,-13.8103,69.0
1774823225.860448,0.002627134323120117,2026-03-29T22:27:05.860,2026-03-29T18:27:05.860,-28500.3,-42647.445,-80495.64,-50115.645,-10698.345,-17400.87,6115.455,-54792.0,-19.445600616572634,-6.042767117764964,-3.5202142035133552,-4.300599510571813,-5.229885552415932,-4.227182302259319,-0.6379100072524834,-10.781693873161855,-0.085387965,-1.007748885,-0.23327577,8.02676,32.473279999999995,-13.8103,69.0
1774823225.8604672,1.9311904907226562e-05,2026-03-29T22:27:05.860,2026-03-29T18:27:05.860,-28430.37,-42551.46,-80414.19,-50063.58,-10664.595,-17380.62,6101.91,-54783.314999999995,-5.899748913600348,4.022553254618761,-10.079327824832927,-17.41725717514615,-19.616723708967356,-18.583220900349353,-16.776742604035544,-8.285678271752673,-0.085387965,-1.007748885,-0.23327577,8.02676,32.473279999999995,-13.8103,69.0
1774823225.8696718,0.009204626083374023,2026-03-29T22:27:05.869,2026-03-29T18:27:05.869,-28416.059999999998,-42554.835,-80430.435,-50100.93,-10695.105,-17407.305,6084.45,-54782.1,9.72359813523545,11.322065696163714,-11.944457754170712,-22.506587483524342,-24.819136753095624,-24.132925857791705,-24.48414885464864,-1.9500111840900511,-0.085387965,-1.007748885,-0.23327577,8.02676,32.473279999999995,-13.8103,69.0
1774823225.8697052,3.337860107421875e-05,2026-03-29T22:27:05.869,2026-03-29T18:27:05.869,-28406.969999999998,-42536.97,-80379.045,-50079.689999999995,-10687.275,-17406.18,6059.655,-54783.494999999995,19.991135156136103,12.13702182621496,-8.408792307747333,-16.912422544382867,-18.157550002045465,-18.065865176431885,-20.008669715606207,5.460850584575617,-0.085387965,-1.007748885,-0.23327577,8.02676,32.473279999999995,-13.8103,69.0
1774823225.8697324,2.7179718017578125e-05,2026-03-29T22:27:05.869,2026-03-29T18:27:05.869,-28401.21,-42525.45,-80332.2,-50026.365,-10649.43,-17381.79,6067.71,-54776.115,20.398958764704386,6.353581837835256,-1.2365290327162328,-3.101080853514462,-2.6762941291476317,-3.2204018381478723,-5.680993686553303,10.630316292572912,-0.085387965,-1.007748885,-0.23327577,8.02676,32.473279999999995,-13.8103,69.0
1774823225.8697443,1.1920928955078125e-05,2026-03-29T22:27:05.869,2026-03-29T18:27:05.869,-28423.754999999997,-42560.189999999995,-80351.73,-50023.755,-10647.315,-17381.79,6129.179999999999,-54773.505,11.360770465605015,-2.5950554722601904,6.234151099821524,12.438431990300145,14.259299176127067,13.253782220067693,11.259513957752807,11.17699943924624,-0.085387965,-1.007748885,-0.23327577,8.02676,32.473279999999995,-13.8103,69.0
1774823225.8723745,0.0026302337646484375,2026-03-29T22:27:05.872,2026-03-29T18:27:05.872,-28428.3,-42578.415,-80366.175,-50025.375,-10636.695,-17359.155,6167.969999999999,-54763.335,-2.2789064875315046,-9.676521193247138,10.671350478797494,22.278684049348993,24.5011372277539,23.372829780241194,22.311861706853374,6.744620852547057,-0.09680151000000001,-0.9982274250000001,-0.232360245,6.04296,34.70124,-20.433139999999998,69.0
1774823225.872402,2.7418136596679688e-05,2026-03-29T22:27:05.872,2026-03-29T18:27:05.872,-28437.344999999998,-42580.619999999995,-80360.86499999999,-50016.689999999995,-10622.88,-17338.5,6171.12,-54772.155,-13.837440892958986,-11.02578761835204,10.251526161290204,21.640266720570803,23.07674775155932,22.229863965834856,22.00135759386325,-0.802051951146206,-0.09680151000000001,-0.9982274250000001,-0.232360245,6.04296,34.70124,-20.433139999999998,69.0
1774823225.8796988,0.00729680061340332,2026-03-29T22:27:05.879,2026-03-29T18:27:05.879,-28497.195,-42625.08,-80403.56999999999,-50066.64,-10671.525,-17377.92,6177.87,-54811.395,-18.10942335079579,-6.034787871956156,5.397238456993408,10.731487363399783,10.626735853887597,10.404702858425958,10.634562072178293,-8.173999967503924,-0.09680151000000001,-0.9982274250000001,-0.232360245,6.04296,34.70124,-20.433139999999998,69.0
1774823225.8797293,3.0517578125e-05,2026-03-29T22:27:05.879,2026-03-29T18:27:05.879,-28516.905,-42650.729999999996,-80432.37,-50098.32,-10703.295,-17408.835,6164.1449999999995,-54826.424999999996,-13.742412007541748,2.3562600132965454,-1.542043384204504,-5.313418570370683,-6.885326856889916,-6.326440176089898,-5.886367273236293,-12.101366479840802,-0.09680151000000001,-0.9982274250000001,-0.232360245,6.04296,34.70124,-20.433139999999998,69.0
1774823225.8797612,3.1948089599609375e-05,2026-03-29T22:27:05.879,2026-03-29T18:27:05.879,-28491.39,-42659.415,-80445.015,-50093.145,-10697.355,-17408.88,6119.235,-54818.415,-3.572755777141254,9.314662477897269,-7.45221488533647,-18.883485462794663,-21.059555546034826,-19.83928800529958,-19.10185890401326,-10.785382451920716,-0.09680151000000001,-0.9982274250000001,-0.232360245,6.04296,34.70124,-20.433139999999998,69.0
1774823225.8797727,1.1444091796875e-05,2026-03-29T22:27:05.879,2026-03-29T18:27:05.879,-28473.57,-42656.13,-80434.035,-50055.795,-10662.66,-17384.04,6109.469999999999,-54808.65,7.099249673840246,10.813953166673782,-9.873687291563645,-23.544695625557473,-25.132542186961196,-23.652361351353743,-22.333091650804544,-4.71296493011511,-0.09680151000000001,-0.9982274250000001,-0.232360245,6.04296,34.70124,-20.433139999999998,69.0
1774823225.884274,0.0045013427734375,2026-03-29T22:27:05.884,2026-03-29T18:27:05.884,-28497.69,-42684.525,-80464.36499999999,-50089.095,-10700.145,-17423.415,6092.46,-54807.03,13.288950136552137,5.901047349181618,-8.019402895915086,-17.124061827342402,-17.241212174259854,-16.079068457824622,-14.09120348712319,3.531593026654177,-0.09680151000000001,-0.9982274250000001,-0.232360245,6.04296,34.70124,-20.433139999999998,69.0
1774823225.8843026,2.86102294921875e-05,2026-03-29T22:27:05.884,2026-03-29T18:27:05.884,-28536.254999999997,-42721.83,-80511.795,-50153.354999999996,-10763.91,-17487.899999999998,6025.905,-54823.095,12.69912429974007,-2.72003465845009,-2.9726847111475956,-2.7295116978029834,-1.284636493141673,-0.9869104305355453,1.2002624551585095,10.380280028876014,-0.09680151000000001,-0.9982274250000001,-0.232360245,6.04296,34.70124,-20.433139999999998,69.0
1774823225.8895652,0.005262613296508789,2026-03-29T22:27:05.889,2026-03-29T18:27:05.889,-28550.43,-42730.02,-80523.54,-50173.155,-10779.119999999999,-17493.57,5989.23,-54842.13,6.535551170343072,-10.135715537073482,2.94363773844222,12.777431656061342,15.020960591047707,14.186647632036454,15.541255481765836,12.834050645023261,-0.09680151000000001,-0.9982274250000001,-0.232360245,6.04296,34.70124,-20.433139999999998,69.0
1774823225.8895934,2.8133392333984375e-05,2026-03-29T22:27:05.889,2026-03-29T18:27:05.889,-28530.18,-42698.25,-80460.765,-50087.97,-10691.595,-17409.915,6052.094999999999,-54863.865,-1.5029039182601278,-11.942365237561173,7.262469757292498,22.096277294084654,23.91663935087145,22.141282986987324,21.532749299481836,9.774760587047167,-0.09680151000000001,-0.9982274250000001,-0.232360245,6.04296,34.70124,-20.433139999999998,69.0
1774823225.8967302,0.007136821746826172,2026-03-29T22:27:05.896,2026-03-29T18:27:05.896,-28472.445,-42622.47,-80355.915,-49966.38,-10569.779999999999,-17288.325,6201.719999999999,-54848.25,-7.37243385687788,-6.763362816594901,8.403153607461434,20.968435664049537,21.338865967477492,19.277757933447507,16.21684730646193,2.462701741235392,-0.106017795,-0.9845555850000001,-0.2307123,-4.59326,35.03696,-19.94482,69.0
1774823225.8967552,2.5033950805664062e-05,2026-03-29T22:27:05.896,2026-03-29T18:27:05.896,-28504.89,-42652.755,-80390.385,-50007.33,-10621.395,-17331.255,6193.17,-54866.88,-8.75245177354945,2.8383838284926646,6.205362266568832,10.143734592790036,8.798095305703987,7.354077375584248,2.5738154282506778,-5.996909435332728,-0.106017795,-0.9845555850000001,-0.2307123,-4.59326,35.03696,-19.94482,69.0
1774823225.8967829,2.765655517578125e-05,2026-03-29T22:27:05.896,2026-03-29T18:27:05.896,-28500.93,-42635.07,-80386.83,-50022.225,-10650.06,-17366.22,6150.195,-54866.835,-5.963268769525052,11.615330542868202,1.813015520675674,-5.086273582570547,-7.482994953133976,-7.5438475980731585,-12.102157666064274,-11.985770046063664,-0.106017795,-0.9845555850000001,-0.2307123,-4.59326,35.03696,-19.94482,69.0
1774823225.8967943,1.1444091796875e-05,2026-03-29T22:27:05.896,2026-03-29T18:27:05.896,-28487.34,-42607.35,-80386.37999999999,-50050.845,-10675.755,-17396.28,6111.99,-54869.939999999995,-1.3692941089391744,14.448756221533941,-2.939876696103754,-17.510365981242135,-19.69035789964517,-18.134009581080424,-20.084033972427193,-12.925236102217971,-0.106017795,-0.9845555850000001,-0.2307123,-4.59326,35.03696,-19.94482,69.0
1774823225.9014342,0.004639863967895508,2026-03-29T22:27:05.901,2026-03-29T18:27:05.901,-28478.34,-42597.945,-80371.34999999999,-50026.185,-10648.935,-17370.36,6111.179999999999,-54874.079999999994,2.2441862126522634,9.23310213493439,-6.305376475942809,-21.460669241161963,-22.21923003078353,-19.55088233420677,-17.293099358137233,-8.38109822412343,-0.106017795,-0.9845555850000001,-0.2307123,-4.59326,35.03696,-19.94482,69.0
1774823225.9014645,3.0279159545898438e-05,2026-03-29T22:27:05.901,2026-03-29T18:27:05.901,-28495.8,-42658.335,-80432.37,-50053.905,-10652.445,-17365.95,6121.215,-54885.42,3.3073953331454278,-1.7567659579070776,-7.2253064584513575,-15.430939750368923,-14.282327537679578,-11.62194989929095,-5.417245796330149,-0.2494540848685327,-0.106017795,-0.9845555850000001,-0.2307123,-4.59326,35.03696,-19.94482,69.0
1774823225.9041018,0.0026373863220214844,2026-03-29T22:27:05.904,2026-03-29T18:27:05.904,-28487.969999999998,-42698.475,-80488.44,-50096.205,-10680.164999999999,-17396.64,6086.205,-54882.225,2.176593804369331,-12.843595064997094,-5.577090210169013,-2.62410515471633,-0.09365447544282125,1.2788238460431922,9.052693987096818,8.04960568454854,-0.106017795,-0.9845555850000001,-0.2307123,-4.59326,35.03696,-19.94482,69.0
1774823225.9041295,2.765655517578125e-05,2026-03-29T22:27:05.904,2026-03-29T18:27:05.904,-28457.28,-42636.869999999995,-80422.69499999999,-50044.905,-10640.52,-17369.864999999998,6057.09,-54872.64,0.5832334554093818,-17.858359553359065,-2.0678585702902135,10.754877603464141,13.372446102765213,12.627428318074633,18.34278441790753,13.020356648940098,-0.106017795,-0.9845555850000001,-0.2307123,-4.59326,35.03696,-19.94482,69.0
1774823225.9080212,0.0038917064666748047,2026-03-29T22:27:05.908,2026-03-29T18:27:05.908,-28468.53,-42592.545,-80353.62,-49986.674999999996,-10605.15,-17343.855,6091.83,-54882.18,0.2546168345894895,-13.499457824359515,2.0877439931793944,18.549805127965474,19.85511462466966,17.09150691857578,17.577137445240044,12.563722107700736,-0.106017795,-0.9845555850000001,-0.2307123,-4.59326,35.03696,-19.94482,69.0
1774823225.9080431,2.193450927734375e-05,2026-03-29T22:27:05.908,2026-03-29T18:27:05.908,-28504.98,-42658.965,-80423.325,-50051.79,-10667.115,-17385.39,6141.87,-54893.115,1.6239666989864698,-1.3387216964118038,5.549687950757688,17.527746796304406,16.762964525123255,13.087326592069907,7.369601199103939,6.853482720605452,-0.106017795,-0.9845555850000001,-0.2307123,-4.59326,35.03696,-19.94482,69.0
1774823225.9127169,0.00467371940612793,2026-03-29T22:27:05.912,2026-03-29T18:27:05.912,-28478.52,-42685.2,-80468.19,-50106.6,-10718.369999999999,-17428.905,6126.57,-54881.729999999996,3.4715055197682063,12.689342998850968,7.197655194165392,8.714591124001013,6.194072178728633,3.300046161174406,-6.568409249321979,-1.744364915947938,-0.120544125,-0.986874915,-0.23950134,-2.0601,24.52282,-14.7259,69.0
1774823225.9127707,5.3882598876953125e-05,2026-03-29T22:27:05.912,2026-03-29T18:27:05.912,-28484.64,-42684.39,-80475.75,-50108.85,-10727.369999999999,-17460.72,6024.014999999999,-54908.595,3.7495943743800253,21.185206850646956,6.410660580921007,-3.357897419998199,-6.374173978055645,-6.980981844253136,-16.583639278117285,-9.664584557606027,-0.120544125,-0.986874915,-0.23950134,-2.0601,24.52282,-14.7259,69.0
1774823225.9163923,0.0036215782165527344,2026-03-29T22:27:05.916,2026-03-29T18:27:05.916,-28524.015,-42726.195,-80530.155,-50160.284999999996,-10763.685,-17493.48,5964.66,-54951.119999999995,1.0923002974765355,19.152645708831503,3.2710856841987597,-13.004516084026658,-14.946437610814025,-12.727226121145678,-17.27701688178213,-13.625029256171375,-0.120544125,-0.986874915,-0.23950134,-2.0601,24.52282,-14.7259,69.0
1774823225.9164147,2.2411346435546875e-05,2026-03-29T22:27:05.916,2026-03-29T18:27:05.916,-28505.7,-42673.229999999996,-80472.23999999999,-50121.765,-10714.095,-17436.87,6072.389999999999,-54945.54,-3.957746759613868,6.82811719087088,-1.3540436366167112,-16.108631120558368,-15.91842749926335,-11.68327974966562,-8.444701096689887,-11.980119362158874,-0.120544125,-0.986874915,-0.23950134,-2.0601,24.52282,-14.7259,69.0
1774823225.9209743,0.004559516906738281,2026-03-29T22:27:05.920,2026-03-29T18:27:05.920,-28461.914999999997,-42635.159999999996,-80404.155,-50067.45,-10665.9,-17376.614999999998,6193.17,-54901.619999999995,-8.862349846786095,-10.092506955982232,-5.943213873141573,-11.889390107161576,-9.598773512285826,-5.246723921409513,4.850950143455796,-5.390830430167022,-0.120544125,-0.986874915,-0.23950134,-2.0601,24.52282,-14.7259,69.0
1774823225.9210036,2.9325485229492188e-05,2026-03-29T22:27:05.921,2026-03-29T18:27:05.921,-28461.42,-42666.165,-80408.06999999999,-50047.74,-10653.705,-17359.38,6191.955,-54881.954999999994,-10.348704175815254,-23.09760474753009,-8.729179779413082,-2.9495598532688354,0.30359964478949597,2.627867102238418,15.123251116732005,3.454405824260121,-0.120544125,-0.986874915,-0.23950134,-2.0601,24.52282,-14.7259,69.0
1774823225.9250846,0.004081010818481445,2026-03-29T22:27:05.925,2026-03-29T18:27:05.925,-28489.32,-42692.445,-80418.78,-50031.99,-10640.52,-17354.204999999998,6160.635,-54887.49,-6.397017785764044,-25.141738545395764,-8.340119027459888,6.2666102673472315,8.807949130403294,7.771986593334963,16.64891657579745,10.943023151036114,-0.120544125,-0.986874915,-0.23950134,-2.0601,24.52282,-14.7259,69.0
1774823225.9251015,1.6927719116210938e-05,2026-03-29T22:27:05.925,2026-03-29T18:27:05.925,-28517.219999999998,-42707.295,-80449.47,-50036.174999999996,-10632.645,-17347.68,6168.0599999999995,-54909.045,2.191688218342292,-14.410253813821559,-4.464828844236247,11.715984519032675,12.20461732266152,8.039300622056885,8.675655286956722,14.009756558774287,-0.120544125,-0.986874915,-0.23950134,-2.0601,24.52282,-14.7259,69.0
1774823225.9282408,0.0031392574310302734,2026-03-29T22:27:05.928,2026-03-29T18:27:05.928,-28525.905,-42690.645,-80458.245,-50051.97,-10648.215,-17362.079999999998,6148.304999999999,-54940.229999999996,11.67862465401592,4.42626656543894,1.7767878193840454,11.553493324591594,9.697872418357608,4.224067455040452,-4.1521865370058295,11.379144669312877,-0.120544125,-0.986874915,-0.23950134,-2.0601,24.52282,-14.7259,69.0
1774823225.9282725,3.170967102050781e-05,2026-03-29T22:27:05.928,2026-03-29T18:27:05.928,-28515.69,-42649.875,-80433.18,-50053.77,-10652.805,-17365.59,6134.76,-54950.265,17.010166912610636,22.249570320921006,8.03589133397349,6.672757348443662,3.4075392325285874,-0.7459166731891197,-14.415428920070818,4.082154977425486,-0.120544125,-0.986874915,-0.23950134,-2.0601,24.52282,-14.7259,69.0
1774823225.9339132,0.005640745162963867,2026-03-29T22:27:05.933,2026-03-29T18:27:05.933,-28447.695,-42573.689999999995,-80395.065,-50061.195,-10662.48,-17369.415,6123.735,-54921.42,14.479173397509065,29.933112557040253,11.567045496249063,-0.11291478816139339,-3.0966400449026485,-3.756744753711847,-16.14517190846483,-4.954831547962984,-0.14196741,-0.9899877,-0.248351415,2.5942,12.940479999999999,-7.752079999999999,69.0
1774823225.9339428,2.956390380859375e-05,2026-03-29T22:27:05.933,2026-03-29T18:27:05.933,-28424.789999999997,-42572.52,-80416.89,-50096.97,-10699.02,-17410.095,6041.745,-54913.32,4.0339199921763065,23.009872850835237,10.427715628436975,-5.667020516402151,-6.803313736224251,-3.3913941268186534,-8.277177970127678,-12.08070260793316,-0.14196741,-0.9899877,-0.248351415,2.5942,12.940479999999999,-7.752079999999999,69.0
1774823225.938007,0.004064321517944336,2026-03-29T22:27:05.938,2026-03-29T18:27:05.938,-28463.715,-42601.68,-80430.25499999999,-50101.29,-10710.9,-17427.87,6027.974999999999,-54929.744999999995,-10.122401978342742,4.181576231383385,4.5234622990564715,-8.008480513339226,-6.689112726804787,-0.6376139416844562,4.649625423243829,-14.383248746354248,-0.14196741,-0.9899877,-0.248351415,2.5942,12.940479999999999,-7.752079999999999,69.0
1774823225.9380367,2.956390380859375e-05,2026-03-29T22:27:05.938,2026-03-29T18:27:05.938,-28491.57,-42644.52,-80447.4,-50098.455,-10711.98,-17428.77,6098.76,-54926.28,-21.19472183989656,-17.710072454852725,-4.0559349876189845,-6.961469195860434,-3.8735578387661556,1.952501785501753,15.014496452031741,-10.865547695779323,-0.14196741,-0.9899877,-0.248351415,2.5942,12.940479999999999,-7.752079999999999,69.0
1774823225.9403641,0.002327442169189453,2026-03-29T22:27:05.940,2026-03-29T18:27:05.940,-28489.32,-42649.92,-80428.095,-50068.665,-10679.49,-17395.02,6129.09,-54931.409999999996,-23.080669849852736,-31.87419644146295,-11.705528171830723,-3.798413676702518,-0.5758198087441325,2.0817518101885826,16.494315960422977,-2.8677638602881492,-0.14196741,-0.9899877,-0.248351415,2.5942,12.940479999999999,-7.752079999999999,69.0
1774823225.9403946,3.0517578125e-05,2026-03-29T22:27:05.940,2026-03-29T18:27:05.940,-28471.815,-42652.575,-80434.935,-50064.255,-10666.845,-17381.7,6104.474999999999,-54916.38,-13.678396555833316,-30.919761716477684,-14.810925043727293,-0.25622847162351337,1.3826111617214862,-0.6572905542660439,7.83282989021266,6.43893645572364,-0.14196741,-0.9899877,-0.248351415,2.5942,12.940479999999999,-7.752079999999999,69.0
1774823225.9440908,0.0036962032318115234,2026-03-29T22:27:05.944,2026-03-29T18:27:05.944,-28453.094999999998,-42633.494999999995,-80431.37999999999,-50069.115,-10664.324999999999,-17376.48,6102.045,-54908.82,3.555424240065156,-14.696934994044113,-11.467350907966086,2.4186751620500417,1.5933419705884186,-4.387404577705022,-6.204841455496322,13.297284751637356,-0.14196741,-0.9899877,-0.248351415,2.5942,12.940479999999999,-7.752079999999999,69.0
1774823225.944114,2.3126602172851562e-05,2026-03-29T22:27:05.944,2026-03-29T18:27:05.944,-28436.625,-42600.6,-80400.78,-50054.715,-10664.82,-17387.325,6139.3949999999995,-54901.439999999995,20.802166437147438,9.361736723157069,-2.5884585299302727,3.871628316203586,1.026209957713427,-6.094300619990358,-17.363582521203377,14.865959637235797,-0.14196741,-0.9899877,-0.248351415,2.5942,12.940479999999999,-7.752079999999999,69.0
1774823225.9521668,0.008052825927734375,2026-03-29T22:27:05.952,2026-03-29T18:27:05.952,-28441.17,-42585.57,-80381.79,-50045.49,-10658.789999999999,-17384.579999999998,6146.91,-54913.14,29.464170984152528,29.686654140181364,8.221376286897494,4.3811625037480795,1.0618908403009202,-3.657436494792768,-18.606453972379022,10.386976706506601,-0.14196741,-0.9899877,-0.248351415,2.5942,12.940479999999999,-7.752079999999999,69.0
1774823225.952194,2.7179718017578125e-05,2026-03-29T22:27:05.952,2026-03-29T18:27:05.952,-28446.48,-42568.47,-80353.215,-50021.235,-10635.885,-17358.39,6117.57,-54924.075,24.476018726397584,36.188317785536505,16.113012922606753,4.26603980450834,2.2948769076600395,2.492694581370763,-8.372239164426988,1.5446492027813126,-0.14196741,-0.9899877,-0.248351415,2.5942,12.940479999999999,-7.752079999999999,69.0
1774823225.9522188,2.47955322265625e-05,2026-03-29T22:27:05.952,2026-03-29T18:27:05.952,-28494.855,-42595.38,-80367.56999999999,-50035.994999999995,-10649.789999999999,-17366.805,6067.125,-54960.704999999994,7.1708089466577425,25.29494369212977,17.187357164170074,3.4623628367493664,3.9425101849217294,9.204160116885593,8.120541513103177,-8.150811165591453,-0.153625095,-0.978696225,-0.25622493,2.5179,6.104,-3.0825199999999997,69.0
1774823225.95223,1.1205673217773438e-05,2026-03-29T22:27:05.952,2026-03-29T18:27:05.952,-28508.535,-42626.79,-80384.4,-50039.505,-10651.815,-17370.0,6095.474999999999,-54959.13,-14.886523218262756,1.8809688157247035,10.436096237112306,1.6051908924564533,4.29808537731466,12.195828022892242,21.460480926961566,-14.738921616944435,-0.153625095,-0.978696225,-0.25622493,2.5179,6.104,-3.0825199999999997,69.0
1774823225.9560769,0.003846883773803711,2026-03-29T22:27:05.956,2026-03-29T18:27:05.956,-28471.68,-42662.205,-80420.355,-50048.235,-10656.855,-17373.87,6167.925,-54891.27,-31.23414543622572,-22.944264419101025,-1.5452923871701885,-1.446615795101588,1.9792914465723435,8.617371433139715,23.270380967546767,-15.415049889869305,-0.153625095,-0.978696225,-0.25622493,2.5179,6.104,-3.0825199999999997,69.0
1774823225.9561024,2.5510787963867188e-05,2026-03-29T22:27:05.956,2026-03-29T18:27:05.956,-28484.01,-42685.244999999995,-80439.48,-50056.83,-10663.83,-17383.23,6151.995,-54888.615,-33.53427484832135,-37.17179421140375,-13.524278741613697,-5.060241281278444,-2.8317183250353115,-0.8957971969725544,11.225838624379723,-9.722963553117186,-0.153625095,-0.978696225,-0.25622493,2.5179,6.104,-3.0825199999999997,69.0
1774823225.9602077,0.004105329513549805,2026-03-29T22:27:05.960,2026-03-29T18:27:05.960,-28468.35,-42650.505,-80423.055,-50046.165,-10655.64,-17384.67,6084.8099999999995,-54896.22,-19.844300159224996,-33.76172612475381,-19.937106190733115,-7.747198541050794,-8.030656752496771,-11.997096863760355,-9.050207558342846,0.17168271846582067,-0.153625095,-0.978696225,-0.25622493,2.5179,6.104,-3.0825199999999997,69.0
1774823225.9602337,2.5987625122070312e-05,2026-03-29T22:27:05.960,2026-03-29T18:27:05.960,-28407.96,-42600.284999999996,-80410.23,-50055.615,-10670.805,-17408.97,6079.005,-54858.555,4.05814240398302,-14.150209483895313,-17.50798163680866,-7.771250974989217,-10.50374102265186,-18.604574544651417,-26.541105383718183,10.280806640363311,-0.153625095,-0.978696225,-0.25622493,2.5179,6.104,-3.0825199999999997,69.0
1774823225.9650905,0.00485682487487793,2026-03-29T22:27:05.965,2026-03-29T18:27:05.965,-28390.545,-42599.115,-80429.4,-50073.57,-10697.445,-17442.899999999998,6073.155,-54829.17,27.119820479867315,12.36452122091558,-6.931474795222386,-4.200838997932967,-7.919496788921636,-16.185820680538175,-30.714851119350445,16.385370880159005,-0.153625095,-0.978696225,-0.25622493,2.5179,6.104,-3.0825199999999997,69.0
