unix_time_s,dt_s,UTC,LOCAL,EMG1_Raw,EMG2_Raw,EMG3_Raw,EMG4_Raw,EMG5_Raw,EMG6_Raw,EMG7_Raw,EMG8_Raw,EMG1_Filtered,EMG2_Filtered,EMG3_Filtered,EMG4_Filtered,EMG5_Filtered,EMG6_Filtered,EMG7_Filtered,EMG8_Filtered,Accel1_Raw,Accel2_Raw,Accel3_Raw,Gyro1_Raw,Gyro2_Raw,Gyro3_Raw,Battery
1774823747.7354703,,2026-03-29T22:35:47.735,2026-03-29T18:35:47.735,-20327.805,-44962.604999999996,-76305.19499999999,-48011.174999999996,-8258.175,-15859.125,8494.199999999999,-61789.32,0.25771859541197534,0.3635027819728602,1.1268506020715208,1.0368516005106339,0.24250664098717545,-0.45564925399573,-2.253957012690536,-0.6384001958102231,0.467711205,-0.871274625,0.170104545,25.484199999999998,21.34874,-3.64714,67.0
1774823747.735492,2.1696090698242188e-05,2026-03-29T22:35:47.735,2026-03-29T18:35:47.735,-20333.385,-44967.78,-76307.265,-48011.174999999996,-8252.505,-15852.375,8499.914999999999,-61791.479999999996,5.131241330381409,3.3235175083013466,0.22512237392968074,-0.6303062618171177,-0.41554141128723554,-0.1541486572253076,7.813298323451564,3.7641069172412323,0.467711205,-0.871274625,0.170104545,25.484199999999998,21.34874,-3.64714,67.0
1774823747.7355115,1.9550323486328125e-05,2026-03-29T22:35:47.735,2026-03-29T18:35:47.735,-20320.829999999998,-44956.53,-76293.675,-48000.645,-8245.619999999999,-15845.445,8511.435,-61777.89,7.444225947927134,4.59081076642381,-1.0039840676018088,-2.2544286558720765,-1.059362179840478,0.09128899771162456,14.285753639837626,6.300979618999922,0.46484256,-0.845273715,0.18017532,-0.79352,16.60288,-1.0224199999999999,67.0
1774823747.7355192,7.62939453125e-06,2026-03-29T22:35:47.735,2026-03-29T18:35:47.735,-20316.42,-44954.415,-76291.56,-47999.475,-8247.465,-15848.234999999999,8509.5,-61775.235,6.177647915896967,3.5392626925543538,-2.0917644946523155,-3.2164154949271944,-1.4857848163156113,0.11523854417054336,14.060620740956306,5.832162033881469,0.46484256,-0.845273715,0.18017532,-0.79352,16.60288,-1.0224199999999999,67.0
1774823747.7387803,0.003261089324951172,2026-03-29T22:35:47.738,2026-03-29T18:35:47.738,-20327.309999999998,-44958.78,-76292.37,-47999.25,-8248.14,-15850.845,8501.13,-61783.244999999995,2.062948220597004,0.7227658802938279,-2.4843249142060757,-3.0316087407144376,-1.4684839202892626,-0.061737091134854594,7.195404871422811,2.6735681865076515,0.46484256,-0.845273715,0.18017532,-0.79352,16.60288,-1.0224199999999999,67.0
1774823747.738803,2.2649765014648438e-05,2026-03-29T22:35:47.738,2026-03-29T18:35:47.738,-20335.635,-44957.205,-76289.08499999999,-47999.564999999995,-8251.605,-15857.46,8475.66,-61796.34,-2.831021265388914,-2.412367728792651,-1.8151690837965337,-1.5825338923447896,-0.8666368175174578,-0.24826017840008044,-3.0826131730330344,-1.5954359540808636,0.46484256,-0.845273715,0.18017532,-0.79352,16.60288,-1.0224199999999999,67.0
1774823747.738822,1.9073486328125e-05,2026-03-29T22:35:47.738,2026-03-29T18:35:47.738,-20334.105,-44956.395,-76288.77,-48003.615,-8258.76,-15866.189999999999,8467.695,-61796.295,-6.15101774305768,-4.27149347444128,-0.1578148024356519,0.7392346540189128,0.24690134460257454,-0.2167151793373146,-11.894087348563168,-4.928788640858319,0.46484256,-0.845273715,0.18017532,-0.79352,16.60288,-1.0224199999999999,67.0
1774823747.7388313,9.298324584960938e-06,2026-03-29T22:35:47.738,2026-03-29T18:35:47.738,-20329.92,-44956.799999999996,-76283.86499999999,-47995.604999999996,-8249.625,-15858.135,8465.355,-61788.869999999995,-6.41126001267665,-3.92893854100769,1.8960090474421791,3.085583688420006,1.523854923109495,0.12432785763036061,-15.038806625129222,-5.810000406160784,0.46484256,-0.845273715,0.18017532,-0.79352,16.60288,-1.0224199999999999,67.0
1774823747.7388413,1.0013580322265625e-05,2026-03-29T22:35:47.738,2026-03-29T18:35:47.738,-20332.89,-44972.325,-76294.98,-47996.28,-8243.279999999999,-15848.414999999999,8477.19,-61779.284999999996,-3.671109895332065,-1.5971066998294696,3.4226728786234677,4.4344533680441325,2.4184387658375917,0.6315706550730478,-11.020611348750412,-3.9559278085596845,0.46484256,-0.845273715,0.18017532,-0.79352,16.60288,-1.0224199999999999,67.0
1774823747.7388496,8.344650268554688e-06,2026-03-29T22:35:47.738,2026-03-29T18:35:47.738,-20335.545,-44944.695,-76275.315,-47979.54,-8225.55,-15827.49,8511.795,-61789.185,0.5771392586594205,1.4938657818276793,3.575361947561632,4.025635498426978,2.410489225137442,0.9772619685540228,-1.7804914139230583,-0.3947645333760419,0.46484256,-0.845273715,0.18017532,-0.79352,16.60288,-1.0224199999999999,67.0
1774823747.7388597,1.0013580322265625e-05,2026-03-29T22:35:47.738,2026-03-29T18:35:47.738,-20308.77,-44928.0,-76281.165,-47993.49,-8240.58,-15840.269999999999,8534.43,-61786.665,4.218347767528501,3.7414422879772657,2.037974649929456,1.7692154795572708,1.2882816249672546,0.8366194715149337,8.229989310815391,3.095312379530957,0.46484256,-0.845273715,0.18017532,-0.79352,16.60288,-1.0224199999999999,67.0
1774823747.738868,8.344650268554688e-06,2026-03-29T22:35:47.738,2026-03-29T18:35:47.738,-20304.045,-44943.93,-76291.875,-48006.36,-8254.44,-15855.164999999999,8527.185,-61773.435,5.584338886507978,4.003995482304852,-0.7133487295605335,-1.5858119915018067,-0.6562186982628662,0.11225473419756156,14.197209580683248,4.883920790083436,0.46484256,-0.845273715,0.18017532,-0.79352,16.60288,-1.0224199999999999,67.0
1774823747.7388775,9.5367431640625e-06,2026-03-29T22:35:47.738,2026-03-29T18:35:47.738,-20328.255,-44962.155,-76300.965,-48010.5,-8255.43,-15857.369999999999,8514.72,-61780.95,4.235270299598979,2.1878860215489575,-3.5168047541421554,-4.6591933475894916,-2.65432648811854,-0.9418239350225658,13.27744013597562,4.265286710162502,0.463438755,-0.840757125,0.186095715,-17.35062,12.803139999999999,3.2045999999999997,67.0
1774823747.7388856,8.106231689453125e-06,2026-03-29T22:35:47.738,2026-03-29T18:35:47.738,-20331.719999999998,-44949.42,-76289.895,-48000.465,-8245.44,-15848.369999999999,8521.785,-61788.869999999995,1.0782122871570086,-0.7165219018491689,-5.0059811575792,-5.993470898040864,-3.7492335391265867,-1.792433413186674,5.975530080373916,1.7369638529226241,0.463438755,-0.840757125,0.186095715,-17.35062,12.803139999999999,3.2045999999999997,67.0
1774823747.7388957,1.0013580322265625e-05,2026-03-29T22:35:47.738,2026-03-29T18:35:47.738,-20326.094999999998,-44941.32,-76279.815,-47993.354999999996,-8239.815,-15844.23,8517.69,-61787.744999999995,-2.1942614223342445,-3.1659159937308194,-4.2718768355514865,-4.740167587530488,-3.247060856018635,-1.8867706660086336,-4.107665942230977,-1.3301288313515,0.463438755,-0.840757125,0.186095715,-17.35062,12.803139999999999,3.2045999999999997,67.0
1774823747.7389045,8.821487426757812e-06,2026-03-29T22:35:47.738,2026-03-29T18:35:47.738,-20333.07,-44950.365,-76280.08499999999,-47987.685,-8232.975,-15838.875,8515.035,-61792.38,-4.014288915838392,-3.880884447268187,-1.3869269387813505,-1.1573970211459943,-1.1208816201655025,-0.9768198503905368,-12.041182654367551,-3.4300138762906967,0.463438755,-0.840757125,0.186095715,-17.35062,12.803139999999999,3.2045999999999997,67.0
1774823747.738914,9.5367431640625e-06,2026-03-29T22:35:47.738,2026-03-29T18:35:47.738,-20330.64,-44973.54,-76306.455,-48008.475,-8249.985,-15853.455,8507.925,-61792.695,-3.707608717455952,-2.51761030407265,2.5005384122817147,3.359508971314759,1.8562577809735377,0.6712591984938987,-13.980926625919956,-3.6727631298028935,0.463438755,-0.840757125,0.186095715,-17.35062,12.803139999999999,3.2045999999999997,67.0
1774823747.738922,8.106231689453125e-06,2026-03-29T22:35:47.738,2026-03-29T18:35:47.738,-20328.03,-44967.104999999996,-76303.44,-48008.564999999995,-8251.695,-15855.21,8505.135,-61786.079999999994,-1.7360294885721468,0.1594441799889985,5.607163971159738,6.799374646511226,4.367510571153137,2.323807009172429,-9.05074006632611,-2.1687163083382313,0.463438755,-0.840757125,0.186095715,-17.35062,12.803139999999999,3.2045999999999997,67.0
1774823747.7389317,9.5367431640625e-06,2026-03-29T22:35:47.738,2026-03-29T18:35:47.738,-20326.364999999998,-44950.14,-76288.455,-48000.645,-8252.64,-15858.269999999999,8498.385,-61785.72,0.6701471094390826,2.6937923797338668,6.331358446903587,7.427016770707631,5.128456692938067,3.098610801856495,0.24034829334250693,0.12389912982008199,0.463438755,-0.840757125,0.186095715,-17.35062,12.803139999999999,3.2045999999999997,67.0
1774823747.7389395,7.867813110351562e-06,2026-03-29T22:35:47.738,2026-03-29T18:35:47.738,-20308.454999999998,-44936.955,-76283.50499999999,-48000.555,-8256.555,-15863.265,8496.945,-61783.155,2.244787774020765,3.719999876075075,4.072900586572819,4.6523712927920595,3.5346598493071713,2.4212808458457067,9.252809225530642,1.9706705650858238,0.463438755,-0.840757125,0.186095715,-17.35062,12.803139999999999,3.2045999999999997,67.0
1774823747.7456677,0.006728172302246094,2026-03-29T22:35:47.745,2026-03-29T18:35:47.745,-20314.98,-44943.21,-76284.54,-47999.115,-8252.55,-15858.494999999999,8506.395,-61786.259999999995,2.3602737664855793,2.696240509528848,-0.3616636264681391,-0.5559588377370164,0.05769605651352711,0.38816508988010867,13.524004446500655,2.5238903566894555,0.463438755,-0.840757125,0.186095715,-17.35062,12.803139999999999,3.2045999999999997,67.0
1774823747.7456849,1.71661376953125e-05,2026-03-29T22:35:47.745,2026-03-29T18:35:47.745,-20321.73,-44948.34,-76289.175,-47999.744999999995,-8249.085,-15855.66,8506.485,-61792.155,1.2813983907336843,0.19473704277499873,-5.017556213841801,-5.970715803769945,-3.847807339630024,-2.1762617091118472,10.984172818124073,1.721342335699828,0.463438755,-0.840757125,0.186095715,-17.35062,12.803139999999999,3.2045999999999997,67.0
1774823747.7457142,2.9325485229492188e-05,2026-03-29T22:35:47.745,2026-03-29T18:35:47.745,-20326.32,-44955.134999999995,-76296.375,-48005.055,-8252.505,-15856.605,8501.535,-61796.43,-0.10652951122114941,-2.4070670898569313,-7.650571093302434,-9.051372729277558,-6.3428091994990465,-4.042414197002819,2.978054493035896,0.22870052337255123,0.463804965,-0.854306895,0.19097851500000002,-19.18182,11.857019999999999,5.76828,67.0
1774823747.74572,5.7220458984375e-06,2026-03-29T22:35:47.745,2026-03-29T18:35:47.745,-20336.76,-44969.895,-76296.23999999999,-48002.04,-8254.215,-15857.144999999999,8495.414999999999,-61797.42,-0.8985110591832387,-3.67184328243456,-6.810876703185793,-8.137982683188692,-6.067593709959107,-4.1589875846254545,-6.419615688127942,-1.0087938780058041,0.463804965,-0.854306895,0.19097851500000002,-19.18182,11.857019999999999,5.76828,67.0
1774823747.7516851,0.005965232849121094,2026-03-29T22:35:47.751,2026-03-29T18:35:47.751,-20337.344999999998,-44960.354999999996,-76278.19499999999,-47984.939999999995,-8243.414999999999,-15847.83,8495.369999999999,-61797.465,-0.7258358417418572,-2.8858855773082395,-2.6276107260883443,-3.3318665397943645,-2.8660518846265313,-2.222489906736082,-12.456020560936148,-1.3299558953124937,0.463804965,-0.854306895,0.19097851500000002,-19.18182,11.857019999999999,5.76828,67.0
1774823747.7517085,2.3365020751953125e-05,2026-03-29T22:35:47.751,2026-03-29T18:35:47.751,-20331.36,-44941.365,-76268.87999999999,-47973.375,-8232.119999999999,-15840.9,8491.185,-61808.085,0.062073568339941446,-0.45787511119242863,3.125022661100637,3.3988286085349007,2.009125309740492,1.0677326155066849,-12.0942952426925,-0.7122350788240284,0.463804965,-0.854306895,0.19097851500000002,-19.18182,11.857019999999999,5.76828,67.0
1774823747.7556963,0.003987789154052734,2026-03-29T22:35:47.755,2026-03-29T18:35:47.755,-20307.42,-44929.259999999995,-76265.81999999999,-47971.619999999995,-8232.795,-15845.805,8489.925,-61796.52,0.6844102818253154,2.28799217781155,7.7725375144286435,9.010749777787046,6.368404403405749,4.240201408629515,-5.547175375136902,0.27356077299372816,0.463804965,-0.854306895,0.19097851500000002,-19.18182,11.857019999999999,5.76828,67.0
1774823747.755716,1.9788742065429688e-05,2026-03-29T22:35:47.755,2026-03-29T18:35:47.755,-20326.14,-44961.255,-76285.62,-47980.89,-8235.99,-15848.595,8503.38,-61793.1,0.49284342952796084,3.821918793436234,8.987895043947985,10.76425304140922,8.067589116543163,5.705350536858981,3.826633446762996,0.8626660639149434,0.463804965,-0.854306895,0.19097851500000002,-19.18182,11.857019999999999,5.76828,67.0
1774823747.7651315,0.009415388107299805,2026-03-29T22:35:47.765,2026-03-29T18:35:47.765,-20336.76,-44971.29,-76301.145,-47995.74,-8248.635,-15860.205,8505.585,-61792.47,-0.5483640940165582,3.2454221703480024,5.958401476405331,7.564027734716066,6.060622852717809,4.5443767715766095,11.220106401505268,0.5998219965037409,0.463804965,-0.854306895,0.19097851500000002,-19.18182,11.857019999999999,5.76828,67.0
1774823747.7651453,1.3828277587890625e-05,2026-03-29T22:35:47.765,2026-03-29T18:35:47.765,-20328.255,-44976.509999999995,-76317.48,-48015.09,-8259.39,-15865.019999999999,8508.779999999999,-61786.935,-1.7793340873900068,0.8032619971033643,-0.1140732145883682,0.6041019899927553,1.006811974512338,1.044310982267974,12.820705334187723,-0.35998240907050466,0.463804965,-0.854306895,0.19097851500000002,-19.18182,11.857019999999999,5.76828,67.0
1774823747.765158,1.2636184692382812e-05,2026-03-29T22:35:47.765,2026-03-29T18:35:47.765,-20316.555,-44974.665,-76324.31999999999,-48037.32,-8275.545,-15874.56,8509.949999999999,-61773.255,-2.232838053654757,-2.2157287720856647,-6.473048529171356,-7.049003366989578,-4.907528089468291,-3.3190496573407215,7.764881018910027,-1.3380710037221177,0.463804965,-0.854306895,0.19097851500000002,-19.18182,11.857019999999999,5.76828,67.0
1774823747.7651625,4.5299530029296875e-06,2026-03-29T22:35:47.765,2026-03-29T18:35:47.765,-20325.465,-44966.475,-76313.11499999999,-48037.725,-8276.625,-15873.119999999999,8509.275,-61783.649999999994,-1.27520287792665,-4.151454249868387,-10.061708177711147,-11.807177312467285,-8.91093782989106,-6.496732205030254,-1.3937802895104001,-1.5595838371745785,0.463804965,-0.854306895,0.19097851500000002,-19.18182,11.857019999999999,5.76828,67.0
1774823747.7675264,0.002363920211791992,2026-03-29T22:35:47.767,2026-03-29T18:35:47.767,-20330.19,-44967.689999999995,-76318.83,-48033.225,-8271.18,-15865.605,8507.88,-61790.895,0.8919791563728879,-3.8704687882812907,-8.999783796107979,-11.251352703588637,-8.949050140501864,-6.827875115426618,-9.957060242061498,-0.668563353861609,0.46948122000000003,-0.87792744,0.199035135,-13.79504,14.497,12.955739999999999,67.0
1774823747.7675426,1.621246337890625e-05,2026-03-29T22:35:47.767,2026-03-29T18:35:47.767,-20317.59,-44958.645,-76307.58,-48021.03,-8261.145,-15860.564999999999,8497.395,-61781.534999999996,3.205569464602291,-1.4089516003531715,-3.5663295684611303,-5.361776112425481,-4.733905082735553,-3.896187283086769,-13.46761810657718,0.9850628633006941,0.46948122000000003,-0.87792744,0.199035135,-13.79504,14.497,12.955739999999999,67.0
1774823747.7709644,0.003421783447265625,2026-03-29T22:35:47.770,2026-03-29T18:35:47.770,-20317.635,-44951.4,-76288.635,-48007.665,-8253.494999999999,-15855.164999999999,8491.005,-61787.024999999994,4.262477645176353,1.9963009889884105,3.824156913707022,3.3378367819793304,1.9937302132520822,1.1557712060214667,-10.004964095805642,2.479793750085381,0.46948122000000003,-0.87792744,0.199035135,-13.79504,14.497,12.955739999999999,67.0
1774823747.7709806,1.621246337890625e-05,2026-03-29T22:35:47.770,2026-03-29T18:35:47.770,-20344.14,-44952.435,-76273.73999999999,-47995.02,-8243.73,-15848.279999999999,8496.045,-61823.34,3.1334020114702033,4.527600102171557,9.693844520941829,10.855393476807937,8.172794381085092,6.056960750987922,-1.2175620766953863,2.8290310700601617,0.46948122000000003,-0.87792744,0.199035135,-13.79504,14.497,12.955739999999999,67.0
1774823747.7757168,0.004736185073852539,2026-03-29T22:35:47.775,2026-03-29T18:35:47.775,-20329.785,-44944.965,-76270.68,-47994.57,-8245.395,-15851.25,8503.695,-61805.204999999994,0.010011127774558053,4.74678834988046,11.146757740233356,13.57072400744678,10.819062581596542,8.429704256327588,8.457247777291029,1.5844664495532064,0.46948122000000003,-0.87792744,0.199035135,-13.79504,14.497,12.955739999999999,67.0
1774823747.7757363,1.9550323486328125e-05,2026-03-29T22:35:47.775,2026-03-29T18:35:47.775,-20309.489999999998,-44939.744999999995,-76268.83499999999,-47986.515,-8238.24,-15846.974999999999,8509.185,-61778.204999999994,-3.722489229595442,2.3925556648373165,7.305072485693398,9.989248869982513,8.47167331387152,6.943195838826177,14.018661936306488,-0.816814292579688,0.46948122000000003,-0.87792744,0.199035135,-13.79504,14.497,12.955739999999999,67.0
1774823747.778856,0.0031197071075439453,2026-03-29T22:35:47.778,2026-03-29T18:35:47.778,-20325.87,-44944.784999999996,-76273.83,-47982.42,-8232.885,-15842.519999999999,8512.11,-61789.365,-6.101083937917603,-1.4200298760499284,-0.1789793000949191,1.55511369483525,1.9855966077861655,2.0389580568351016,12.462471284358395,-3.1916001770053795,0.46948122000000003,-0.87792744,0.199035135,-13.79504,14.497,12.955739999999999,67.0
1774823747.778868,1.1920928955078125e-05,2026-03-29T22:35:47.778,2026-03-29T18:35:47.778,-20339.594999999998,-44956.08,-76294.17,-47999.655,-8243.01,-15849.404999999999,8508.51,-61808.625,-5.615247751506932,-4.729147705057803,-7.826844381623068,-7.914508351083771,-5.754477251308143,-4.159730299249108,4.373644948823732,-4.201557428795482,0.46948122000000003,-0.87792744,0.199035135,-13.79504,14.497,12.955739999999999,67.0
1774823747.7841375,0.005269527435302734,2026-03-29T22:35:47.784,2026-03-29T18:35:47.784,-20340.63,-44967.689999999995,-76303.44,-48009.6,-8248.095,-15851.16,8509.86,-61800.119999999995,-2.112074089743751,-5.732718977097318,-11.95725201011329,-13.962144891642216,-11.119093700098874,-8.76593936004687,-6.282634162358335,-3.097949632734169,0.46948122000000003,-0.87792744,0.199035135,-13.79504,14.497,12.955739999999999,67.0
1774823747.7841585,2.09808349609375e-05,2026-03-29T22:35:47.784,2026-03-29T18:35:47.784,-20334.915,-44961.84,-76304.11499999999,-48012.705,-8249.265,-15850.71,8508.33,-61794.405,2.9472554859117914,-3.756351685723743,-10.468896325266256,-13.601260122872587,-11.445055980721703,-9.478940146575848,-14.104075731116419,-0.20987352637531528,0.46948122000000003,-0.87792744,0.199035135,-13.79504,14.497,12.955739999999999,67.0
1774823747.7874439,0.0032854080200195312,2026-03-29T22:35:47.787,2026-03-29T18:35:47.787,-20308.635,-44947.845,-76306.41,-48018.104999999996,-8255.835,-15854.625,8501.265,-61789.274999999994,7.091135439391484,0.33214587087453884,-3.914187970483257,-6.800326207847717,-6.361941052651447,-5.732439450419394,-14.976398706202323,3.1223114981345192,0.484068585,-0.90417249,0.20922798,-7.034859999999999,19.960079999999998,21.837059999999997,67.0
1774823747.787464,2.002716064453125e-05,2026-03-29T22:35:47.787,2026-03-29T18:35:47.787,-20312.73,-44963.235,-76315.905,-48022.92,-8259.75,-15859.125,8496.63,-61788.78,8.055942487307659,4.5040459459728375,4.68639766146619,3.4015394870744613,1.9285479262240488,0.9316638781733488,-8.210163507019182,5.179403239464102,0.484068585,-0.90417249,0.20922798,-7.034859999999999,19.960079999999998,21.837059999999997,67.0
1774823747.7913766,0.003912687301635742,2026-03-29T22:35:47.791,2026-03-29T18:35:47.791,-20326.86,-44967.78,-76304.025,-48008.97,-8247.555,-15850.89,8498.925,-61789.994999999995,5.014075349589122,6.579269125516196,11.239403498567933,12.252397467737936,9.603244132143312,7.4905507660984325,3.011392919621817,4.759247051317601,0.484068585,-0.90417249,0.20922798,-7.034859999999999,19.960079999999998,21.837059999999997,67.0
1774823747.791405,2.8371810913085938e-05,2026-03-29T22:35:47.791,2026-03-29T18:35:47.791,-20344.68,-44968.77,-76298.67,-48004.965,-8244.63,-15848.73,8501.265,-61805.204999999994,-0.8508506044149252,5.360376912394298,12.537111120408545,15.512619522326894,12.989786134976649,10.81811427099777,13.14057088974986,1.8663308173662125,0.484068585,-0.90417249,0.20922798,-7.034859999999999,19.960079999999998,21.837059999999997,67.0
1774823747.7957144,0.004309415817260742,2026-03-29T22:35:47.795,2026-03-29T18:35:47.795,-20339.91,-44950.005,-76291.56,-48004.155,-8247.24,-15853.32,8496.539999999999,-61810.604999999996,-6.7857730931879985,1.302963386445723,7.837856517818772,11.500161789307535,10.334939673883223,9.182482499757043,17.01066016128457,-2.194881314856383,0.484068585,-0.90417249,0.20922798,-7.034859999999999,19.960079999999998,21.837059999999997,67.0
1774823747.7957392,2.47955322265625e-05,2026-03-29T22:35:47.795,2026-03-29T18:35:47.795,-20311.245,-44934.479999999996,-76284.765,-47999.295,-8244.315,-15853.14,8489.88,-61802.055,-9.773856286350597,-3.6454487342281974,-0.715058561265514,1.9629411518387216,2.7125631468408105,3.1427247839988075,12.458155957058741,-5.414981604373979,0.484068585,-0.90417249,0.20922798,-7.034859999999999,19.960079999999998,21.837059999999997,67.0
1774823747.799075,0.003335714340209961,2026-03-29T22:35:47.799,2026-03-29T18:35:47.799,-20306.745,-44940.869999999995,-76283.055,-47995.38,-8241.84,-15852.33,8490.645,-61789.814999999995,-8.079202942968108,-6.98663869614163,-9.069883889587514,-8.675619464093034,-6.3990791885522595,-4.617868692140765,1.494800310098918,-6.089170910547108,0.484068585,-0.90417249,0.20922798,-7.034859999999999,19.960079999999998,21.837059999999997,67.0
1774823747.7990851,1.0251998901367188e-05,2026-03-29T22:35:47.799,2026-03-29T18:35:47.799,-20329.155,-44961.57,-76304.655,-48013.74,-8255.654999999999,-15862.32,8492.22,-61796.744999999995,-2.235356135374107,-6.935184937082798,-13.193922356478264,-15.376035048656245,-12.711201110425165,-10.48836156277267,-10.59340633374984,-3.7283343487767726,0.484068585,-0.90417249,0.20922798,-7.034859999999999,19.960079999999998,21.837059999999997,67.0
1774823747.8029528,0.003867626190185547,2026-03-29T22:35:47.802,2026-03-29T18:35:47.802,-20321.505,-44961.795,-76314.285,-48027.465,-8271.63,-15879.015,8469.135,-61791.795,5.076978826245347,-3.3639563665310583,-11.031134161727154,-14.884742941989552,-13.156313227300261,-11.621363029374178,-17.81186807453671,0.6177159647676818,0.484068585,-0.90417249,0.20922798,-7.034859999999999,19.960079999999998,21.837059999999997,67.0
1774823747.8029697,1.6927719116210938e-05,2026-03-29T22:35:47.802,2026-03-29T18:35:47.802,-20306.88,-44947.08,-76296.735,-48014.055,-8262.0,-15874.515,8459.19,-61781.445,10.26928846179101,2.065976929179432,-3.534391871350922,-7.327030487499152,-7.389477222475939,-7.321904084755362,-16.435085561101143,4.8271368268781165,0.484068585,-0.90417249,0.20922798,-7.034859999999999,19.960079999999998,21.837059999999997,67.0
1774823747.8074996,0.0045299530029296875,2026-03-29T22:35:47.807,2026-03-29T18:35:47.807,-20311.559999999998,-44950.545,-76292.50499999999,-48007.619999999995,-8255.43,-15867.18,8464.5,-61789.229999999996,10.624677210021408,6.685160091969988,5.748876034092493,3.7946307587899466,1.9803960259509348,0.5469480911152726,-6.914209202570496,6.7561505418892045,0.496885935,-0.918637785,0.22009221,-3.9828599999999996,22.92052,35.14378,67.0
1774823747.807516,1.6450881958007812e-05,2026-03-29T22:35:47.807,2026-03-29T18:35:47.807,-20318.04,-44964.18,-76297.5,-48008.97,-8255.34,-15864.795,8482.185,-61781.579999999994,5.727371161288975,8.135894218566454,12.360210272678472,13.226470511838315,10.573231735533351,8.371248003885409,6.257712631984995,5.3471774069310225,0.496885935,-0.918637785,0.22009221,-3.9828599999999996,22.92052,35.14378,67.0
1774823747.8157103,0.008194208145141602,2026-03-29T22:35:47.815,2026-03-29T18:35:47.815,-20326.545,-44967.015,-76284.405,-47991.78,-8235.855,-15843.689999999999,8520.75,-61770.645,-2.2123673149274325,5.57623587058791,13.081198886902435,16.457325538439736,14.297337060421567,12.45694842771298,16.690635170135863,1.2163329463859514,0.496885935,-0.918637785,0.22009221,-3.9828599999999996,22.92052,35.14378,67.0
1774823747.8157697,5.936622619628906e-05,2026-03-29T22:35:47.815,2026-03-29T18:35:47.815,-20353.815,-44963.909999999996,-76279.14,-47985.659999999996,-8228.07,-15832.349999999999,8535.824999999999,-61796.25,-9.358089959377194,0.15243279423867725,7.509406522634513,11.890988342643562,11.311852739908193,10.78701913546524,19.218198217918722,-3.607678383564054,0.496885935,-0.918637785,0.22009221,-3.9828599999999996,22.92052,35.14378,67.0
1774823747.8157835,1.3828277587890625e-05,2026-03-29T22:35:47.815,2026-03-29T18:35:47.815,-20354.489999999998,-44970.884999999995,-76308.25499999999,-48014.685,-8253.09,-15852.555,8518.005,-61822.845,-12.118787720646582,-5.519613984647675,-1.716783496980275,1.644218043536662,2.9444797748774523,4.023270978060912,12.46082791283779,-6.687432118886516,0.496885935,-0.918637785,0.22009221,-3.9828599999999996,22.92052,35.14378,67.0
1774823747.8157885,5.0067901611328125e-06,2026-03-29T22:35:47.815,2026-03-29T18:35:47.815,-20317.635,-44960.895,-76318.69499999999,-48039.165,-8283.869999999999,-15880.814999999999,8490.645,-61804.53,-8.971514885916603,-8.6268652536187,-10.169526185245982,-9.43228563991581,-6.896288646269444,-4.747335183414788,-0.4434141707925059,-6.4237464298174025,0.496885935,-0.918637785,0.22009221,-3.9828599999999996,22.92052,35.14378,67.0
1774823747.81906,0.0032715797424316406,2026-03-29T22:35:47.819,2026-03-29T18:35:47.819,-20336.85,-44987.354999999996,-76321.17,-48039.03,-8287.47,-15890.984999999999,8444.07,-61805.655,-1.3027822735996228,-7.56165691922966,-13.764146592831835,-16.057856507877563,-13.555608209580424,-11.429758966396202,-13.32045523351471,-2.9020829238573853,0.496885935,-0.918637785,0.22009221,-3.9828599999999996,22.92052,35.14378,67.0
1774823747.819078,1.7881393432617188e-05,2026-03-29T22:35:47.819,2026-03-29T18:35:47.819,-20332.8,-44986.95,-76315.00499999999,-48024.0,-8272.035,-15885.404999999999,8401.904999999999,-61820.28,7.195302197128899,-2.751473766780429,-10.741785305411813,-15.0524453927998,-13.84822018360066,-12.84716419227272,-19.9443816941817,2.114920352910479,0.496885935,-0.918637785,0.22009221,-3.9828599999999996,22.92052,35.14378,67.0
1774823747.8231215,0.0040435791015625,2026-03-29T22:35:47.823,2026-03-29T18:35:47.823,-20311.92,-44943.975,-76283.50499999999,-47994.435,-8249.355,-15868.89,8415.36,-61809.39,12.314911622412327,3.5117623293452023,-2.5353002733796597,-6.874878749002261,-7.594415590998596,-8.263859237542384,-17.06861391750742,6.0673362129898525,0.496885935,-0.918637785,0.22009221,-3.9828599999999996,22.92052,35.14378,67.0
1774823747.8231385,1.6927719116210938e-05,2026-03-29T22:35:47.823,2026-03-29T18:35:47.823,-20262.015,-44899.83,-76262.715,-47980.17,-8242.695,-15861.105,8460.27,-61772.31,11.435113664112611,8.17521599653466,6.9102106212939685,4.580595395738433,2.270179021410112,0.23079695068657793,-6.018669471865588,6.911793979602931,0.496885935,-0.918637785,0.22009221,-3.9828599999999996,22.92052,35.14378,67.0
1774823747.8276188,0.0044803619384765625,2026-03-29T22:35:47.827,2026-03-29T18:35:47.827,-20276.505,-44901.045,-76231.575,-47937.104999999996,-8195.49,-15811.38,8542.845,-61754.04,4.878522773312609,8.924909757551221,13.039530645027199,13.841861212122991,11.076902716991123,8.678441231539827,7.936356413391989,4.192071764843289,0.482725815,-0.914121195,0.22753848000000002,-9.629059999999999,19.685399999999998,42.59066,67.0
1774823747.8276396,2.0742416381835938e-05,2026-03-29T22:35:47.827,2026-03-29T18:35:47.827,-20338.155,-44941.229999999996,-76252.41,-47946.825,-8196.93,-15809.939999999999,8558.324999999999,-61780.814999999995,-4.185630484054142,5.339558552245041,12.891695428998977,16.48246836513056,14.645266655316323,13.108556096553338,18.12809266903517,-0.6993304880638316,0.482725815,-0.914121195,0.22753848000000002,-9.629059999999999,19.685399999999998,42.59066,67.0
1774823747.8314471,0.003807544708251953,2026-03-29T22:35:47.831,2026-03-29T18:35:47.831,-20378.43,-44971.784999999996,-76283.955,-47979.494999999995,-8227.26,-15837.39,8521.47,-61814.024999999994,-11.277556212652351,-0.8795799306294197,6.5357553009686775,11.24838707890762,11.280660365573954,11.419432082787262,19.706665368763243,-5.222382113217435,0.482725815,-0.914121195,0.22753848000000002,-9.629059999999999,19.685399999999998,42.59066,67.0
1774823747.8314705,2.3365020751953125e-05,2026-03-29T22:35:47.831,2026-03-29T18:35:47.831,-20375.1,-44959.95,-76274.37,-47970.18,-8216.955,-15827.13,8512.425,-61833.375,-12.835223310901585,-6.725860995288896,-2.9609953859168296,0.660910307255929,2.587813432248285,4.385557491876777,11.965359491424724,-7.0044371947981245,0.482725815,-0.914121195,0.22753848000000002,-9.629059999999999,19.685399999999998,42.59066,67.0
1774823747.8355691,0.004098653793334961,2026-03-29T22:35:47.835,2026-03-29T18:35:47.835,-20358.54,-44958.33,-76276.215,-47978.145,-8218.8,-15823.71,8514.585,-61825.994999999995,-8.02011766249113,-9.35440451015446,-11.017695957866708,-10.197192461710271,-7.294180104605639,-4.695832363618404,-1.3497898068054393,-5.089397407943519,0.482725815,-0.914121195,0.22753848000000002,-9.629059999999999,19.685399999999998,42.59066,67.0
1774823747.8355887,1.9550323486328125e-05,2026-03-29T22:35:47.835,2026-03-29T18:35:47.835,-20350.079999999998,-44978.445,-76310.145,-48019.409999999996,-8247.96,-15842.97,8517.24,-61807.59,0.8216553356314468,-7.477131080056655,-13.756169312553096,-16.12745435399441,-13.670312615761734,-11.558321944695528,-13.877750287446949,-0.46205019504062356,0.482725815,-0.914121195,0.22753848000000002,-9.629059999999999,19.685399999999998,42.59066,67.0
1774823747.8409293,0.005340576171875,2026-03-29T22:35:47.840,2026-03-29T18:35:47.840,-20321.864999999998,-44960.939999999995,-76316.895,-48037.905,-8265.69,-15855.885,8517.555,-61792.29,9.298739407740936,-1.9967004757571984,-9.872697102217883,-14.313167970130301,-13.531939876860703,-12.984187958801893,-19.715419868267887,4.442907113288006,0.482725815,-0.914121195,0.22753848000000002,-9.629059999999999,19.685399999999998,42.59066,67.0
1774823747.8409464,1.71661376953125e-05,2026-03-29T22:35:47.840,2026-03-29T18:35:47.840,-20307.329999999998,-44945.82,-76291.02,-48014.189999999995,-8254.35,-15851.744999999999,8513.685,-61783.829999999994,13.161782894788246,4.433972796848522,-1.2591054114635283,-5.664274143418058,-6.986425027670192,-8.32603512034487,-16.226348158282537,7.007646151438407,0.482725815,-0.914121195,0.22753848000000002,-9.629059999999999,19.685399999999998,42.59066,67.0
1774823747.8430717,0.002125263214111328,2026-03-29T22:35:47.843,2026-03-29T18:35:47.843,-20313.899999999998,-44962.47,-76287.69,-48006.134999999995,-8247.24,-15846.705,8517.96,-61767.81,10.445661961693682,8.708793695270636,7.922952601224533,5.635640619255243,2.80965433632881,0.1930121759616158,-5.236790271000138,5.819239666402969,0.482725815,-0.914121195,0.22753848000000002,-9.629059999999999,19.685399999999998,42.59066,67.0
1774823747.8431194,4.76837158203125e-05,2026-03-29T22:35:47.843,2026-03-29T18:35:47.843,-20343.149999999998,-44970.795,-76285.89,-47992.365,-8228.16,-15825.824999999999,8537.4,-61774.02,2.4814165317006895,8.782164374127372,13.259239566699446,14.155549268313328,11.175808711134344,8.542328520443174,7.925689106693857,1.4462167546552238,0.482725815,-0.914121195,0.22753848000000002,-9.629059999999999,19.685399999999998,42.59066,67.0
1774823747.8472817,0.004162311553955078,2026-03-29T22:35:47.847,2026-03-29T18:35:47.847,-20341.575,-44953.695,-76296.735,-48003.39,-8236.619999999999,-15834.644999999999,8533.529999999999,-61806.465,-6.747542080422946,4.655522329304497,12.21018730716571,15.833045474317153,14.152379198873055,12.800381400275002,17.043156507944218,-3.821550059540459,0.4614246,-0.8865333750000001,0.238341675,-6.83648,19.685399999999998,37.5396,67.0
1774823747.8473337,5.1975250244140625e-05,2026-03-29T22:35:47.847,2026-03-29T18:35:47.847,-20314.44,-44961.615,-76327.47,-48038.354999999996,-8272.305,-15869.835,8507.835,-61810.155,-12.596268667550431,-1.642561017934934,5.319998957679527,9.916784103076221,10.383828482552449,11.009004336080215,17.976097037366,-7.155427015407936,0.4614246,-0.8865333750000001,0.238341675,-6.83648,19.685399999999998,37.5396,67.0
1774823747.8514276,0.00409388542175293,2026-03-29T22:35:47.851,2026-03-29T18:35:47.851,-20326.815,-44971.38,-76315.545,-48023.64,-8258.715,-15856.92,8511.975,-61797.42,-12.100572523123175,-7.063108679783238,-4.068594188407322,-0.6962383534980707,1.7405359106001281,4.083048845246699,10.558813738315848,-6.687434191752098,0.4614246,-0.8865333750000001,0.238341675,-6.83648,19.685399999999998,37.5396,67.0
1774823747.8514433,1.5735626220703125e-05,2026-03-29T22:35:47.851,2026-03-29T18:35:47.851,-20331.27,-44971.74,-76307.355,-48014.145,-8251.605,-15851.474999999999,8510.4,-61788.915,-5.486960313857135,-9.026458371110111,-11.443210202376884,-10.880049567658135,-7.607932994032756,-4.651004541114361,-1.4533094635940673,-2.5381426797326503,0.4614246,-0.8865333750000001,0.238341675,-6.83648,19.685399999999998,37.5396,67.0
1774823747.8554084,0.003965139389038086,2026-03-29T22:35:47.855,2026-03-29T18:35:47.855,-20318.13,-44958.645,-76301.415,-48011.85,-8252.279999999999,-15853.904999999999,8504.955,-61778.25,3.921986163066737,-6.66093787147296,-13.296840518361963,-15.759223317811824,-13.208896064361968,-11.056525270397412,-12.296286157639722,3.1855752400343884,0.4614246,-0.8865333750000001,0.238341675,-6.83648,19.685399999999998,37.5396,67.0
1774823747.855425,1.6450881958007812e-05,2026-03-29T22:35:47.855,2026-03-29T18:35:47.855,-20314.755,-44955.494999999995,-76307.48999999999,-48018.465,-8259.345,-15861.24,8494.289999999999,-61795.395,11.37127478348006,-1.190710076620807,-8.79713340613764,-13.046672724364907,-12.454397257946743,-12.15514135230895,-16.991219041918313,7.450883703832038,0.4614246,-0.8865333750000001,0.238341675,-6.83648,19.685399999999998,37.5396,67.0
1774823747.8718312,0.01640629768371582,2026-03-29T22:35:47.871,2026-03-29T18:35:47.871,-20322.54,-44948.43,-76294.215,-48002.715,-8243.324999999999,-15847.019999999999,8502.074999999999,-61815.465,13.074136608843077,4.700052443553115,-0.15423586864453545,-4.116499896579098,-5.8004253534026775,-7.521151540856469,-13.653117185967792,7.886326877910038,0.4614246,-0.8865333750000001,0.238341675,-6.83648,19.685399999999998,37.5396,67.0
1774823747.87185,1.8835067749023438e-05,2026-03-29T22:35:47.871,2026-03-29T18:35:47.871,-20329.965,-44954.505,-76294.08,-48000.96,-8242.92,-15846.705,8505.63,-61816.59,8.137365828584207,8.195477985471967,8.472338592403736,6.691752383922876,3.4946271856669524,0.5549979702528748,-4.234395473048358,4.071578704511897,0.4614246,-0.8865333750000001,0.238341675,-6.83648,19.685399999999998,37.5396,67.0
1774823747.8719015,5.14984130859375e-05,2026-03-29T22:35:47.871,2026-03-29T18:35:47.871,-20331.54,-44955.674999999996,-76288.185,-47994.119999999995,-8235.99,-15837.885,8517.96,-61815.42,-0.9682543254962842,7.706472292246295,12.983636426514726,14.184939110274449,10.966722011478199,8.195874674848339,6.581910948573637,-2.16196003141307,0.4614246,-0.8865333750000001,0.238341675,-6.83648,19.685399999999998,37.5396,67.0
1774823747.871908,6.4373016357421875e-06,2026-03-29T22:35:47.871,2026-03-29T18:35:47.871,-20327.895,-44957.88,-76294.575,-48001.5,-8241.795,-15844.68,8516.385,-61810.155,-9.64045173316318,3.5983536741499393,11.292642922506422,14.814451946825091,13.094450341588388,11.80278282677521,13.724631072508723,-7.610845326045223,0.4614246,-0.8865333750000001,0.238341675,-6.83648,19.685399999999998,37.5396,67.0
1774823747.871915,7.152557373046875e-06,2026-03-29T22:35:47.871,2026-03-29T18:35:47.871,-20326.454999999998,-44957.924999999996,-76295.565,-48005.145,-8247.69,-15852.689999999999,8503.74,-61810.244999999995,-13.466665289142268,-2.047888616058478,4.285971787606773,8.356967760943816,8.962465185283568,9.758084742068464,14.134947049155736,-9.336036056031016,0.459288375,-0.86962668,0.25317318,-2.63998,29.6044,40.33218,67.0
1774823747.87192,5.0067901611328125e-06,2026-03-29T22:35:47.871,2026-03-29T18:35:47.871,-20320.469999999998,-44954.055,-76295.025,-48006.314999999995,-8249.445,-15854.67,8500.725,-61805.52,-10.463839403553278,-6.494995268293829,-4.6456076102029495,-2.0186516348834407,0.6523761802582075,3.155540313631954,8.078721353934684,-6.222624483311364,0.459288375,-0.86962668,0.25317318,-2.63998,29.6044,40.33218,67.0
1774823747.871926,5.9604644775390625e-06,2026-03-29T22:35:47.871,2026-03-29T18:35:47.871,-20310.12,-44948.7,-76292.775,-48006.63,-8250.255,-15854.715,8501.445,-61793.145,-2.1010387172686307,-7.687915018176116,-11.257742544160072,-11.309842377216418,-7.8039882080364595,-4.772988717667115,-1.1924829489445734,0.35643931530910483,0.459288375,-0.86962668,0.25317318,-2.63998,29.6044,40.33218,67.0
1774823747.8719308,4.76837158203125e-06,2026-03-29T22:35:47.871,2026-03-29T18:35:47.871,-20310.975,-44957.475,-76305.915,-48021.03,-8264.025,-15868.305,8495.369999999999,-61790.85,7.420634025582384,-5.211743330249699,-12.476200820791956,-15.095815946260371,-12.382861793501707,-10.23786809686361,-9.17062204255817,7.1501119568522284,0.459288375,-0.86962668,0.25317318,-2.63998,29.6044,40.33218,67.0
1774823747.8755903,0.003659486770629883,2026-03-29T22:35:47.875,2026-03-29T18:35:47.875,-20315.475,-44961.93,-76306.05,-48023.189999999995,-8268.93,-15874.695,8489.61,-61794.314999999995,13.276662203123927,-0.4188044150797343,-7.825435737132248,-11.641590896283075,-10.985636972771568,-10.70638201087879,-12.297271097495418,10.639447700862206,0.459288375,-0.86962668,0.25317318,-2.63998,29.6044,40.33218,67.0
1774823747.87561,1.9788742065429688e-05,2026-03-29T22:35:47.875,2026-03-29T18:35:47.875,-20331.54,-44958.735,-76286.655,-47999.52,-8245.664999999999,-15850.664999999999,8506.26,-61816.005,12.45743792002158,4.302737868548913,0.40162578768528706,-2.6884860975224476,-4.399891338319255,-6.081047594003181,-9.560991335433517,8.848079334399397,0.459288375,-0.86962668,0.25317318,-2.63998,29.6044,40.33218,67.0
1774823747.8792868,0.0036766529083251953,2026-03-29T22:35:47.879,2026-03-29T18:35:47.879,-20335.5,-44959.229999999996,-76288.455,-47998.17,-8241.75,-15846.39,8508.869999999999,-61829.189999999995,5.3051922353703675,6.7260769000688905,8.283355307952846,7.426932696200178,4.1352704088218095,1.308556706646522,-2.764879343248581,2.4249929138050885,0.459288375,-0.86962668,0.25317318,-2.63998,29.6044,40.33218,67.0
1774823747.879304,1.71661376953125e-05,2026-03-29T22:35:47.879,2026-03-29T18:35:47.879,-20324.34,-44953.424999999996,-76287.555,-47997.99,-8241.66,-15843.33,8504.145,-61820.189999999995,-4.6321971209348,5.845448557488339,12.148284208818502,13.878319199388802,10.523101151502157,7.872309822107525,4.5652291554895665,-5.581396064799212,0.459288375,-0.86962668,0.25317318,-2.63998,29.6044,40.33218,67.0
1774823747.8835416,0.004237651824951172,2026-03-29T22:35:47.883,2026-03-29T18:35:47.883,-20321.55,-44952.84,-76289.265,-48001.095,-8241.57,-15841.08,8508.195,-61815.825,-12.366233434542275,2.2897353200786035,10.288511072569435,13.654654987348255,11.777143375887679,10.502445387264673,9.001434067244729,-11.184277578929887,0.459288375,-0.86962668,0.25317318,-2.63998,29.6044,40.33218,67.0
1774823747.8835588,1.71661376953125e-05,2026-03-29T22:35:47.883,2026-03-29T18:35:47.883,-20330.954999999998,-44955.99,-76288.635,-48001.5,-8242.695,-15844.859999999999,8509.14,-61826.13,-13.97065673364813,-2.0778261745886444,3.7065273843855673,6.962638898610037,7.416708581980779,8.046734707118224,8.82631652792384,-11.447532223679477,0.459288375,-0.86962668,0.25317318,-2.63998,29.6044,40.33218,67.0
1774823747.8878188,0.004260063171386719,2026-03-29T22:35:47.887,2026-03-29T18:35:47.887,-20332.62,-44962.92,-76298.895,-48013.74,-8254.845,-15856.515,8503.335,-61825.229999999996,-8.565743041743048,-5.134149408374965,-4.426975423785803,-2.925637261799127,-0.3619703745139512,1.8126710418170824,4.674864141631977,-6.007778722154392,0.43395885,-0.88976823,0.24816831,-1.25132,19.410719999999998,50.38852,67.0
1774823747.8878489,3.0040740966796875e-05,2026-03-29T22:35:47.887,2026-03-29T18:35:47.887,-20318.715,-44955.09,-76296.87,-48013.604999999996,-8254.619999999999,-15856.47,8502.84,-61809.479999999996,1.216251872952954,-5.536093525307117,-10.31110266221576,-11.278746483157391,-7.791703534794159,-5.117407395942422,-1.0200712272881312,2.6542832096566844,0.43395885,-0.88976823,0.24816831,-1.25132,19.410719999999998,50.38852,67.0
1774823747.8911777,0.0033288002014160156,2026-03-29T22:35:47.891,2026-03-29T18:35:47.891,-20294.415,-44944.83,-76296.735,-48016.89,-8259.705,-15861.465,8500.41,-61785.854999999996,10.525061191606564,-3.312855483747407,-11.297956966766646,-14.174699908928124,-11.360328852599935,-9.405448092331788,-5.397391305423609,10.36362379373762,0.43395885,-0.88976823,0.24816831,-1.25132,19.410719999999998,50.38852,67.0
1774823747.8911967,1.9073486328125e-05,2026-03-29T22:35:47.891,2026-03-29T18:35:47.891,-20276.055,-44960.22,-76313.745,-48030.93,-8274.824999999999,-15878.34,8492.67,-61766.505,14.704283383224864,0.25118818913499463,-7.081358833534599,-10.342182729168188,-9.470539918377002,-9.063813785090838,-6.600928644554134,13.280194975664703,0.43395885,-0.88976823,0.24816831,-1.25132,19.410719999999998,50.38852,67.0
1774823747.8951008,0.003904104232788086,2026-03-29T22:35:47.895,2026-03-29T18:35:47.895,-20291.805,-44964.045,-76300.245,-48020.265,-8268.93,-15882.84,8484.119999999999,-61776.99,11.618080455074523,3.3384368067027914,0.24092608914457045,-1.7098093161173091,-3.1490349013276955,-4.375902818320618,-4.5598000316056995,9.81344530797643,0.43395885,-0.88976823,0.24816831,-1.25132,19.410719999999998,50.38852,67.0
1774823747.8951204,1.9550323486328125e-05,2026-03-29T22:35:47.895,2026-03-29T18:35:47.895,-20347.02,-44936.369999999995,-76247.055,-47971.215,-8227.755,-15850.755,8487.449999999999,-61842.869999999995,2.730101961843845,4.5265567003965534,7.218649976927219,7.569333310927351,4.506932676435641,2.2949001794849284,-0.7922124233448405,1.4658543855320822,0.43395885,-0.88976823,0.24816831,-1.25132,19.410719999999998,50.38852,67.0
1774823747.8993046,0.004184246063232422,2026-03-29T22:35:47.899,2026-03-29T18:35:47.899,-20357.19,-44910.854999999996,-76221.045,-47948.715,-8207.955,-15828.615,8496.404999999999,-61863.479999999996,-7.606103812514821,3.448508607058984,10.684226901822473,13.122727706789583,9.849250854591878,7.690579465772063,2.5667593263562125,-7.8338462893347796,0.43395885,-0.88976823,0.24816831,-1.25132,19.410719999999998,50.38852,67.0
1774823747.8993328,2.8133392333984375e-05,2026-03-29T22:35:47.899,2026-03-29T18:35:47.899,-20339.864999999998,-44933.31,-76262.67,-47984.895,-8235.765,-15842.43,8501.22,-61841.34,-14.294507588587582,0.8756939608262775,9.192645709889744,12.422014847099383,10.41806135365747,9.245693137787285,3.9348332192439393,-13.604188098411841,0.43395885,-0.88976823,0.24816831,-1.25132,19.410719999999998,50.38852,67.0
1774823747.904359,0.005026340484619141,2026-03-29T22:35:47.904,2026-03-29T18:35:47.904,-20339.28,-44984.43,-76315.31999999999,-48025.935,-8267.13,-15861.779999999999,8513.324999999999,-61828.335,-14.015880835525913,-1.7725351236340257,3.611068923550135,5.929784167174896,6.070601938095662,6.304316319183285,3.0229349986159924,-12.986649551322326,0.43395885,-0.88976823,0.24816831,-1.25132,19.410719999999998,50.38852,67.0
1774823747.9043767,1.7642974853515625e-05,2026-03-29T22:35:47.904,2026-03-29T18:35:47.904,-20332.125,-44984.34,-76317.345,-48025.034999999996,-8261.64,-15854.175,8512.154999999999,-61821.765,-6.869887006185212,-3.1999393319724967,-3.375059716912869,-3.188453859191372,-1.0165601281431904,0.39029479273496487,0.8022371600375084,-6.159755645982404,0.43395885,-0.88976823,0.24816831,-1.25132,19.410719999999998,50.38852,67.0
1774823747.9089575,0.00458073616027832,2026-03-29T22:35:47.908,2026-03-29T18:35:47.908,-20341.35,-44977.545,-76303.98,-48006.18,-8240.265,-15837.84,8507.025,-61834.994999999995,3.671011469689971,-2.8707740059311657,-8.562803451101322,-10.61491325476242,-7.4395270369863695,-5.577121173423302,-1.204976109607288,3.70775284865839,0.40429584,-0.92236092,0.2270502,10.65148,7.05012,55.271719999999995,67.0
1774823747.908974,1.6450881958007812e-05,2026-03-29T22:35:47.908,2026-03-29T18:35:47.908,-20329.739999999998,-44961.525,-76288.95,-48002.265,-8241.164999999999,-15844.275,8498.16,-61826.49,12.468497771706586,-1.1987978385781008,-9.70584899030572,-12.930338517334247,-10.204550578747329,-8.720480055701898,-1.8578290005071167,11.953579679740308,0.40429584,-0.92236092,0.2270502,10.65148,7.05012,55.271719999999995,67.0
1774823747.913201,0.004227161407470703,2026-03-29T22:35:47.913,2026-03-29T18:35:47.913,-20312.594999999998,-44948.52,-76281.84,-48001.005,-8242.02,-15848.955,8496.135,-61810.424999999996,15.238724946288853,0.7712721425095442,-6.481388908105189,-9.188304512672424,-8.121969752741066,-7.5877105109345,-1.0144907394356053,14.649741557996526,0.40429584,-0.92236092,0.2270502,10.65148,7.05012,55.271719999999995,67.0
1774823747.913226,2.47955322265625e-05,2026-03-29T22:35:47.913,2026-03-29T18:35:47.913,-20311.425,-44955.63,-76294.53,-48008.88,-8253.539999999999,-15860.564999999999,8494.83,-61804.619999999995,10.642763574090345,1.9799396727564083,-0.5371479076993771,-1.2883398790139868,-2.308118766386337,-2.8179173298770626,0.4891053902143895,10.485814013174004,0.40429584,-0.92236092,0.2270502,10.65148,7.05012,55.271719999999995,67.0
1774823747.9168935,0.003667593002319336,2026-03-29T22:35:47.916,2026-03-29T18:35:47.916,-20314.62,-44972.145,-76312.485,-48011.985,-8259.48,-15870.195,8492.445,-61798.68,0.924627256971059,1.915955307981768,5.352196021226711,6.991420921159767,4.411300713251148,3.2139201696761006,1.4429291198377867,1.3990957861165632,0.40429584,-0.92236092,0.2270502,10.65148,7.05012,55.271719999999995,67.0
1774823747.9169092,1.5735626220703125e-05,2026-03-29T22:35:47.916,2026-03-29T18:35:47.916,-20317.32,-44970.03,-76300.515,-47992.905,-8242.785,-15860.699999999999,8495.369999999999,-61800.075,-9.203489179847422,0.8296297976411707,8.587154536969464,11.80862665470179,8.878821915284902,7.578421593092478,1.0628812079136711,-8.348613067436506,0.40429584,-0.92236092,0.2270502,10.65148,7.05012,55.271719999999995,67.0
1774823747.919286,0.0023767948150634766,2026-03-29T22:35:47.919,2026-03-29T18:35:47.919,-20326.635,-44964.63,-76296.015,-47991.015,-8235.99,-15852.465,8499.869999999999,-61811.64,-14.86709147245287,-0.49071718300817685,7.890449213741008,11.043811014898925,9.090416377255865,8.211973627003768,-0.4967257551399628,-14.19782686151509,0.40429584,-0.92236092,0.2270502,10.65148,7.05012,55.271719999999995,67.0
1774823747.9193008,1.4781951904296875e-05,2026-03-29T22:35:47.919,2026-03-29T18:35:47.919,-20335.815,-44954.235,-76283.595,-47988.585,-8227.035,-15840.855,8500.32,-61828.604999999996,-13.38887859340589,-1.222461239510942,3.7937120719485686,5.22748520229343,5.088973302971017,4.887621004961282,-2.221566771580547,-13.445353300933219,0.40429584,-0.92236092,0.2270502,10.65148,7.05012,55.271719999999995,67.0
1774823747.92364,0.0043392181396484375,2026-03-29T22:35:47.923,2026-03-29T18:35:47.923,-20339.46,-44946.18,-76270.545,-47983.229999999996,-8218.305,-15829.695,8507.699999999999,-61837.244999999995,-5.553629975838719,-0.9911270819992404,-1.7111656020190287,-2.7953290086611244,-1.1296211682679087,-0.718531499174203,-2.8593365871542398,-6.498354817885601,0.40429584,-0.92236092,0.2270502,10.65148,7.05012,55.271719999999995,67.0
1774823747.9236605,2.0503997802734375e-05,2026-03-29T22:35:47.923,2026-03-29T18:35:47.923,-20337.84,-44959.095,-76283.09999999999,-47992.77,-8229.24,-15842.699999999999,8499.869999999999,-61825.32,4.818875455135903,-0.058921384270386734,-6.144341510603858,-9.262361219632561,-6.615958938215298,-5.8749022132309525,-1.718133686030579,3.3552391328627773,0.40429584,-0.92236092,0.2270502,10.65148,7.05012,55.271719999999995,67.0
1774823747.9274309,0.0037703514099121094,2026-03-29T22:35:47.927,2026-03-29T18:35:47.927,-20326.14,-44960.805,-76299.12,-48011.13,-8243.685,-15852.42,8495.82,-61812.54,12.75736635816677,0.8742062746661946,-7.658251196803613,-11.264898960011026,-8.870327168170002,-8.126630577025841,0.8348905631691137,11.527851882624239,0.393858855,-0.93053961,0.219054615,27.3917,1.2818399999999999,53.08954,67.0
1774823747.9274597,2.8848648071289062e-05,2026-03-29T22:35:47.927,2026-03-29T18:35:47.927,-20302.38,-44950.049999999996,-76302.62999999999,-48024.854999999996,-8258.039999999999,-15858.765,8497.395,-61799.715,14.541189231260724,1.1256109204948506,-5.798987307447659,-8.05610207202572,-6.980226083864097,-6.461838630240608,3.4867636796290356,14.29347409495565,0.393858855,-0.93053961,0.219054615,27.3917,1.2818399999999999,53.08954,67.0
1774823747.9311392,0.003679513931274414,2026-03-29T22:35:47.931,2026-03-29T18:35:47.931,-20327.355,-44958.465,-76293.18,-48005.775,-8241.84,-15842.97,8509.77,-61823.88,9.451733033815685,0.4657471038290749,-1.6002507821605114,-1.3086962403099645,-1.9752594149321303,-1.7583818931040383,4.669949820722174,10.499498268211646,0.393858855,-0.93053961,0.219054615,27.3917,1.2818399999999999,53.08954,67.0
1774823747.9311528,1.3589859008789062e-05,2026-03-29T22:35:47.931,2026-03-29T18:35:47.931,-20354.04,-44965.215,-76289.265,-47997.63,-8234.595,-15841.305,8515.215,-61843.59,0.04541616030386941,-0.7248706354699017,2.9785502237725683,5.754125472663863,3.7304776742736667,3.682720740837281,3.4622497686117093,2.0371068378056507,0.393858855,-0.93053961,0.219054615,27.3917,1.2818399999999999,53.08954,67.0
1774823747.9354844,0.0043315887451171875,2026-03-29T22:35:47.935,2026-03-29T18:35:47.935,-20347.245,-44969.04,-76297.77,-48008.34,-8249.94,-15864.074999999999,8494.695,-61828.244999999995,-9.145302210072563,-1.6729617166063706,5.969963370617521,9.904709193399073,7.508616431864866,7.2686793599464465,0.18946649903299492,-7.1155457142472125,0.393858855,-0.93053961,0.219054615,27.3917,1.2818399999999999,53.08954,67.0
1774823747.9355104,2.5987625122070312e-05,2026-03-29T22:35:47.935,2026-03-29T18:35:47.935,-20352.465,-44975.295,-76300.605,-48012.84,-8257.455,-15870.06,8472.33,-61830.225,-13.816812201120156,-1.6808849250488802,6.2412893010415,9.389894652607808,7.729796385782595,7.352489091671993,-3.6315856866107854,-12.7873163501442,0.393858855,-0.93053961,0.219054615,27.3917,1.2818399999999999,53.08954,67.0
1774823747.941213,0.005702495574951172,2026-03-29T22:35:47.941,2026-03-29T18:35:47.941,-20351.43,-44975.34,-76292.685,-48008.79,-8254.215,-15860.744999999999,8463.06,-61826.759999999995,-11.923406794841515,-0.5738117407557447,3.903502893028739,4.663786393352312,4.458905433086906,3.984659543142621,-6.0209008339967465,-12.532839961863655,0.393858855,-0.93053961,0.219054615,27.3917,1.2818399999999999,53.08954,67.0
1774823747.9412372,2.4318695068359375e-05,2026-03-29T22:35:47.941,2026-03-29T18:35:47.941,-20344.5,-44968.545,-76291.155,-48009.645,-8256.914999999999,-15867.765,8468.414999999999,-61819.064999999995,-4.567826848688171,1.141627334553388,0.1504621799626521,-1.9275931552678247,-0.6604665774787074,-1.1622703884300727,-5.573783474206072,-6.685646474951254,0.393858855,-0.93053961,0.219054615,27.3917,1.2818399999999999,53.08954,67.0
1774823747.9448276,0.0035903453826904297,2026-03-29T22:35:47.944,2026-03-29T18:35:47.944,-20322.36,-44948.43,-76291.47,-48015.674999999996,-8263.529999999999,-15883.92,8484.3,-61813.215,4.630914079669274,2.516167374797601,-3.346400806905681,-7.312518251608937,-5.235560046202827,-5.632777788916228,-2.2613391921656714,1.9062202589423654,0.393858855,-0.93053961,0.219054615,27.3917,1.2818399999999999,53.08954,67.0
1774823747.9448595,3.1948089599609375e-05,2026-03-29T22:35:47.944,2026-03-29T18:35:47.944,-20284.245,-44943.435,-76307.265,-48031.064999999995,-8275.725,-15893.55,8497.305,-61788.509999999995,11.334545323194805,2.678051231419332,-5.183222842707648,-9.130527544558145,-7.248217539227704,-7.3670009490333905,2.4532439722693757,9.282828884645461,0.393858855,-0.93053961,0.219054615,27.3917,1.2818399999999999,53.08954,67.0
1774823747.947722,0.0028624534606933594,2026-03-29T22:35:47.947,2026-03-29T18:35:47.947,-20284.739999999998,-44949.465,-76302.98999999999,-48017.115,-8256.06,-15873.75,8503.11,-61774.829999999994,12.547972982377248,1.3514840177266767,-4.776745876839113,-6.765756243899027,-5.942856150044314,-5.649996908169745,6.281640543184634,12.21557874741495,0.385802235,-0.91076427,0.222838785,33.816159999999996,-3.31142,52.463879999999996,67.0
1774823747.9477472,2.5272369384765625e-05,2026-03-29T22:35:47.947,2026-03-29T18:35:47.947,-20293.29,-44952.705,-76293.495,-47999.52,-8233.605,-15836.894999999999,8511.84,-61771.95,7.959445931763558,-0.9232520176867867,-2.513498310866289,-1.5253214391704053,-2.089251132894295,-1.393756319815418,7.246597279540263,9.625046471364088,0.385802235,-0.91076427,0.222838785,33.816159999999996,-3.31142,52.463879999999996,67.0
1774823747.9517884,0.004041194915771484,2026-03-29T22:35:47.951,2026-03-29T18:35:47.951,-20299.905,-44959.545,-76296.69,-47999.295,-8232.57,-15828.255,8507.744999999999,-61772.715,-0.04129899161536901,-3.0127982425475524,0.5189162765102386,4.069028650367949,2.4585804773775237,3.352426459927672,4.712877301601667,2.9495989412356227,0.385802235,-0.91076427,0.222838785,33.816159999999996,-3.31142,52.463879999999996,67.0
1774823747.9518096,2.1219253540039062e-05,2026-03-29T22:35:47.951,2026-03-29T18:35:47.951,-20331.045,-44952.75,-76278.465,-47983.59,-8218.44,-15821.55,8504.775,-61826.354999999996,-7.610659311051954,-3.762679193550404,3.0534293881893233,7.497849178807929,5.660171773740877,6.399436743393552,-0.22757494739749393,-4.642378634931584,0.385802235,-0.91076427,0.222838785,33.816159999999996,-3.31142,52.463879999999996,67.0
1774823747.9560971,0.0042874813079833984,2026-03-29T22:35:47.956,2026-03-29T18:35:47.956,-20342.34,-44940.825,-76256.325,-47967.884999999995,-8204.895,-15811.154999999999,8517.645,-61842.915,-11.311851705850188,-2.626267596874803,4.168670697715211,7.380931420606066,6.206049928588651,6.433689611197165,-5.2385757605163965,-9.76898906656651,0.385802235,-0.91076427,0.222838785,33.816159999999996,-3.31142,52.463879999999996,67.0
1774823747.9561164,1.9311904907226562e-05,2026-03-29T22:35:47.956,2026-03-29T18:35:47.956,-20328.21,-44938.395,-76259.11499999999,-47976.21,-8215.02,-15822.72,8514.585,-61808.985,-9.68159560057613,-0.011524018866580254,3.602641560161416,4.020396455526013,4.041636620494571,3.5767104122137763,-7.870679542339822,-10.348452444948476,0.385802235,-0.91076427,0.222838785,33.816159999999996,-3.31142,52.463879999999996,67.0
1774823747.9612603,0.005143880844116211,2026-03-29T22:35:47.961,2026-03-29T18:35:47.961,-20332.485,-44937.765,-76279.455,-47993.805,-8228.43,-15834.555,8512.244999999999,-61813.665,-3.7864097740391527,2.859369053022114,1.7606614943015084,-0.8566521031221046,0.2945738026638219,-0.7460837780595362,-6.781273313937345,-6.4298953842801305,0.385802235,-0.91076427,0.222838785,33.816159999999996,-3.31142,52.463879999999996,67.0
1774823747.96128,1.9788742065429688e-05,2026-03-29T22:35:47.961,2026-03-29T18:35:47.961,-20315.475,-44938.17,-76292.595,-48008.924999999996,-8241.029999999999,-15848.055,8504.91,-61819.92,3.4288739090338014,4.5319994422431495,-0.5353877471742371,-4.980763293304007,-3.3124653969783058,-4.526808243334562,-2.427037044221563,-0.01926560048451732,0.385802235,-0.91076427,0.222838785,33.816159999999996,-3.31142,52.463879999999996,67.0
1774823747.974569,0.01328897476196289,2026-03-29T22:35:47.974,2026-03-29T18:35:47.974,-20302.785,-44948.564999999995,-76289.265,-48014.82,-8248.545,-15857.775,8502.795,-61804.17,8.617888547384029,4.0609820233002045,-2.4127170258314177,-6.599083579443937,-5.258260922974134,-6.1179208208812,3.130596284270414,5.944983355662353,0.385802235,-0.91076427,0.222838785,33.816159999999996,-3.31142,52.463879999999996,67.0
1774823747.9745872,1.811981201171875e-05,2026-03-29T22:35:47.974,2026-03-29T18:35:47.974,-20322.54,-44944.965,-76263.84,-47985.255,-8228.744999999999,-15840.99,8511.029999999999,-61800.884999999995,9.591425241067084,1.5307294912645732,-3.266271147427429,-5.215309410445581,-4.858718049228415,-4.9492158653722145,7.221928713892623,8.943776069372916,0.385802235,-0.91076427,0.222838785,33.816159999999996,-3.31142,52.463879999999996,67.0
1774823747.9746027,1.5497207641601562e-05,2026-03-29T22:35:47.974,2026-03-29T18:35:47.974,-20344.005,-44954.595,-76277.87999999999,-47991.869999999995,-8234.279999999999,-15844.769999999999,8509.455,-61820.865,6.2293695413615175,-1.9259850115658,-2.9215473553253406,-1.701194372282509,-2.4794878844569235,-1.707551377427873,7.876520675542165,7.933042921629097,0.378722175,-0.877988475,0.227355375,15.76358,-10.9872,53.05902,67.0
1774823747.9746087,5.9604644775390625e-06,2026-03-29T22:35:47.974,2026-03-29T18:35:47.974,-20335.95,-44967.509999999995,-76295.06999999999,-48006.09,-8247.914999999999,-15858.18,8500.095,-61814.744999999995,0.37362291679230514,-4.644975492499774,-1.6186026710485522,2.2162052386976736,0.7225711404953437,2.0614114040457823,4.790853118422073,3.666666278161826,0.378722175,-0.877988475,0.227355375,15.76358,-10.9872,53.05902,67.0
1774823747.9746153,6.67572021484375e-06,2026-03-29T22:35:47.974,2026-03-29T18:35:47.974,-20327.625,-44961.39,-76291.155,-47996.909999999996,-8237.34,-15850.394999999999,8496.855,-61809.435,-5.166688777396524,-5.24209545151272,0.13275471865594257,4.8021968912686495,3.3652700891544294,4.701968805180831,-0.5264269032122695,-1.7857541715120078,0.378722175,-0.877988475,0.227355375,15.76358,-10.9872,53.05902,67.0
1774823747.9746203,5.0067901611328125e-06,2026-03-29T22:35:47.974,2026-03-29T18:35:47.974,-20326.725,-44957.835,-76290.93,-47997.63,-8237.43,-15853.41,8472.06,-61811.145,-7.965413648690268,-3.3188334926006506,1.7455271545459183,5.081372152080884,4.436245182198878,5.180053397381181,-5.502453750761683,-6.039321752351286,0.378722175,-0.877988475,0.227355375,15.76358,-10.9872,53.05902,67.0
1774823747.9746265,6.198883056640625e-06,2026-03-29T22:35:47.974,2026-03-29T18:35:47.974,-20320.875,-44952.345,-76290.25499999999,-48006.81,-8245.215,-15861.779999999999,8460.045,-61804.89,-7.034802257999261,0.29799482566341495,2.72703630940358,3.1855126396118236,3.6622044532114146,3.4726048831115164,-7.765571432484458,-7.430099520719771,0.378722175,-0.877988475,0.227355375,15.76358,-10.9872,53.05902,67.0
1774823747.9746313,4.76837158203125e-06,2026-03-29T22:35:47.974,2026-03-29T18:35:47.974,-20309.67,-44943.659999999996,-76285.845,-48014.505,-8250.615,-15865.38,8468.73,-61790.354999999996,-3.131783764840865,3.9183494092893487,2.7951368424202445,0.1703458968166179,1.528683849636334,0.47717129824914833,-6.297033660198455,-5.641662785737892,0.378722175,-0.877988475,0.227355375,15.76358,-10.9872,53.05902,67.0
1774823747.9793046,0.0046732425689697266,2026-03-29T22:35:47.979,2026-03-29T18:35:47.979,-20299.454999999998,-44947.215,-76291.065,-48008.295,-8244.09,-15858.0,8490.96,-61778.564999999995,1.7509105985310127,5.79048823478486,1.934897224103857,-2.5562204332028595,-1.0072309689741987,-2.464999644800957,-1.9008550604517305,-1.7017588509066406,0.378722175,-0.877988475,0.227355375,15.76358,-10.9872,53.05902,67.0
1774823747.979318,1.33514404296875e-05,2026-03-29T22:35:47.979,2026-03-29T18:35:47.979,-20289.6,-44935.695,-76284.45,-47996.369999999995,-8234.64,-15849.314999999999,8512.154999999999,-61769.79,5.394626211075767,4.9561874257406835,0.4014330534515962,-3.890576211864142,-2.9474846316060597,-4.177703812031614,3.2293914154941086,2.578754457205043,0.378722175,-0.877988475,0.227355375,15.76358,-10.9872,53.05902,67.0
1774823747.9833472,0.004029273986816406,2026-03-29T22:35:47.983,2026-03-29T18:35:47.983,-20294.82,-44945.64,-76296.87,-48010.095,-8246.34,-15853.095,8520.66,-61765.155,6.356439745081787,1.73883164899494,-1.3319863508545635,-3.4688514884476023,-3.63286763876215,-4.110462160524911,6.615267371232745,5.427829169295139,0.378722175,-0.877988475,0.227355375,15.76358,-10.9872,53.05902,67.0
1774823747.9833622,1.5020370483398438e-05,2026-03-29T22:35:47.983,2026-03-29T18:35:47.983,-20328.075,-44959.905,-76296.915,-48009.195,-8244.539999999999,-15849.765,8504.685,-61803.494999999995,4.514229120519878,-2.3830713554798075,-2.6872253523542913,-1.7159107122380097,-2.935210362996909,-2.476315586785081,6.708706148094126,5.82741357335192,0.378722175,-0.877988475,0.227355375,15.76358,-10.9872,53.05902,67.0
1774823747.9878323,0.004470109939575195,2026-03-29T22:35:47.987,2026-03-29T18:35:47.987,-20361.465,-44960.49,-76275.495,-47981.205,-8215.875,-15823.529999999999,8518.725,-61840.89,0.966076154577528,-5.466174058039129,-3.15111988326029,0.45804642304699483,-1.2269605738199219,-0.060007470408519455,3.614371839197355,3.845009557001043,0.390196755,-0.849424095,0.24121032,4.07442,-12.37586,48.9083,67.0
1774823747.987847,1.4781951904296875e-05,2026-03-29T22:35:47.987,2026-03-29T18:35:47.987,-20349.675,-44959.32,-76283.09999999999,-47992.455,-8227.08,-15833.25,8522.82,-61829.415,-2.5913704777533813,-6.028833870904132,-2.4662525492869465,2.122678744453844,0.8148239072420143,2.1670261227839442,-1.0239899944895436,0.4950745158609024,0.390196755,-0.849424095,0.24121032,4.07442,-12.37586,48.9083,67.0
1774823747.9937005,0.005853414535522461,2026-03-29T22:35:47.993,2026-03-29T18:35:47.993,-20324.655,-44950.095,-76283.73,-47997.945,-8234.505,-15841.755,8516.34,-61813.079999999994,-4.6644272475199,-3.767566407663173,-0.7737052017335001,2.7193760319556635,2.468115323929986,3.4327605051799908,-4.890617442155373,-2.758878122539626,0.390196755,-0.849424095,0.24121032,4.07442,-12.37586,48.9083,67.0
1774823747.9937239,2.3365020751953125e-05,2026-03-29T22:35:47.993,2026-03-29T18:35:47.993,-20323.755,-44948.61,-76277.97,-47993.759999999995,-8232.21,-15843.51,8505.855,-61811.1,-4.56966144963539,0.2847111720209247,1.3707133988413924,2.2180608623962286,3.194835364494014,3.401074003264372,-6.16251025924606,-4.625401550978054,0.390196755,-0.849424095,0.24121032,4.07442,-12.37586,48.9083,67.0
1774823747.9937427,1.8835067749023438e-05,2026-03-29T22:35:47.993,2026-03-29T18:35:47.993,-20331.989999999998,-44961.659999999996,-76281.165,-47993.985,-8231.805,-15843.465,8499.24,-61803.63,-2.6122060078221683,4.238801668999891,3.152174869726618,1.0155129959019196,2.78339354564338,2.206475805645391,-4.382244771396661,-4.476513163083089,0.390196755,-0.849424095,0.24121032,4.07442,-12.37586,48.9083,67.0
1774823747.99375,7.3909759521484375e-06,2026-03-29T22:35:47.993,2026-03-29T18:35:47.993,-20340.719999999998,-44959.634999999995,-76276.34999999999,-47994.03,-8236.89,-15845.939999999999,8503.92,-61797.24,0.1771876563393198,6.24042168064339,3.7981463547372325,-0.32289346243380307,1.3893526209664624,0.33004777909902727,-0.6153730366915268,-2.536071258835822,0.390196755,-0.849424095,0.24121032,4.07442,-12.37586,48.9083,67.0
1774823748.0047514,0.011001348495483398,2026-03-29T22:35:48.004,2026-03-29T18:35:48.004,-20338.469999999998,-44960.715,-76289.805,-48008.34,-8252.82,-15864.705,8501.31,-61799.49,2.566824774317434,5.34736259358417,2.918662054732244,-1.324235900989868,-0.5180899885415147,-1.5942952359863385,3.157115035558902,0.2765023220843825,0.390196755,-0.849424095,0.24121032,4.07442,-12.37586,48.9083,67.0
1774823748.004772,2.0503997802734375e-05,2026-03-29T22:35:48.004,2026-03-29T18:35:48.004,-20315.25,-44959.229999999996,-76303.98,-48022.74,-8266.455,-15886.125,8491.904999999999,-61801.515,3.650178927438189,1.9745773940348452,0.733516193854541,-1.7532793318055988,-2.2888600374271366,-2.9654278275513057,5.074419214194856,2.758742163945248,0.390196755,-0.849424095,0.24121032,4.07442,-12.37586,48.9083,67.0
1774823748.004792,2.002716064453125e-05,2026-03-29T22:35:48.004,2026-03-29T18:35:48.004,-20320.02,-44962.74,-76296.95999999999,-48016.979999999996,-8263.485,-15884.73,8488.305,-61802.729999999996,3.1587626020891606,-2.3033348594226832,-1.9422953608673714,-1.6115683741596727,-3.2834870683884283,-3.3570449192298852,4.320072351172579,3.920073831330388,0.390196755,-0.849424095,0.24121032,4.07442,-12.37586,48.9083,67.0
1774823748.0047977,5.7220458984375e-06,2026-03-29T22:35:48.004,2026-03-29T18:35:48.004,-20308.005,-44961.93,-76298.805,-48015.314999999995,-8258.445,-15865.695,8490.285,-61768.845,1.4742369248731597,-5.495803249084315,-3.988998717026082,-1.043913050921495,-3.0866730494691277,-2.6153576816222963,1.4729315010890651,3.3669249720006857,0.390196755,-0.849424095,0.24121032,4.07442,-12.37586,48.9083,67.0
1774823748.0153465,0.010548830032348633,2026-03-29T22:35:48.015,2026-03-29T18:35:48.015,-20256.48,-44934.255,-76290.03,-48011.22,-8256.015,-15854.22,8490.645,-61717.86,-0.610968069086137,-6.131026424839814,-4.452857712086231,-0.23907735280375622,-1.6822001044044244,-0.9153617941835789,-1.8669797089852789,1.434804336997555,0.40606585500000003,-0.832212225,0.256530105,-2.48738,-13.39828,40.072759999999995,67.0
1774823748.0153723,2.574920654296875e-05,2026-03-29T22:35:48.015,2026-03-29T18:35:48.015,-20237.715,-44940.24,-76307.22,-48036.104999999996,-8286.93,-15892.019999999999,8470.619999999999,-61699.905,-2.248493856237749,-3.9393227297538425,-2.998762486388564,0.6160453321095178,0.485349388371695,1.2425728018752547,-3.9540169870428534,-0.9777541951966595,0.40606585500000003,-0.832212225,0.256530105,-2.48738,-13.39828,40.072759999999995,67.0
1774823748.0252967,0.00992441177368164,2026-03-29T22:35:48.025,2026-03-29T18:35:48.025,-20295.54,-44960.31,-76309.02,-48028.005,-8274.645,-15883.965,8472.96,-61761.42,-2.8544344633497887,0.033891335647842184,-0.12670816654073822,1.3300156570328996,2.6181130118889895,3.1307214121417224,-3.8026395450576786,-2.803714393437748,0.40606585500000003,-0.832212225,0.256530105,-2.48738,-13.39828,40.072759999999995,67.0
1774823748.0253153,1.8596649169921875e-05,2026-03-29T22:35:48.025,2026-03-29T18:35:48.025,-20378.204999999998,-44950.455,-76262.4,-47961.045,-8202.42,-15813.855,8509.32,-61880.85,-2.2897135334534537,3.9315987208862637,2.9790018687562,1.697546381666844,3.8393606081216674,4.004566044794035,-1.6555773928580704,-3.269096146441489,0.40606585500000003,-0.832212225,0.256530105,-2.48738,-13.39828,40.072759999999995,67.0
1774823748.0253413,2.5987625122070312e-05,2026-03-29T22:35:48.025,2026-03-29T18:35:48.025,-20354.85,-44952.884999999995,-76275.765,-47970.945,-8210.88,-15820.425,8516.385,-61842.915,-0.8635072113059619,5.960481736600678,4.936078766374432,1.5388284338745861,3.552065855666719,3.388087193084911,1.2089920863808945,-2.227655294436709,0.40606585500000003,-0.832212225,0.256530105,-2.48738,-13.39828,40.072759999999995,67.0
1774823748.025347,5.7220458984375e-06,2026-03-29T22:35:48.025,2026-03-29T18:35:48.025,-20330.055,-44970.975,-76302.94499999999,-48006.045,-8247.015,-15852.555,8496.675,-61794.945,0.8156987370335381,5.22245640065626,4.787967900686422,0.7944344548627768,1.7359616148052943,1.3291902718727033,3.2034236267324867,-0.22044838760990793,0.40606585500000003,-0.832212225,0.256530105,-2.48738,-13.39828,40.072759999999995,67.0
1774823748.0253556,8.58306884765625e-06,2026-03-29T22:35:48.025,2026-03-29T18:35:48.025,-20335.68,-44983.485,-76307.985,-48013.83,-8257.635,-15860.789999999999,8490.015,-61792.2,2.0777802214977674,2.1144609037726045,2.480084775346356,-0.3765469974447471,-0.9668484685282727,-1.5105196409647483,3.2888099312918877,1.7747476158172522,0.40606585500000003,-0.832212225,0.256530105,-2.48738,-13.39828,40.072759999999995,67.0
1774823748.0253615,5.9604644775390625e-06,2026-03-29T22:35:48.025,2026-03-29T18:35:48.025,-20340.0,-44975.79,-76283.955,-47995.604999999996,-8247.015,-15852.689999999999,8491.68,-61815.96,2.4375994230506635,-1.882056202282075,-1.051629712445944,-1.577378059232477,-3.4553719189566268,-4.026807754576452,1.5089307630434705,2.800841758297423,0.40606585500000003,-0.832212225,0.256530105,-2.48738,-13.39828,40.072759999999995,67.0
1774823748.0253682,6.67572021484375e-06,2026-03-29T22:35:48.025,2026-03-29T18:35:48.025,-20335.184999999998,-44969.445,-76268.97,-47973.78,-8229.645,-15840.09,8497.755,-61817.04,1.7725868261989084,-4.911321799968989,-4.253205778494167,-2.28866977992536,-4.612717393929853,-5.089184089233642,-1.0718812772837354,2.379777263548564,0.40606585500000003,-0.832212225,0.256530105,-2.48738,-13.39828,40.072759999999995,67.0
1774823748.0253732,5.0067901611328125e-06,2026-03-29T22:35:48.025,2026-03-29T18:35:48.025,-20350.89,-44972.235,-76280.44499999999,-47973.645,-8221.68,-15831.539999999999,8498.07,-61817.49,0.3710994551619606,-5.611098441921241,-5.642266472100279,-2.0969915704392568,-3.813359256554348,-4.053122403843224,-2.9767324778384894,0.752182612666144,0.40606585500000003,-0.832212225,0.256530105,-2.48738,-13.39828,40.072759999999995,67.0
1774823748.0279515,0.002578258514404297,2026-03-29T22:35:48.027,2026-03-29T18:35:48.027,-20333.204999999998,-44964.9,-76290.165,-47980.395,-8226.585,-15838.515,8497.17,-61808.265,-1.1731187990545342,-3.7301027912129046,-4.506505742312577,-0.9347187184797253,-1.2614825283351994,-1.1339226782505403,-3.132201413273397,-1.2295104088729987,0.41564835,-0.835508115,0.26257257,-0.65618,-13.62718,27.834239999999998,67.0
1774823748.0279756,2.4080276489257812e-05,2026-03-29T22:35:48.027,2026-03-29T18:35:48.027,-20309.76,-44949.195,-76280.535,-47990.25,-8234.46,-15845.715,8507.16,-61785.045,-2.193787215424829,-0.21341717886625525,-1.2769753947760856,0.8065094784882338,2.0222214381805057,2.568593032809834,-1.4514180244010049,-2.5192105554357878,0.41564835,-0.835508115,0.26257257,-0.65618,-13.62718,27.834239999999998,67.0
1774823748.0383697,0.010394096374511719,2026-03-29T22:35:48.038,2026-03-29T18:35:48.038,-20317.184999999998,-44939.159999999996,-76278.23999999999,-47999.43,-8236.35,-15845.13,8510.76,-61802.369999999995,-2.2316600493133616,3.270191598563303,2.621963311224879,2.3837298114697707,4.599141707697518,5.465333373595429,1.1251400962898424,-2.4120283982425934,0.41564835,-0.835508115,0.26257257,-0.65618,-13.62718,27.834239999999998,67.0
1774823748.0383892,1.9550323486328125e-05,2026-03-29T22:35:48.038,2026-03-29T18:35:48.038,-20323.755,-44938.89,-76271.805,-47998.034999999996,-8238.195,-15848.055,8505.945,-61810.875,-1.24720318867533,5.123595290020414,5.402429411990924,3.0186710188508328,5.2464321122336095,6.162434019526806,3.1473291808693866,-0.92799302669189,0.41564835,-0.835508115,0.26257257,-0.65618,-13.62718,27.834239999999998,67.0
1774823748.0384424,5.316734313964844e-05,2026-03-29T22:35:48.038,2026-03-29T18:35:48.038,-20315.295,-44932.455,-76261.815,-47993.715,-8232.345,-15843.15,8497.664999999999,-61805.88,0.33588713013363886,4.55912111493574,5.74386589009745,2.2880849675953203,3.5450218279876142,4.139008020491355,3.4497776152099906,1.1642123694207944,0.41564835,-0.835508115,0.26257257,-0.65618,-13.62718,27.834239999999998,67.0
1774823748.038452,9.5367431640625e-06,2026-03-29T22:35:48.038,2026-03-29T18:35:48.038,-20306.204999999998,-44922.645,-76251.42,-47977.784999999996,-8221.994999999999,-15837.345,8493.885,-61800.21,1.7958821653189152,1.935989693696804,3.434305323268792,0.3904053226663438,0.13590758372222736,0.08542321170931859,1.7955372930587752,2.719414991346747,0.41564835,-0.835508115,0.26257257,-0.65618,-13.62718,27.834239999999998,67.0
1774823748.0395815,0.0011296272277832031,2026-03-29T22:35:48.039,2026-03-29T18:35:48.039,-20311.515,-44927.505,-76254.20999999999,-47975.22,-8219.34,-15835.994999999999,8499.06,-61791.93,2.43242142392044,-1.4482297961372412,-0.49505115621734136,-1.8723274520365245,-3.506040000487829,-4.302571925006757,-0.9771078308546185,2.8138943991845453,0.41564835,-0.835508115,0.26257257,-0.65618,-13.62718,27.834239999999998,67.0
1774823748.03959,8.344650268554688e-06,2026-03-29T22:35:48.039,2026-03-29T18:35:48.039,-20313.0,-44954.055,-76293.09,-48009.825,-8249.13,-15861.465,8494.02,-61792.064999999995,1.902883066359572,-3.997283703958417,-4.226489728985571,-3.4272032239184327,-5.710010987300129,-7.031745276174096,-3.3865442152967202,1.2661511501192075,0.41564835,-0.835508115,0.26257257,-0.65618,-13.62718,27.834239999999998,67.0
1774823748.0434399,0.0038499832153320312,2026-03-29T22:35:48.043,2026-03-29T18:35:48.043,-20308.14,-44965.575,-76305.555,-48019.32,-8255.025,-15865.244999999999,8492.31,-61783.695,0.41286635539220823,-4.572823442114372,-6.00365134064953,-3.443124350602623,-5.383048369415203,-6.726692708327547,-4.093248662966347,-1.2048652611080597,0.41564835,-0.835508115,0.26257257,-0.65618,-13.62718,27.834239999999998,67.0
1774823748.0435145,7.462501525878906e-05,2026-03-29T22:35:48.043,2026-03-29T18:35:48.043,-20315.969999999998,-44962.83,-76298.985,-48012.479999999996,-8246.52,-15850.98,8504.055,-61782.21,-1.3477222481026778,-3.00811242375069,-4.972329108932722,-1.776785763495335,-2.557988494270125,-3.3275763823620395,-2.6248779823727473,-3.2978866448006006,0.41564835,-0.835508115,0.26257257,-0.65618,-13.62718,27.834239999999998,67.0
1774823748.0474017,0.003887176513671875,2026-03-29T22:35:48.047,2026-03-29T18:35:48.047,-20318.94,-44966.384999999995,-76293.045,-48008.43,-8246.205,-15851.699999999999,8502.57,-61774.695,-2.5143215643813708,-0.14485712795454472,-1.6058261230346091,0.8872649640223602,1.5613546351995804,1.785535691974343,0.34441243375206265,-3.790992337849628,0.434264025,-0.851499285,0.270812295,12.16222,-7.7063,16.46554,67.0
1774823748.0474167,1.5020370483398438e-05,2026-03-29T22:35:48.047,2026-03-29T18:35:48.047,-20331.045,-44964.854999999996,-76284.27,-47995.02,-8232.164999999999,-15843.375,8500.365,-61789.86,-2.4683245079307907,2.6075797092770556,2.502854473038888,3.3063254930956827,5.109123771305441,6.346153209865879,3.315189002701797,-2.2183442145207937,0.434264025,-0.851499285,0.270812295,12.16222,-7.7063,16.46554,67.0
1774823748.0517445,0.0043277740478515625,2026-03-29T22:35:48.051,2026-03-29T18:35:48.051,-20324.835,-44961.705,-76294.75499999999,-48004.064999999995,-8238.779999999999,-15852.285,8496.315,-61800.479999999996,-1.1644750241403083,3.9642800048868727,5.3954044846961295,4.25907554408213,6.407269495422088,8.21442916518714,4.726257134772858,0.8018540329219043,0.434264025,-0.851499285,0.270812295,12.16222,-7.7063,16.46554,67.0
1774823748.0517635,1.9073486328125e-05,2026-03-29T22:35:48.051,2026-03-29T18:35:48.051,-20295.945,-44963.729999999996,-76301.86499999999,-48014.729999999996,-8251.83,-15864.39,8486.73,-61775.369999999995,0.8090126161296243,3.3692185057479693,5.6918126343962765,3.16459501735272,4.766909706779659,6.392909212568589,3.7693879508531385,3.7950556659967543,0.434264025,-0.851499285,0.270812295,12.16222,-7.7063,16.46554,67.0
1774823748.0555904,0.0038268566131591797,2026-03-29T22:35:48.055,2026-03-29T18:35:48.055,-20313.945,-44965.845,-76291.83,-48001.814999999995,-8240.94,-15854.445,8483.67,-61772.579999999994,2.4882682943181766,1.225934904490417,3.264270111811593,0.426295042471459,0.855172750366753,1.5574836431844632,0.8324688370772021,5.139998773299918,0.434264025,-0.851499285,0.270812295,12.16222,-7.7063,16.46554,67.0
1774823748.0556219,3.147125244140625e-05,2026-03-29T22:35:48.055,2026-03-29T18:35:48.055,-20323.755,-44940.645,-76270.36499999999,-47978.909999999996,-8217.225,-15831.765,8495.775,-61811.145,3.0001458317139966,-1.342744052761618,-0.6941371735551454,-2.697888387286327,-3.5677053587591723,-4.178138788766318,-2.6650242148513286,3.92270131638698,0.434264025,-0.851499285,0.270812295,12.16222,-7.7063,16.46554,67.0
1774823748.061685,0.006063222885131836,2026-03-29T22:35:48.061,2026-03-29T18:35:48.061,-20325.239999999998,-44945.909999999996,-76283.45999999999,-47993.895,-8235.855,-15857.505,8492.49,-61839.314999999995,2.0123238420836542,-3.0724333449004044,-4.24845997516008,-4.669342197335604,-6.441862187333265,-8.191364563129824,-4.97039497873014,0.4924391220926911,0.434264025,-0.851499285,0.270812295,12.16222,-7.7063,16.46554,67.0
1774823748.0617087,2.3603439331054688e-05,2026-03-29T22:35:48.061,2026-03-29T18:35:48.061,-20331.989999999998,-44982.854999999996,-76324.00499999999,-48036.78,-8282.97,-15911.91,8474.445,-61815.329999999994,-0.0646382653238109,-3.179191700351198,-5.670570586612771,-4.4264758779895805,-6.373276017698034,-8.56225323577816,-4.881390611289623,-3.600521215928989,0.434264025,-0.851499285,0.270812295,12.16222,-7.7063,16.46554,67.0
1774823748.0658967,0.004188060760498047,2026-03-29T22:35:48.065,2026-03-29T18:35:48.065,-20335.364999999998,-44976.33,-76309.065,-48026.205,-8274.69,-15906.105,8470.935,-61816.68,-2.24215153415205,-1.7200619252556086,-4.291146428009191,-1.9529203985538932,-3.315815810875597,-5.002133270080576,-2.3678182107611394,-6.3044774043821885,0.434264025,-0.851499285,0.270812295,12.16222,-7.7063,16.46554,67.0
1774823748.065913,1.621246337890625e-05,2026-03-29T22:35:48.065,2026-03-29T18:35:48.065,-20326.815,-44946.945,-76264.37999999999,-47975.22,-8217.99,-15839.369999999999,8487.585,-61813.53,-3.4226365071789737,0.47601735672164847,-0.830090855746858,1.6461233506773347,1.3661568610633994,0.9541913631799355,1.3879762311556247,-6.088346544480194,0.434264025,-0.851499285,0.270812295,12.16222,-7.7063,16.46554,67.0
1774823748.0659292,1.621246337890625e-05,2026-03-29T22:35:48.065,2026-03-29T18:35:48.065,-20323.89,-44954.955,-76276.395,-47977.335,-8210.25,-15815.789999999999,8504.685,-61800.255,-2.9501909570772575,2.2580249622636477,2.9641575728869705,4.630709575837784,5.5048262892527156,6.610747439306472,4.559827543107021,-2.7786546021745777,0.450987615,-0.856504155,0.273619905,23.10364,-2.8230999999999997,6.7143999999999995,67.0
1774823748.065936,6.9141387939453125e-06,2026-03-29T22:35:48.065,2026-03-29T18:35:48.065,-20320.425,-44962.244999999995,-76287.105,-47984.265,-8215.605,-15813.404999999999,8514.045,-61788.645,-0.9664645676540926,2.746615309854077,5.191194048946351,5.4648513343830025,7.136032119201135,9.340834609243256,5.576771448523147,2.236968000191746,0.450987615,-0.856504155,0.273619905,23.10364,-2.8230999999999997,6.7143999999999995,67.0
1774823748.0787485,0.012812376022338867,2026-03-29T22:35:48.078,2026-03-29T18:35:48.078,-20301.39,-44956.619999999995,-76289.22,-47994.255,-8233.065,-15834.42,8509.185,-61767.09,1.6191563392962816,1.769113787124271,4.754041500166741,3.6034204116573574,5.436748267332369,7.819013777657973,3.905494318964097,6.591510634014434,0.450987615,-0.856504155,0.273619905,23.10364,-2.8230999999999997,6.7143999999999995,67.0
1774823748.0787687,2.0265579223632812e-05,2026-03-29T22:35:48.078,2026-03-29T18:35:48.078,-20289.915,-44955.54,-76300.515,-48013.74,-8254.35,-15860.88,8490.375,-61756.515,3.5484514470756126,-0.07994198471127689,1.9115442158623346,-0.174586905450398,1.1431399933425,2.6712394079727435,0.3251098679726672,8.062491883061071,0.450987615,-0.856504155,0.273619905,23.10364,-2.8230999999999997,6.7143999999999995,67.0
1774823748.0787852,1.6450881958007812e-05,2026-03-29T22:35:48.078,2026-03-29T18:35:48.078,-20272.77,-44955.99,-76292.145,-48008.61,-8254.215,-15863.175,8486.46,-61731.765,3.8281744536576348,-1.7741822910263199,-1.8551853177783209,-4.081672374679278,-3.76383836683071,-3.7782570508788815,-3.4451964022740698,5.700990509809151,0.450987615,-0.856504155,0.273619905,23.10364,-2.8230999999999997,6.7143999999999995,67.0
1774823748.0787916,6.4373016357421875e-06,2026-03-29T22:35:48.078,2026-03-29T18:35:48.078,-20311.38,-44954.189999999995,-76254.795,-47969.325,-8224.56,-15835.005,8500.635,-61769.204999999994,2.2377762349064914,-2.4059041798745326,-4.599577067505297,-6.163955610817602,-6.9729524314641145,-8.562913567533638,-5.583634209037783,0.39307036913387516,0.450987615,-0.856504155,0.273619905,23.10364,-2.8230999999999997,6.7143999999999995,67.0
1774823748.0787988,7.152557373046875e-06,2026-03-29T22:35:48.078,2026-03-29T18:35:48.078,-20353.59,-44957.88,-76264.965,-47966.805,-8212.05,-15827.175,8508.33,-61816.725,-0.528037379347252,-1.6631497285025028,-4.9082734609937155,-5.274168429729219,-6.934468059015833,-9.449389130252966,-5.0556216735491,-5.4639739247633585,0.450987615,-0.856504155,0.273619905,23.10364,-2.8230999999999997,6.7143999999999995,67.0
1774823748.0788045,5.7220458984375e-06,2026-03-29T22:35:48.078,2026-03-29T18:35:48.078,-20352.329999999998,-44962.11,-76286.52,-47983.275,-8223.164999999999,-15840.494999999999,8499.779999999999,-61829.954999999994,-3.1666147852991786,0.014124372086849543,-2.631828931153565,-1.6922321515753558,-3.611880771856224,-5.989686235827902,-2.117769907571098,-9.057789384651205,0.450987615,-0.856504155,0.273619905,23.10364,-2.8230999999999997,6.7143999999999995,67.0
1774823748.0839095,0.005105018615722656,2026-03-29T22:35:48.083,2026-03-29T18:35:48.083,-20334.87,-44958.33,-76286.79,-47992.95,-8231.985,-15846.615,8496.225,-61813.665,-4.386682971979848,1.6779852949174772,1.0314088128913286,2.937818719246351,1.4723042643493796,0.2499184854088956,1.8104885942828501,-8.522189334430738,0.450987615,-0.856504155,0.273619905,23.10364,-2.8230999999999997,6.7143999999999995,67.0
1774823748.083928,1.8596649169921875e-05,2026-03-29T22:35:48.083,2026-03-29T18:35:48.083,-20328.524999999998,-44951.805,-76278.87,-47988.18,-8229.69,-15844.005,8491.095,-61805.655,-3.542122967383072,2.386812365574451,4.149265755459425,6.358709615877998,5.9326720176364764,6.400499133505712,4.841691024910549,-3.8991297706268884,0.450987615,-0.856504155,0.273619905,23.10364,-2.8230999999999997,6.7143999999999995,67.0
1774823748.0878491,0.003921031951904297,2026-03-29T22:35:48.087,2026-03-29T18:35:48.087,-20326.68,-44946.314999999995,-76272.61499999999,-47984.759999999995,-8226.315,-15843.644999999999,8488.035,-61805.115,-0.9675775969255612,1.7182563426170643,5.058937880613496,6.7970734100451295,7.640922720305799,9.617598556793299,5.537785198238606,2.7928500194929122,0.46154667,-0.87096945,0.280333755,26.735519999999998,9.73588,2.86888,67.0
1774823748.0878727,2.3603439331054688e-05,2026-03-29T22:35:48.087,2026-03-29T18:35:48.087,-20347.829999999998,-44961.705,-76271.715,-47975.04,-8211.914999999999,-15828.705,8499.24,-61812.945,2.156545540082973,0.008154720165152701,3.244103895922457,3.8744694037258838,5.7432631231176545,8.405933104760283,3.6001862483996656,8.454086483790498,0.46154667,-0.87096945,0.280333755,26.735519999999998,9.73588,2.86888,67.0
1774823748.092409,0.004536151885986328,2026-03-29T22:35:48.092,2026-03-29T18:35:48.092,-20348.415,-44986.77,-76304.87999999999,-47999.52,-8230.005,-15839.369999999999,8510.175,-61804.935,4.353819091197253,-1.8156962404276933,-0.37328945899874494,-1.132803359362926,1.087977933495687,3.3206334189018296,-0.0015515620380915792,10.359390672097193,0.46154667,-0.87096945,0.280333755,26.735519999999998,9.73588,2.86888,67.0
1774823748.0924275,1.8596649169921875e-05,2026-03-29T22:35:48.092,2026-03-29T18:35:48.092,-20326.815,-44975.52,-76314.915,-48011.939999999995,-8243.279999999999,-15853.904999999999,8502.93,-61798.229999999996,4.5560782307452365,-2.723775681537667,-3.8904865442331773,-5.846472968209511,-4.150979589732331,-3.286180101761566,-3.517751638896088,7.480968480417068,0.46154667,-0.87096945,0.280333755,26.735519999999998,9.73588,2.86888,67.0
1774823748.0996847,0.007257223129272461,2026-03-29T22:35:48.099,2026-03-29T18:35:48.099,-20317.905,-44965.665,-76307.175,-48006.63,-8239.23,-15855.48,8497.305,-61800.479999999996,2.622916379666989,-2.1447389813418702,-5.407706968989678,-7.914529348076148,-7.488386323093082,-8.357588833756404,-5.276437396214672,1.0308954229417573,0.46154667,-0.87096945,0.280333755,26.735519999999998,9.73588,2.86888,67.0
1774823748.0997033,1.8596649169921875e-05,2026-03-29T22:35:48.099,2026-03-29T18:35:48.099,-20317.86,-44960.49,-76296.42,-47997.27,-8232.164999999999,-15848.595,8502.885,-61799.085,-0.5768176059669468,-0.2976574904513168,-4.035522337400435,-6.1798699239722215,-7.306837658197224,-9.553244057996885,-4.487311040658523,-6.059589592693909,0.46154667,-0.87096945,0.280333755,26.735519999999998,9.73588,2.86888,67.0
1774823748.0997217,1.8358230590820312e-05,2026-03-29T22:35:48.099,2026-03-29T18:35:48.099,-20319.75,-44964.674999999996,-76302.18,-47990.88,-8227.529999999999,-15846.75,8499.555,-61797.645,-3.564755415782517,1.8883238730854501,-0.3981283822300255,-1.3101977561865166,-3.6408675701437945,-6.335740885248497,-1.6018763609975555,-10.49529385047452,0.46154667,-0.87096945,0.280333755,26.735519999999998,9.73588,2.86888,67.0
1774823748.099728,6.4373016357421875e-06,2026-03-29T22:35:48.099,2026-03-29T18:35:48.099,-20325.015,-44969.22,-76301.50499999999,-47985.795,-8226.539999999999,-15846.57,8495.55,-61796.34,-4.945602185909146,3.239184979506642,3.6459544173011946,4.4474847588079145,1.8141137067757536,-0.21513604777529746,1.9362138270250664,-10.169493939517222,0.46154667,-0.87096945,0.280333755,26.735519999999998,9.73588,2.86888,67.0
1774823748.1035748,0.0038466453552246094,2026-03-29T22:35:48.103,2026-03-29T18:35:48.103,-20326.05,-44961.39,-76281.56999999999,-47972.475,-8221.005,-15840.09,8495.955,-61790.04,-4.063526939616963,2.95407336545611,5.943164808613924,8.304315015371252,6.484494720632525,5.960454783506209,4.415352297391994,-5.172326472911241,0.46154667,-0.87096945,0.280333755,26.735519999999998,9.73588,2.86888,67.0
1774823748.1036024,2.765655517578125e-05,2026-03-29T22:35:48.103,2026-03-29T18:35:48.103,-20325.87,-44949.96,-76254.03,-47952.54,-8203.005,-15825.33,8500.005,-61787.88,-1.3111736728106285,1.0552140733588071,5.173033925810647,8.279536635997191,8.131841534939134,9.334003233739237,4.690639834129311,2.2314800686522354,0.46154667,-0.87096945,0.280333755,26.735519999999998,9.73588,2.86888,67.0
1774823748.1082716,0.004669189453125,2026-03-29T22:35:48.108,2026-03-29T18:35:48.108,-20328.57,-44952.615,-76266.98999999999,-47982.24,-8224.56,-15840.359999999999,8500.545,-61790.579999999994,2.053289323367304,-1.5751170724189931,1.5805706786842448,4.209434696262249,5.925059147020822,8.366146051018431,2.7194441500321065,8.650696143622577,0.47021364,-0.88073505,0.29943771,42.01078,30.56578,-7.034859999999999,67.0
1774823748.108291,1.9311904907226562e-05,2026-03-29T22:35:48.108,2026-03-29T18:35:48.108,-20312.415,-44960.49,-76289.715,-48007.619999999995,-8246.699999999999,-15860.835,8489.205,-61779.329999999994,4.491874947044913,-3.608631586529859,-3.084376042638089,-2.0958365455583206,0.8579671927542634,3.5411596174095417,-0.45528179730475965,11.146384161658483,0.47021364,-0.88073505,0.29943771,42.01078,30.56578,-7.034859999999999,67.0
1774823748.1227832,0.014492273330688477,2026-03-29T22:35:48.122,2026-03-29T18:35:48.122,-20309.445,-44967.509999999995,-76292.50499999999,-48004.604999999996,-8241.66,-15858.855,8482.23,-61764.03,4.89757023311662,-3.9401885166502866,-6.418300858934073,-7.658211019904382,-4.696782680772033,-2.8726302436743087,-3.2500092740072044,8.594507026228811,0.47021364,-0.88073505,0.29943771,42.01078,30.56578,-7.034859999999999,67.0
1774823748.122815,3.170967102050781e-05,2026-03-29T22:35:48.122,2026-03-29T18:35:48.122,-20308.77,-44948.655,-76283.235,-47997.225,-8232.57,-15849.0,8473.365,-61769.744999999995,3.0981022980021597,-2.2754782331214924,-6.5919959494902685,-9.741362747831984,-8.097889234589765,-7.889998454475864,-4.331525275890496,2.1925567478985233,0.47021364,-0.88073505,0.29943771,42.01078,30.56578,-7.034859999999999,67.0
1774823748.122842,2.7179718017578125e-05,2026-03-29T22:35:48.122,2026-03-29T18:35:48.122,-20292.255,-44938.575,-76288.77,-48001.77,-8234.369999999999,-15849.224999999999,8469.72,-61781.265,-0.07699639339912726,0.6709149485348025,-3.331309969266734,-7.195215273351446,-7.690458000681481,-9.200728202603766,-3.2582752374182262,-5.118288291776306,0.47021364,-0.88073505,0.29943771,42.01078,30.56578,-7.034859999999999,67.0
1774823748.1228545,1.239776611328125e-05,2026-03-29T22:35:48.122,2026-03-29T18:35:48.122,-20327.715,-44964.945,-76292.37,-47997.63,-8236.529999999999,-15847.289999999999,8490.33,-61811.954999999994,-3.1884216927337956,3.4866666261913086,1.8674410344410493,-1.074851061494381,-3.6097866585052967,-6.236083425835642,-0.6616137833981968,-10.029554159564622,0.47021364,-0.88073505,0.29943771,42.01078,30.56578,-7.034859999999999,67.0
1774823748.1229124,5.793571472167969e-05,2026-03-29T22:35:48.122,2026-03-29T18:35:48.122,-20326.68,-44960.805,-76295.83499999999,-48008.295,-8253.81,-15860.97,8502.074999999999,-61807.274999999994,-4.848441588514771,4.744790111880472,6.428595693745267,5.793715079088008,2.256089162009394,-0.41651933746911973,2.107570907402206,-10.384623543532383,0.47021364,-0.88073505,0.29943771,42.01078,30.56578,-7.034859999999999,67.0
1774823748.1229212,8.821487426757812e-06,2026-03-29T22:35:48.122,2026-03-29T18:35:48.122,-20317.364999999998,-44966.159999999996,-76314.105,-48022.92,-8261.865,-15871.814999999999,8501.49,-61791.03,-4.343551609988245,3.7257234878955643,7.9737524461223845,10.124140400934685,7.1398265100883895,5.527322720095422,3.674832958289575,-6.132832939088188,0.47021364,-0.88073505,0.29943771,42.01078,30.56578,-7.034859999999999,67.0
1774823748.1230104,8.916854858398438e-05,2026-03-29T22:35:48.123,2026-03-29T18:35:48.123,-20299.68,-44957.34,-76300.11,-48011.445,-8249.13,-15866.189999999999,8498.16,-61770.104999999996,-1.9375989160774354,0.813186211532798,5.550439333992119,9.746427551395437,8.700259107186522,8.83604465100459,3.3245746442878343,0.7067231349795493,0.47021364,-0.88073505,0.29943771,42.01078,30.56578,-7.034859999999999,67.0
1774823748.1230197,9.298324584960938e-06,2026-03-29T22:35:48.123,2026-03-29T18:35:48.123,-20305.26,-44956.17,-76286.06999999999,-47991.465,-8230.815,-15849.72,8498.88,-61761.689999999995,1.2710756405713413,-2.6489511253659064,0.18182615530108673,4.691081293937288,6.1440126525450705,8.003725596658022,1.329996768090391,7.023402605173672,0.47021364,-0.88073505,0.29943771,42.01078,30.56578,-7.034859999999999,67.0
1774823748.127531,0.004511356353759766,2026-03-29T22:35:48.127,2026-03-29T18:35:48.127,-20325.735,-44974.08,-76301.91,-47997.225,-8234.685,-15852.824999999999,8502.255,-61770.015,3.859283574077101,-4.986333400264298,-5.5681845443441365,-2.760103010278294,0.6259344882859096,3.4646325540005343,-1.2226883322125268,10.052558077196968,0.466734645,-0.8593117650000001,0.3210441,37.98214,47.3823,-15.641499999999999,67.0
1774823748.1275513,2.0265579223632812e-05,2026-03-29T22:35:48.127,2026-03-29T18:35:48.127,-20324.835,-44988.884999999995,-76334.94,-48032.189999999995,-8263.8,-15882.029999999999,8496.81,-61767.18,4.715126936624929,-5.0112376809456975,-8.82863004951231,-9.110060575641986,-5.272909874414634,-2.6291396226120662,-3.01186456457153,8.59741810349108,0.466734645,-0.8593117650000001,0.3210441,37.98214,47.3823,-15.641499999999999,67.0
1774823748.13223,0.0046787261962890625,2026-03-29T22:35:48.132,2026-03-29T18:35:48.132,-20325.645,-44980.424999999996,-76328.955,-48034.71,-8271.855,-15892.92,8485.875,-61784.189999999995,3.5143055617206707,-2.625158621405635,-7.856238150496078,-11.296452839876164,-8.753928893618586,-7.4266401244348055,-3.1575155223605607,3.4899113718378567,0.466734645,-0.8593117650000001,0.3210441,37.98214,47.3823,-15.641499999999999,67.0
1774823748.132258,2.7894973754882812e-05,2026-03-29T22:35:48.132,2026-03-29T18:35:48.132,-20330.684999999998,-44970.255,-76305.87,-48015.99,-8255.61,-15876.63,8493.21,-61794.63,0.8339074272299729,1.098862240493712,-2.9531002005258533,-8.173267696562814,-8.12983857115841,-8.71159847275517,-1.653407074007582,-2.879481378737585,0.466734645,-0.8593117650000001,0.3210441,37.98214,47.3823,-15.641499999999999,67.0
1774823748.1354873,0.003229379653930664,2026-03-29T22:35:48.135,2026-03-29T18:35:48.135,-20317.14,-44959.32,-76293.0,-48010.365,-8253.539999999999,-15871.769999999999,8490.105,-61778.88,-2.1301439958947976,4.408340280342141,3.6111525836046146,-1.1047750497739175,-3.641984632581446,-5.926792358332296,0.657463521171901,-7.699395488235392,0.466734645,-0.8593117650000001,0.3210441,37.98214,47.3823,-15.641499999999999,67.0
1774823748.1354997,1.239776611328125e-05,2026-03-29T22:35:48.135,2026-03-29T18:35:48.135,-20322.27,-44941.905,-76268.925,-47984.715,-8226.585,-15841.89,8495.595,-61798.365,-4.101294307258344,5.708120235541507,8.663388634435197,6.633942041870289,2.630000669835208,-0.41553456758407786,2.540017413987345,-8.992664438385624,0.466734645,-0.8593117650000001,0.3210441,37.98214,47.3823,-15.641499999999999,67.0
1774823748.1399136,0.0044138431549072266,2026-03-29T22:35:48.139,2026-03-29T18:35:48.139,-20306.52,-44936.729999999996,-76268.83499999999,-47978.595,-8215.154999999999,-15825.555,8497.17,-61777.845,-4.272126991519657,4.337084246772853,9.67262738409148,11.385362188543265,7.734562060251488,5.224277850615969,3.0139816319103487,-6.422033705894505,0.466734645,-0.8593117650000001,0.3210441,37.98214,47.3823,-15.641499999999999,67.0
1774823748.1399353,2.1696090698242188e-05,2026-03-29T22:35:48.139,2026-03-29T18:35:48.139,-20300.219999999998,-44950.814999999995,-76287.915,-47994.255,-8230.14,-15839.144999999999,8500.949999999999,-61765.695,-2.629668906378847,0.9030659634677387,6.01912033358353,10.848963252848073,9.240703209331384,8.363749034780515,1.856248482229214,-1.3219649272484624,0.466734645,-0.8593117650000001,0.3210441,37.98214,47.3823,-15.641499999999999,67.0
1774823748.146449,0.006513833999633789,2026-03-29T22:35:48.146,2026-03-29T18:35:48.146,-20280.555,-44961.075,-76306.635,-48015.494999999995,-8253.0,-15863.445,8498.385,-61737.93,0.07113880887044875,-2.99355489364604,-0.6506300470706462,5.199612868739538,6.398070322221791,7.568266244170961,-0.2958156748740704,3.9975562124443615,0.466734645,-0.8593117650000001,0.3210441,37.98214,47.3823,-15.641499999999999,67.0
1774823748.1464753,2.6226043701171875e-05,2026-03-29T22:35:48.146,2026-03-29T18:35:48.146,-20303.01,-44961.795,-76293.09,-48001.905,-8240.715,-15858.404999999999,8484.21,-61750.305,2.6570985971553864,-5.5189644625013505,-7.178730004760719,-2.961238992661199,0.5095861384194303,3.2533170122416446,-2.28700549554052,7.310369686755034,0.466734645,-0.8593117650000001,0.3210441,37.98214,47.3823,-15.641499999999999,67.0
1774823748.150307,0.003831624984741211,2026-03-29T22:35:48.150,2026-03-29T18:35:48.150,-20350.17,-44955.72,-76269.915,-47973.78,-8209.26,-15825.33,8495.145,-61814.25,4.046535803781849,-5.482007235197333,-10.409123601126556,-9.813806265139068,-5.668586744065591,-2.529256968894561,-3.051360277427076,7.404869597151898,0.45471075,-0.83422638,0.328063125,15.9467,55.821079999999995,-19.136039999999998,67.0
1774823748.1503372,3.0279159545898438e-05,2026-03-29T22:35:48.150,2026-03-29T18:35:48.150,-20338.605,-44954.325,-76273.69499999999,-47984.939999999995,-8226.539999999999,-15840.0,8491.5,-61812.585,3.6983070751360643,-2.9029914774337913,-8.726295435643781,-12.122372519076023,-9.222725836278796,-7.066083939729074,-2.169071747124836,4.498412924802713,0.45471075,-0.83422638,0.328063125,15.9467,55.821079999999995,-19.136039999999998,67.0
1774823748.154908,0.004570722579956055,2026-03-29T22:35:48.154,2026-03-29T18:35:48.154,-20306.835,-44944.155,-76281.75,-48000.33,-8248.365,-15866.91,8478.494999999999,-61777.619999999995,1.8163242900281014,0.9996604261176077,-2.863434072118777,-8.775104242223774,-8.461504638100447,-8.255463606871414,-0.08702206529923659,0.012072734697944692,0.45471075,-0.83422638,0.328063125,15.9467,55.821079999999995,-19.136039999999998,67.0
1774823748.1549368,2.8848648071289062e-05,2026-03-29T22:35:48.154,2026-03-29T18:35:48.154,-20308.094999999998,-44949.78,-76281.25499999999,-47993.715,-8244.585,-15872.4,8478.9,-61769.43,-0.7636382833441129,4.396060153810868,4.42501111868924,-1.3229576305040525,-3.723846918016455,-5.581377046343025,2.10941454147729,-4.1290825010651355,0.45471075,-0.83422638,0.328063125,15.9467,55.821079999999995,-19.136039999999998,67.0
1774823748.1549592,2.2411346435546875e-05,2026-03-29T22:35:48.154,2026-03-29T18:35:48.154,-20336.04,-44949.555,-76264.515,-47969.009999999995,-8220.645,-15854.445,8494.335,-61799.939999999995,-2.9440612933890686,5.717839109944021,9.676880196648135,6.745652984005875,2.7731712047975168,-0.33639828470822286,3.255885815954161,-6.323371940016887,0.45471075,-0.83422638,0.328063125,15.9467,55.821079999999995,-19.136039999999998,67.0
1774823748.1549697,1.049041748046875e-05,2026-03-29T22:35:48.154,2026-03-29T18:35:48.154,-20353.95,-44958.104999999996,-76269.06,-47973.689999999995,-8225.235,-15858.224999999999,8501.535,-61812.314999999995,-3.8298499721319,4.394577070001723,10.387420738917069,11.652915312979054,7.978327031930544,5.002714990092102,2.713524740434615,-5.892064575555881,0.45471075,-0.83422638,0.328063125,15.9467,55.821079999999995,-19.136039999999998,67.0
1774823748.163129,0.008159399032592773,2026-03-29T22:35:48.163,2026-03-29T18:35:48.163,-20348.82,-44973.09,-76284.94499999999,-47983.77,-8227.935,-15848.324999999999,8496.494999999999,-61798.77,-3.0925036442784863,1.1024162773864716,6.2162618567632535,11.117540319154216,9.448177724363125,7.945582980989424,0.7089724949198556,-3.239237696501856,0.45471075,-0.83422638,0.328063125,15.9467,55.821079999999995,-19.136039999999998,67.0
1774823748.163162,3.2901763916015625e-05,2026-03-29T22:35:48.163,2026-03-29T18:35:48.163,-20337.03,-44980.335,-76297.00499999999,-47987.64,-8224.56,-15834.105,8474.895,-61791.57,-1.0885717875193381,-2.5848059193406825,-0.8511050839867256,5.426641612690809,6.5015006488280145,7.151236684623071,-1.7656273690935829,0.4295512552943875,0.45471075,-0.83422638,0.328063125,15.9467,55.821079999999995,-19.136039999999998,67.0
1774823748.1631925,3.0517578125e-05,2026-03-29T22:35:48.163,2026-03-29T18:35:48.163,-20314.53,-44960.04,-76286.295,-47980.575,-8217.9,-15823.439999999999,8497.035,-61784.189999999995,1.3083451530579633,-4.96092662929623,-7.46389345202126,-2.7156406926356493,0.5369677134244021,3.0394723408951743,-3.4456893531539308,3.6551225328695627,0.45471075,-0.83422638,0.328063125,15.9467,55.821079999999995,-19.136039999999998,67.0
1774823748.1632044,1.1920928955078125e-05,2026-03-29T22:35:48.163,2026-03-29T18:35:48.163,-20301.03,-44944.38,-76275.94499999999,-47974.994999999995,-8212.41,-15816.599999999999,8522.19,-61778.744999999995,3.084985215182096,-4.991831046998992,-10.517874658816497,-9.484685353905792,-5.635805348636244,-2.4289163369041886,-3.4342282901014722,5.290479606148524,0.45471075,-0.83422638,0.328063125,15.9467,55.821079999999995,-19.136039999999998,67.0
1774823748.1678123,0.0046079158782958984,2026-03-29T22:35:48.167,2026-03-29T18:35:48.167,-20311.335,-44952.119999999995,-76275.45,-47978.82,-8219.52,-15826.814999999999,8516.295,-61774.649999999994,3.5146095857396067,-2.7731230266224705,-8.633456277076156,-11.751009380459827,-9.130406917767324,-6.689428819250409,-1.667058946567965,4.874444709571448,0.439268895,-0.81970005,0.32128824,-7.9352,55.40906,-21.013019999999997,67.0
1774823748.1678293,1.6927719116210938e-05,2026-03-29T22:35:48.167,2026-03-29T18:35:48.167,-20324.52,-44969.85,-76286.025,-47992.77,-8232.885,-15839.91,8518.41,-61771.14,2.454595934040396,0.5651051968601504,-2.7869835865712465,-8.544824773718505,-8.344997539813344,-7.779881330682224,1.0333021372553426,2.7135351898618847,0.439268895,-0.81970005,0.32128824,-7.9352,55.40906,-21.013019999999997,67.0
1774823748.1719348,0.004105567932128906,2026-03-29T22:35:48.171,2026-03-29T18:35:48.171,-20331.495,-44974.71,-76289.265,-47992.59,-8235.0,-15842.97,8522.595,-61766.055,0.39375521704067806,3.438484607560746,4.197732398058703,-1.475865293669483,-3.7032706967914915,-5.246255574116755,3.3476775163695747,-0.3059921970948572,0.439268895,-0.81970005,0.32128824,-7.9352,55.40906,-21.013019999999997,67.0
1774823748.1719527,1.7881393432617188e-05,2026-03-29T22:35:48.171,2026-03-29T18:35:48.171,-20330.19,-44967.6,-76292.86499999999,-47996.46,-8241.119999999999,-15853.545,8513.414999999999,-61773.479999999996,-1.7671010206726603,4.574215644481894,9.032632619934805,6.076344372098765,2.571570689465089,-0.3285782473673913,4.105963387444056,-3.070436727540296,0.439268895,-0.81970005,0.32128824,-7.9352,55.40906,-21.013019999999997,67.0
1774823748.1827428,0.010790109634399414,2026-03-29T22:35:48.182,2026-03-29T18:35:48.182,-20325.329999999998,-44959.455,-76283.64,-47985.39,-8234.73,-15853.05,8499.375,-61791.615,-3.1060229289032075,3.586638149275702,9.538222219619394,10.594539469690616,7.53112821084609,4.648285017453557,2.871764758025791,-4.622356371163108,0.439268895,-0.81970005,0.32128824,-7.9352,55.40906,-21.013019999999997,67.0
1774823748.1828115,6.866455078125e-05,2026-03-29T22:35:48.182,2026-03-29T18:35:48.182,-20332.17,-44961.93,-76285.395,-47975.805,-8226.539999999999,-15852.06,8485.38,-61788.465,-3.074706593507808,1.0968646309037318,5.642995020416872,10.08324441694338,8.901655119845842,7.379170369028625,0.17639864330058752,-4.460843433819957,0.439268895,-0.81970005,0.32128824,-7.9352,55.40906,-21.013019999999997,67.0
1774823748.1828773,6.580352783203125e-05,2026-03-29T22:35:48.182,2026-03-29T18:35:48.182,-20337.12,-44970.255,-76301.81999999999,-47978.955,-8219.88,-15847.335,8481.779999999999,-61790.805,-1.727916609979608,-1.6339110499334184,-0.6567562204620806,4.963126663075669,6.1383156677995485,6.65130264783937,-2.7175870766723262,-2.6841377381118448,0.439268895,-0.81970005,0.32128824,-7.9352,55.40906,-21.013019999999997,67.0
1774823748.1829054,2.8133392333984375e-05,2026-03-29T22:35:48.182,2026-03-29T18:35:48.182,-20318.355,-44961.119999999995,-76304.43,-47996.1,-8232.975,-15853.005,8480.97,-61791.165,0.31101888826742424,-3.349197579219321,-6.325072950530496,-2.207381506950838,0.6390342340846816,2.8831915300075353,-4.414205269299687,0.054690822295483534,0.439268895,-0.81970005,0.32128824,-7.9352,55.40906,-21.013019999999997,67.0
1774823748.1829393,3.3855438232421875e-05,2026-03-29T22:35:48.182,2026-03-29T18:35:48.182,-20313.585,-44951.58,-76294.215,-48006.494999999995,-8242.47,-15848.865,8488.845,-61786.575,2.132814278540016,-3.388453821283785,-8.77168491273566,-8.016509490351199,-4.965323984672201,-2.1105809163030225,-4.0572378513691065,2.764880137729779,0.439268895,-0.81970005,0.32128824,-7.9352,55.40906,-21.013019999999997,67.0
1774823748.182964,2.47955322265625e-05,2026-03-29T22:35:48.182,2026-03-29T18:35:48.182,-20313.045,-44950.409999999996,-76290.795,-48011.49,-8245.529999999999,-15853.724999999999,8488.35,-61780.905,2.947881908253263,-1.940962079785755,-7.058924842767313,-9.842821938093481,-8.083633012086002,-5.999439259013121,-1.7542589972561853,4.451043575592041,0.439268895,-0.81970005,0.32128824,-7.9352,55.40906,-21.013019999999997,67.0
1774823748.1883848,0.005420684814453125,2026-03-29T22:35:48.188,2026-03-29T18:35:48.188,-20306.565,-44951.265,-76293.22499999999,-48012.435,-8246.295,-15857.82,8505.135,-61767.314999999995,2.4344050623421696,0.13511008734853,-2.2574851957965687,-7.057522159475599,-7.378431961080389,-7.032485241939864,1.4553259536190077,4.466122022971856,0.43493541,-0.8367898500000001,0.314025075,-20.41788,65.67904,-22.87474,67.0
1774823748.1883996,1.4781951904296875e-05,2026-03-29T22:35:48.188,2026-03-29T18:35:48.188,-20292.885,-44948.52,-76292.37,-48006.854999999996,-8244.09,-15858.945,8516.52,-61755.03,0.872698527594643,1.8021077817090028,3.1824427444997228,-1.2246748965311975,-3.344808511312603,-4.8307747000596315,4.077685064346345,2.7659822286125473,0.43493541,-0.8367898500000001,0.314025075,-20.41788,65.67904,-22.87474,67.0
1774823748.1921127,0.0037131309509277344,2026-03-29T22:35:48.192,2026-03-29T18:35:48.192,-20292.704999999998,-44944.02,-76277.745,-47992.814999999995,-8234.73,-15852.15,8507.835,-61752.149999999994,-0.9944996303316835,2.368814417756442,6.689366703515373,4.755537477011896,1.9995448037042005,-0.5152233885348049,4.8642975777806585,-0.03904311936594389,0.43493541,-0.8367898500000001,0.314025075,-20.41788,65.67904,-22.87474,67.0
1774823748.1921315,1.8835067749023438e-05,2026-03-29T22:35:48.192,2026-03-29T18:35:48.192,-20320.875,-44947.89,-76264.73999999999,-47971.034999999996,-8210.835,-15828.48,8503.83,-61778.07,-2.311034868394748,1.783743231985959,6.809522608738011,8.09968005114997,6.1311842004119885,3.8668817275095724,3.4043761787020212,-2.880860560159034,0.43493541,-0.8367898500000001,0.314025075,-20.41788,65.67904,-22.87474,67.0
1774823748.1958983,0.003766775131225586,2026-03-29T22:35:48.195,2026-03-29T18:35:48.195,-20319.704999999998,-44953.38,-76270.77,-47976.479999999996,-8218.485,-15836.67,8502.345,-61779.104999999996,-2.503631535397753,0.5680458505326091,3.819924200585811,7.457967597524218,7.229462721877163,6.322807010016082,0.32988395086787164,-4.6298922869639,0.43493541,-0.8367898500000001,0.314025075,-20.41788,65.67904,-22.87474,67.0
1774823748.19591,1.1682510375976562e-05,2026-03-29T22:35:48.195,2026-03-29T18:35:48.195,-20318.85,-44955.494999999995,-76276.89,-47981.295,-8221.949999999999,-15836.715,8507.88,-61774.155,-1.5404627034717469,-0.541063344959062,-0.5484722692186489,3.4624574008893987,4.990305851812466,5.82845453077042,-2.9654800458058084,-4.549665515373172,0.43493541,-0.8367898500000001,0.314025075,-20.41788,65.67904,-22.87474,67.0
1774823748.1996956,0.0037856101989746094,2026-03-29T22:35:48.199,2026-03-29T18:35:48.199,-20328.39,-44979.615,-76306.815,-48004.29,-8242.92,-15854.13,8497.574999999999,-61779.195,0.06896202569925167,-1.0173824046143314,-4.0821334396216225,-1.7184765705341272,0.6755383846204976,2.7522392610997026,-4.964625892825334,-2.622988113124126,0.43493541,-0.8367898500000001,0.314025075,-20.41788,65.67904,-22.87474,67.0
1774823748.1997092,1.3589859008789062e-05,2026-03-29T22:35:48.199,2026-03-29T18:35:48.199,-20321.415,-44989.064999999995,-76326.66,-48026.43,-8266.32,-15877.125,8485.65,-61764.21,1.5308796142310495,-0.8031533029581066,-5.217413356087143,-5.542725719595192,-3.584120243710176,-1.385497134955697,-4.727482277467613,0.40336825563739154,0.43493541,-0.8367898500000001,0.314025075,-20.41788,65.67904,-22.87474,67.0
1774823748.2039511,0.004241943359375,2026-03-29T22:35:48.203,2026-03-29T18:35:48.203,-20313.855,-44973.045,-76322.97,-48032.46,-8274.914999999999,-15890.715,8478.494999999999,-61762.77,2.156107423177028,-0.2678239011570466,-3.75101261055009,-6.356503113642636,-5.853197427576373,-4.6714206066446025,-2.3294858954534043,3.2987779785234475,0.43493541,-0.8367898500000001,0.314025075,-20.41788,65.67904,-22.87474,67.0
1774823748.2039778,2.6702880859375e-05,2026-03-29T22:35:48.203,2026-03-29T18:35:48.203,-20330.46,-44962.2,-76292.415,-47999.79,-8244.449999999999,-15866.414999999999,8491.545,-61797.689999999995,1.691115272570737,0.08392915018611098,-0.7971418119186945,-4.1231273862317375,-5.286361509739618,-5.69474707203179,1.1645320319628485,4.853866737732696,0.43493541,-0.8367898500000001,0.314025075,-20.41788,65.67904,-22.87474,67.0
1774823748.2083733,0.004395484924316406,2026-03-29T22:35:48.208,2026-03-29T18:35:48.208,-20336.175,-44950.095,-76267.305,-47970.27,-8215.38,-15840.0,8506.035,-61809.479999999996,0.4295659408153323,-0.03534763288478128,1.9298057133441415,-0.2904802014062919,-2.4329205530971456,-4.155174266413604,4.179729350128814,4.400213665245272,0.438414405,-0.862607655,0.320006505,-14.329139999999999,77.9786,-28.0784,67.0
1774823748.2083943,2.09808349609375e-05,2026-03-29T22:35:48.208,2026-03-29T18:35:48.208,-20315.925,-44940.104999999996,-76265.50499999999,-47971.845,-8215.425,-15832.619999999999,8506.35,-61781.31,-0.949445135465253,-0.501944284559518,3.0803898232123337,3.075085725688493,1.153270259711458,-0.9198602580283162,5.34503879723561,2.1132442104535607,0.438414405,-0.862607655,0.320006505,-14.329139999999999,77.9786,-28.0784,67.0
1774823748.2126129,0.004218578338623047,2026-03-29T22:35:48.212,2026-03-29T18:35:48.212,-20294.594999999998,-44939.61,-76265.86499999999,-47971.35,-8214.66,-15827.894999999999,8505.99,-61759.799999999996,-1.7341025698817625,-0.8652796030380454,2.3510484961962628,4.393717941792506,3.753021935162151,2.4580947113629943,4.116288568355058,-1.0467535196970699,0.438414405,-0.862607655,0.320006505,-14.329139999999999,77.9786,-28.0784,67.0
1774823748.2126317,1.8835067749023438e-05,2026-03-29T22:35:48.212,2026-03-29T18:35:48.212,-20317.995,-44961.345,-76276.305,-47976.84,-8219.565,-15834.869999999999,8502.975,-61764.255,-1.544676035609907,-0.6606218171493733,0.5323515811711393,3.3287206337891595,4.319936008947273,4.4955879277736175,1.026019541373711,-3.7411087861307806,0.438414405,-0.862607655,0.320006505,-14.329139999999999,77.9786,-28.0784,67.0
1774823748.2163591,0.003727436065673828,2026-03-29T22:35:48.216,2026-03-29T18:35:48.216,-20351.43,-44962.38,-76281.84,-47979.99,-8221.5,-15837.84,8505.045,-61798.365,-0.5242437412499878,0.24168738854595226,-1.0602357203016526,0.8257661921861258,2.902738869745853,4.437517649810227,-2.5524578935930515,-4.832447150293762,0.438414405,-0.862607655,0.320006505,-14.329139999999999,77.9786,-28.0784,67.0
1774823748.2163725,1.33514404296875e-05,2026-03-29T22:35:48.216,2026-03-29T18:35:48.216,-20320.425,-44956.53,-76296.69,-47998.935,-8239.545,-15855.119999999999,8495.91,-61792.965,0.7433221799265227,1.4739380038128918,-1.4166863480788234,-1.5333276576577626,0.4805071536573773,2.5215407142022834,-5.019610295860955,-3.879547387376024,0.438414405,-0.862607655,0.320006505,-14.329139999999999,77.9786,-28.0784,67.0
1774823748.2203355,0.003962993621826172,2026-03-29T22:35:48.220,2026-03-29T18:35:48.220,-20304.765,-44946.494999999995,-76286.295,-47995.29,-8240.535,-15856.019999999999,8491.185,-61779.689999999995,1.5470872922190662,2.3182327575523387,-0.4344150229652989,-2.465672079636421,-1.6470386479327213,-0.2344468161120835,-5.266017385506352,-1.324281914871845,0.438414405,-0.862607655,0.320006505,-14.329139999999999,77.9786,-28.0784,67.0
1774823748.2203677,3.218650817871094e-05,2026-03-29T22:35:48.220,2026-03-29T18:35:48.220,-20311.515,-44955.945,-76277.565,-47985.255,-8235.99,-15856.109999999999,8491.05,-61762.77,1.4323214724853868,2.105723718756394,1.0533781934168283,-1.6798617931262345,-2.555263308337752,-2.5736057999177055,-3.1694737255054806,1.7129769209721322,0.438414405,-0.862607655,0.320006505,-14.329139999999999,77.9786,-28.0784,67.0
1774823748.2253911,0.005023479461669922,2026-03-29T22:35:48.225,2026-03-29T18:35:48.225,-20330.19,-44978.49,-76284.18,-47988.45,-8239.14,-15860.34,8491.949999999999,-61751.7,0.4516641066030271,0.6520594059827894,1.8311331048234232,0.04572313318997482,-2.104852884231891,-3.5826120432719435,0.3486075478312201,3.9341173776716527,0.438414405,-0.862607655,0.320006505,-14.329139999999999,77.9786,-28.0784,67.0
1774823748.225416,2.47955322265625e-05,2026-03-29T22:35:48.225,2026-03-29T18:35:48.225,-20325.239999999998,-44982.314999999995,-76300.47,-48012.795,-8262.404999999999,-15875.369999999999,8491.23,-61741.395,-0.8524354543752211,-1.5306316701735412,1.1040138464074174,1.4122949669313376,-0.8804129733826591,-3.0411478185233474,3.7315422425120386,4.430992188212358,0.438414405,-0.862607655,0.320006505,-14.329139999999999,77.9786,-28.0784,67.0
1774823748.2284553,0.0030393600463867188,2026-03-29T22:35:48.228,2026-03-29T18:35:48.228,-20310.93,-44967.104999999996,-76303.62,-48015.27,-8262.765,-15874.289999999999,8482.904999999999,-61761.329999999994,-1.732007784075128,-3.401186378197852,-0.9328490313760734,1.4357684360456195,0.25685193728627287,-1.4087197015077868,5.47792738430473,3.0649012495493753,0.436705425,-0.864804915,0.317565105,-26.20142,84.25045999999999,-31.664499999999997,67.0
1774823748.228471,1.5735626220703125e-05,2026-03-29T22:35:48.228,2026-03-29T18:35:48.228,-20341.079999999998,-44976.915,-76300.2,-47986.064999999995,-8226.539999999999,-15840.269999999999,8491.994999999999,-61819.064999999995,-1.6406587003357946,-3.889431920188995,-3.11715333731994,0.06983911363804356,0.7109642829966275,0.4906410958492506,4.807577052176354,0.4950433372684737,0.436705425,-0.864804915,0.317565105,-26.20142,84.25045999999999,-31.664499999999997,67.0
1774823748.2320035,0.00353240966796875,2026-03-29T22:35:48.232,2026-03-29T18:35:48.232,-20350.17,-44985.825,-76317.20999999999,-47994.119999999995,-8228.699999999999,-15837.795,8503.65,-61814.204999999994,-0.5487638601289916,-2.4870674025106276,-3.9561055773041867,-1.7524694462663892,0.46616344213095284,1.8890900622872866,2.008135826811587,-2.142526364587586,0.436705425,-0.864804915,0.317565105,-26.20142,84.25045999999999,-31.664499999999997,67.0
1774823748.232025,2.1457672119140625e-05,2026-03-29T22:35:48.232,2026-03-29T18:35:48.232,-20330.505,-44978.354999999996,-76327.02,-48015.18,-8254.485,-15861.779999999999,8487.81,-61796.97,1.0076904476581248,0.3896095383854164,-2.5367229132588993,-2.6891874434199567,0.007712282106668943,2.384604307182631,-1.6903429688874503,-3.7467489697442917,0.436705425,-0.864804915,0.317565105,-26.20142,84.25045999999999,-31.664499999999997,67.0
1774823748.238809,0.006784200668334961,2026-03-29T22:35:48.238,2026-03-29T18:35:48.238,-20312.864999999998,-44959.365,-76306.995,-48002.85,-8246.25,-15856.92,8485.11,-61780.365,2.184629500331007,3.491736913167643,0.813563398067081,-1.8427999981660976,-0.07563733525359008,2.0152912112950996,-4.657073915751577,-3.718345196513053,0.436705425,-0.864804915,0.317565105,-26.20142,84.25045999999999,-31.664499999999997,67.0
1774823748.2388427,3.361701965332031e-05,2026-03-29T22:35:48.238,2026-03-29T18:35:48.238,-20320.469999999998,-44946.36,-76272.12,-47975.4,-8222.13,-15837.57,8494.244999999999,-61789.77,2.272088441595186,5.286439270476198,4.531803614581777,0.6084135473158369,0.4583401235741064,1.1158263022363342,-5.579568754930144,-2.1799805302070734,0.436705425,-0.864804915,0.317565105,-26.20142,84.25045999999999,-31.664499999999997,67.0
1774823748.23887,2.7179718017578125e-05,2026-03-29T22:35:48.238,2026-03-29T18:35:48.238,-20322.945,-44954.685,-76275.62999999999,-47975.534999999996,-8223.525,-15842.115,8496.0,-61786.215,1.0944409582904868,4.71806262088332,6.553946361914904,3.395566239355266,1.296261756165881,0.08263030725899248,-4.0434217082625175,0.12851942314960615,0.436705425,-0.864804915,0.317565105,-26.20142,84.25045999999999,-31.664499999999997,67.0
1774823748.2388823,1.239776611328125e-05,2026-03-29T22:35:48.238,2026-03-29T18:35:48.238,-20326.545,-44984.295,-76309.605,-47995.155,-8240.94,-15857.955,8492.22,-61768.979999999996,-0.8483865153497696,1.8023584037933316,5.430943153988874,4.812922560522404,1.7446652121392243,-0.8042106290701387,-0.7175499798505566,2.2089087125966573,0.436705425,-0.864804915,0.317565105,-26.20142,84.25045999999999,-31.664499999999997,67.0
1774823748.244066,0.005183696746826172,2026-03-29T22:35:48.244,2026-03-29T18:35:48.244,-20325.015,-44983.979999999996,-76312.98,-48003.615,-8250.3,-15864.435,8492.31,-61763.85,-2.59120052086318,-2.271838893848402,1.2329688008199935,3.7043963282362946,1.1945510549921523,-1.4209032182595336,2.937280696652498,3.241031322828833,0.436705425,-0.864804915,0.317565105,-26.20142,84.25045999999999,-31.664499999999997,67.0
1774823748.2440815,1.5497207641601562e-05,2026-03-29T22:35:48.244,2026-03-29T18:35:48.244,-20329.829999999998,-44972.145,-76299.39,-47988.945,-8228.565,-15844.814999999999,8503.56,-61783.244999999995,-3.177907918032123,-5.629521342177629,-4.285254244355042,0.23128413986229096,-0.4087996776748529,-1.7247892416969397,5.309619388762635,2.9036872217063365,0.436705425,-0.864804915,0.317565105,-26.20142,84.25045999999999,-31.664499999999997,67.0
1774823748.251088,0.007006406784057617,2026-03-29T22:35:48.251,2026-03-29T18:35:48.251,-20333.07,-44970.615,-76297.00499999999,-48000.509999999995,-8236.35,-15848.865,8499.779999999999,-61794.945,-2.1684464859335955,-6.584749946628014,-8.42316895054354,-4.044279121106046,-2.397823801551946,-1.661200076066341,5.347272517587449,1.4562384933527524,0.4321278,-0.866880105,0.30993573,-36.59348,82.05301999999999,-32.274899999999995,67.0
1774823748.251106,1.811981201171875e-05,2026-03-29T22:35:48.251,2026-03-29T18:35:48.251,-20333.295,-44963.595,-76282.47,-48006.99,-8247.105,-15856.38,8495.91,-61799.625,0.08477987983141697,-4.490308429487276,-8.86352743935207,-6.871157739612382,-3.661302188118342,-1.1487529225864133,3.0238950294410394,-0.426613993704312,0.4321278,-0.866880105,0.30993573,-36.59348,82.05301999999999,-32.274899999999995,67.0
1774823748.2511225,1.6450881958007812e-05,2026-03-29T22:35:48.251,2026-03-29T18:35:48.251,-20321.73,-44953.92,-76274.055,-48009.645,-8246.295,-15853.68,8492.625,-61788.869999999995,2.5509113501912974,-0.13223661558803246,-4.934051154615386,-6.4877146456449655,-3.2530281087809527,-0.16861530826525692,-0.6443842747604416,-1.9692853434725675,0.4321278,-0.866880105,0.30993573,-36.59348,82.05301999999999,-32.274899999999995,67.0
1774823748.2511292,6.67572021484375e-06,2026-03-29T22:35:48.251,2026-03-29T18:35:48.251,-20313.855,-44944.11,-76261.23,-47997.9,-8241.3,-15856.109999999999,8483.895,-61779.645,3.993538899422973,4.558202885675279,1.8731396507633005,-2.652358283358086,-1.0014328046566476,1.1082817639080071,-4.0421607819455,-2.611958673772859,0.4321278,-0.866880105,0.30993573,-36.59348,82.05301999999999,-32.274899999999995,67.0
1774823748.2599156,0.008786439895629883,2026-03-29T22:35:48.259,2026-03-29T18:35:48.259,-20308.5,-44938.439999999995,-76255.785,-47979.72,-8232.345,-15855.705,8487.36,-61770.104999999996,3.5848152393018493,7.373701524042241,8.45925780965841,3.054716864430518,2.245047677330242,2.270973099205139,-5.665252881292504,-2.202162530541886,0.4321278,-0.866880105,0.30993573,-36.59348,82.05301999999999,-32.274899999999995,67.0
1774823748.259935,1.9311904907226562e-05,2026-03-29T22:35:48.259,2026-03-29T18:35:48.259,-20321.73,-44950.005,-76271.535,-47977.424999999996,-8227.619999999999,-15853.41,8491.05,-61782.39,1.3576047399345592,6.884192254926965,11.550075251607728,7.885952855050108,4.928331015144202,2.7787184701535868,-4.786727506973519,-1.003549304397969,0.4321278,-0.866880105,0.30993573,-36.59348,82.05301999999999,-32.274899999999995,67.0
1774823748.2599604,2.5510787963867188e-05,2026-03-29T22:35:48.259,2026-03-29T18:35:48.259,-20332.755,-44961.93,-76288.905,-47987.685,-8230.41,-15845.22,8499.15,-61788.465,-1.7438261119075262,3.1655003900938947,9.330112547991433,9.264395891825831,5.538613818593313,2.2167562525482523,-1.7837290055236301,0.45448452031473896,0.4321278,-0.866880105,0.30993573,-36.59348,82.05301999999999,-32.274899999999995,67.0
1774823748.2599664,5.9604644775390625e-06,2026-03-29T22:35:48.259,2026-03-29T18:35:48.259,-20338.155,-44974.575,-76297.36499999999,-47999.97,-8241.57,-15854.22,8498.205,-61784.055,-4.266078723422403,-2.1688320029610977,2.460862833845224,6.1469359050725325,3.4466006138548564,0.5744125022604953,2.022344907050429,1.605418247947085,0.4321278,-0.866880105,0.30993573,-36.59348,82.05301999999999,-32.274899999999995,67.0
1774823748.2688167,0.008850336074829102,2026-03-29T22:35:48.268,2026-03-29T18:35:48.268,-20332.98,-44967.104999999996,-76292.37,-48012.255,-8261.865,-15887.519999999999,8478.27,-61781.354999999996,-4.929507751712809,-6.677722980182337,-6.072274670905038,-0.30428508261938736,-0.6424665105320472,-1.6253132378080954,4.945759217744061,2.0565174061974645,0.4321278,-0.866880105,0.30993573,-36.59348,82.05301999999999,-32.274899999999995,67.0
1774823748.2688355,1.8835067749023438e-05,2026-03-29T22:35:48.268,2026-03-29T18:35:48.268,-20314.89,-44952.884999999995,-76278.95999999999,-48005.009999999995,-8258.76,-15888.42,8470.935,-61771.994999999995,-3.26991954988404,-8.227818045529867,-12.278580173426478,-7.14245850945575,-4.9009675536752875,-3.4632042402908114,5.682906208895156,1.7097183063975423,0.4321278,-0.866880105,0.30993573,-36.59348,82.05301999999999,-32.274899999999995,67.0
1774823748.2688525,1.6927719116210938e-05,2026-03-29T22:35:48.268,2026-03-29T18:35:48.268,-20294.954999999998,-44945.055,-76273.65,-47994.479999999996,-8242.515,-15859.26,8484.21,-61761.104999999996,0.0799966638204191,-6.018111677970815,-13.053761366029581,-11.003601860349985,-7.209552260669942,-4.011610900047853,3.895046325066663,0.7642949618009786,0.42993054,-0.88842546,0.29565354,-40.19484,81.91568,-31.14566,67.0
1774823748.2688584,5.9604644775390625e-06,2026-03-29T22:35:48.268,2026-03-29T18:35:48.268,-20303.055,-44960.805,-76291.29,-48006.314999999995,-8246.295,-15848.324999999999,8491.994999999999,-61749.494999999995,3.6281742024567722,-0.9954211386490819,-7.736659947475895,-9.77653730087308,-6.222233998681581,-2.806969679050817,0.3662198353357917,-0.3830275905250618,0.42993054,-0.88842546,0.29565354,-40.19484,81.91568,-31.14566,67.0
1774823748.273814,0.0049555301666259766,2026-03-29T22:35:48.273,2026-03-29T18:35:48.273,-20290.14,-44963.145,-76304.47499999999,-48019.905,-8259.93,-15860.789999999999,8480.744999999999,-61751.79,5.692259631375705,4.555407988514324,1.452023185015843,-3.7397277924108754,-2.126150984096475,-0.16438699591639883,-3.3383540080728724,-1.2951823848281536,0.42993054,-0.88842546,0.29565354,-40.19484,81.91568,-31.14566,67.0
