unix_time_s,dt_s,UTC,LOCAL,EMG1_Raw,EMG2_Raw,EMG3_Raw,EMG4_Raw,EMG5_Raw,EMG6_Raw,EMG7_Raw,EMG8_Raw,EMG1_Filtered,EMG2_Filtered,EMG3_Filtered,EMG4_Filtered,EMG5_Filtered,EMG6_Filtered,EMG7_Filtered,EMG8_Filtered,Accel1_Raw,Accel2_Raw,Accel3_Raw,Gyro1_Raw,Gyro2_Raw,Gyro3_Raw,Battery
1774823790.4195187,,2026-03-29T22:36:30.419,2026-03-29T18:36:30.419,-20175.975,-45449.235,-76358.205,-48092.265,-8014.7699999999995,-15956.369999999999,8566.244999999999,-59278.545,0.5718160897959329,1.0241425638816197,0.7627880177343022,-0.8932697269166341,-0.18952303519608307,-0.15565146450507766,0.7325657045982666,-0.730120085645702,0.359190975,-0.95263428,0.0708006,-6.9433,3.8607799999999997,12.055399999999999,67.0
1774823790.4195552,3.647804260253906e-05,2026-03-29T22:36:30.419,2026-03-29T18:36:30.419,-20180.52,-45450.405,-76369.41,-48095.505,-8020.349999999999,-15946.875,8561.835,-59283.27,-0.9291262262851357,-1.4486264589538707,-2.584504963936428,7.96363806973279,3.6549618682427125,2.0914496348107057,-1.4957020418978397,-1.2159437952601837,0.359190975,-0.95263428,0.0708006,-6.9433,3.8607799999999997,12.055399999999999,67.0
1774823790.419568,1.2874603271484375e-05,2026-03-29T22:36:30.419,2026-03-29T18:36:30.419,-20183.489999999998,-45448.064999999995,-76370.31,-48106.485,-8023.32,-15940.439999999999,8558.46,-59286.195,-1.8621498595029617,-3.1523499494343725,-4.650600567833188,13.318715998404981,5.896467059302608,3.3902518900457363,-3.1619660903328413,-1.0310769116122789,0.359190975,-0.95263428,0.0708006,-6.9433,3.8607799999999997,12.055399999999999,67.0
1774823790.4195733,5.245208740234375e-06,2026-03-29T22:36:30.419,2026-03-29T18:36:30.419,-20161.98,-45408.915,-76338.54,-48107.295,-8024.355,-15938.144999999999,8555.895,-59275.079999999994,-1.8726187282187083,-3.4164106229280087,-4.629103601002772,12.764963121075706,5.531911654560532,3.1893635779711116,-3.539403561938625,-0.21122185215874745,0.359190975,-0.95263428,0.0708006,-6.9433,3.8607799999999997,12.055399999999999,67.0
1774823790.4247563,0.005182981491088867,2026-03-29T22:36:30.424,2026-03-29T18:36:30.424,-20146.905,-45381.15,-76311.495,-48109.455,-8027.054999999999,-15936.39,8557.47,-59268.06,-1.0727998288873215,-2.2440984786476,-2.675915063211769,6.52524319189098,2.7135993054043306,1.6052633004535153,-2.4257142380100856,0.8375465846322667,0.359190975,-0.95263428,0.0708006,-6.9433,3.8607799999999997,12.055399999999999,67.0
1774823790.4248,4.363059997558594e-05,2026-03-29T22:36:30.424,2026-03-29T18:36:30.424,-20140.469999999998,-45383.265,-76303.215,-48096.314999999995,-8015.67,-15929.505,8570.295,-59258.25,0.06508585022405662,-0.2491523869551575,0.2339491372454023,-2.636353547544293,-1.3142687436922005,-0.6439005593486631,-0.2513683741385405,1.5376239705377945,0.359190975,-0.95263428,0.0708006,-6.9433,3.8607799999999997,12.055399999999999,67.0
1774823790.427856,0.003056049346923828,2026-03-29T22:36:30.427,2026-03-29T18:36:30.427,-20141.64,-45385.784999999996,-76295.385,-48074.895,-8003.88,-15926.039999999999,8582.445,-59252.534999999996,0.9803949613145484,1.6706686717115153,2.8039118063443134,-10.642129981381917,-4.7663121718567725,-2.5669244575824988,2.0824703101096884,1.4512548818969642,0.331236945,-0.95641845,0.075134085,-11.5976,-4.91372,20.41788,67.0
1774823790.4278817,2.574920654296875e-05,2026-03-29T22:36:30.427,2026-03-29T18:36:30.427,-20152.53,-45391.86,-76293.0,-48077.325,-8015.8949999999995,-15935.22,8582.13,-59254.02,1.3068485502353595,2.7475269629920422,4.009463581102107,-13.921331386217291,-6.109717902475882,-3.338724911777571,3.578007271175531,0.5388698074757466,0.331236945,-0.95641845,0.075134085,-11.5976,-4.91372,20.41788,67.0
1774823790.4323463,0.004464626312255859,2026-03-29T22:36:30.432,2026-03-29T18:36:30.432,-20152.98,-45395.505,-76306.905,-48094.47,-8029.53,-15944.984999999999,8578.35,-59252.04,1.0211857200911216,2.6492593304821965,3.5083392741079544,-11.008891105310834,-4.74727937025898,-2.6543864014425096,3.5716855165367707,-0.7829267447302819,0.331236945,-0.95641845,0.075134085,-11.5976,-4.91372,20.41788,67.0
1774823790.432361,1.4543533325195312e-05,2026-03-29T22:36:30.432,2026-03-29T18:36:30.432,-20152.934999999998,-45398.205,-76316.895,-48091.545,-8024.219999999999,-15943.455,8576.279999999999,-59249.924999999996,0.3961258653674409,1.5558352193977207,1.7017838364394942,-3.2040869255003352,-1.2843648053149357,-0.846273232105996,2.0339951787910726,-1.8305656638534555,0.331236945,-0.95641845,0.075134085,-11.5976,-4.91372,20.41788,67.0
1774823790.435888,0.0035271644592285156,2026-03-29T22:36:30.435,2026-03-29T18:36:30.435,-20158.559999999998,-45408.15,-76328.28,-48083.805,-8016.299999999999,-15941.07,8573.535,-59251.32,-0.19388681309919756,0.0076850240992460345,-0.5369088702345317,6.009059571369611,2.7402636290710327,1.278746131835191,-0.3996669960868114,-2.0044275667196554,0.331236945,-0.95641845,0.075134085,-11.5976,-4.91372,20.41788,67.0
1774823790.435912,2.384185791015625e-05,2026-03-29T22:36:30.435,2026-03-29T18:36:30.435,-20163.015,-45413.189999999995,-76326.03,-48073.049999999996,-8010.045,-15938.73,8569.574999999999,-59249.744999999995,-0.49068973859095566,-1.3687895485456965,-2.297044242858676,12.52167455909771,5.540184946285417,2.801544799311927,-2.690514365515206,-1.1220567232360288,0.331236945,-0.95641845,0.075134085,-11.5976,-4.91372,20.41788,67.0
1774823790.4436636,0.0077517032623291016,2026-03-29T22:36:30.443,2026-03-29T18:36:30.443,-20158.515,-45408.78,-76320.58499999999,-48074.715,-8012.79,-15939.945,8568.585,-59242.365,-0.46968727880740724,-2.116006153963849,-3.006624645563334,13.440334473085702,5.877317130024551,3.088738670730767,-3.8435223199623008,0.44808289013649094,0.331236945,-0.95641845,0.075134085,-11.5976,-4.91372,20.41788,67.0
1774823790.4436798,1.621246337890625e-05,2026-03-29T22:36:30.443,2026-03-29T18:36:30.443,-20158.245,-45410.67,-76319.37,-48083.625,-8023.32,-15948.045,8563.23,-59237.189999999995,-0.30104226321886907,-2.0758308594110817,-2.5913441860597914,8.38033269419073,3.6122067714741815,2.0539583874764054,-3.346240922072275,1.9384564594634193,0.331236945,-0.95641845,0.075134085,-11.5976,-4.91372,20.41788,67.0
1774823790.4436924,1.2636184692382812e-05,2026-03-29T22:36:30.443,2026-03-29T18:36:30.443,-20157.84,-45415.034999999996,-76329.405,-48097.71,-8035.245,-15959.205,8559.225,-59229.18,-0.19561518030532155,-1.3729708898282953,-1.3897579776361966,-0.3697780919285878,-0.23730742421245343,0.17592733486253712,-1.4027761566648147,2.5584803381276284,0.331236945,-0.95641845,0.075134085,-11.5976,-4.91372,20.41788,67.0
1774823790.4436972,4.76837158203125e-06,2026-03-29T22:36:30.443,2026-03-29T18:36:30.443,-20159.91,-45412.604999999996,-76327.02,-48094.83,-8034.705,-15959.34,8559.135,-59228.954999999994,-0.24311908768908475,-0.30257407029482,0.07905059805820167,-8.884930464386825,-3.954378703472815,-1.724483631120064,1.1467720252746652,1.9099017792382047,0.331236945,-0.95641845,0.075134085,-11.5976,-4.91372,20.41788,67.0
1774823790.4507833,0.007086038589477539,2026-03-29T22:36:30.450,2026-03-29T18:36:30.450,-20170.844999999998,-45410.04,-76319.81999999999,-48089.34,-8023.905,-15946.154999999999,8564.445,-59250.96,-0.34909818939112625,0.7975045565893701,1.3483466402814712,-13.37169065744022,-5.8917700242818185,-2.8435922010734367,3.1916170990917494,0.22454739820232275,0.30236739,-0.97594965,0.07531719,-4.3491,-11.04824,31.26774,67.0
1774823790.4508102,2.6941299438476562e-05,2026-03-29T22:36:30.450,2026-03-29T18:36:30.450,-20170.125,-45414.134999999995,-76328.325,-48101.534999999996,-8025.705,-15949.26,8565.255,-59245.875,-0.3112103358873702,1.6324402501687107,2.1282817814168924,-11.868270090383511,-5.205450570920503,-2.7330682421403067,3.8407683122059715,-1.7117291661847598,0.30236739,-0.97594965,0.07531719,-4.3491,-11.04824,31.26774,67.0
1774823790.4601812,0.009371042251586914,2026-03-29T22:36:30.460,2026-03-29T18:36:30.460,-20162.34,-45406.935,-76323.95999999999,-48102.21,-8025.974999999999,-15949.349999999999,8572.949999999999,-59229.54,0.015543163814148941,1.986773085954463,2.30431331814662,-5.1099708601267055,-2.224791881805645,-1.475654202992197,2.8192424180408957,-2.9282347377204783,0.30236739,-0.97594965,0.07531719,-4.3491,-11.04824,31.26774,67.0
1774823790.4601965,1.52587890625e-05,2026-03-29T22:36:30.460,2026-03-29T18:36:30.460,-20167.065,-45407.43,-76312.17,-48070.439999999995,-8012.16,-15940.394999999999,8574.615,-59222.34,0.5753793397720314,1.7422442769006758,1.8733927101522156,3.825587756706803,1.7042496622975944,0.36810450684839024,0.5901046712850523,-2.756951232688947,0.30236739,-0.97594965,0.07531719,-4.3491,-11.04824,31.26774,67.0
1774823790.4602084,1.1920928955078125e-05,2026-03-29T22:36:30.460,2026-03-29T18:36:30.460,-20160.315,-45403.244999999995,-76309.29,-48041.865,-7999.469999999999,-15932.789999999999,8577.449999999999,-59209.604999999996,1.093167742355128,0.9088597691118563,0.9039318685673033,10.92450448806728,4.8288567956088935,2.010138363746342,-1.8546406799519282,-1.1928774998310294,0.30236739,-0.97594965,0.07531719,-4.3491,-11.04824,31.26774,67.0
1774823790.4602132,4.76837158203125e-06,2026-03-29T22:36:30.460,2026-03-29T18:36:30.460,-20166.57,-45416.79,-76335.39,-48044.7,-8007.344999999999,-15944.445,8569.125,-59214.06,1.2104217591561335,-0.3328238795384272,-0.43991576568148566,13.049718892571665,5.774909989155117,2.7701113862308118,-3.4404358828654376,1.0649645419885694,0.30236739,-0.97594965,0.07531719,-4.3491,-11.04824,31.26774,67.0
1774823790.4602191,5.9604644775390625e-06,2026-03-29T22:36:30.460,2026-03-29T18:36:30.460,-20170.305,-45413.369999999995,-76335.56999999999,-48053.025,-8011.349999999999,-15945.029999999999,8562.105,-59217.524999999994,0.7081601047571668,-1.6195176154207536,-1.8450612129073827,9.337698282711608,4.1546477914580695,2.3539044062151366,-3.490886978215391,2.9289659080129153,0.30236739,-0.97594965,0.07531719,-4.3491,-11.04824,31.26774,67.0
1774823790.4602227,3.5762786865234375e-06,2026-03-29T22:36:30.460,2026-03-29T18:36:30.460,-20163.015,-45397.439999999995,-76328.91,-48101.22,-8021.16,-15937.83,8569.485,-59206.994999999995,-0.31447097223737086,-2.4743565107146654,-2.8517319708259774,1.5519594897367135,0.7261242082884078,0.963308828534355,-2.0239276259297525,3.4510353332907298,0.30236739,-0.97594965,0.07531719,-4.3491,-11.04824,31.26774,67.0
1774823790.4631152,0.0028924942016601562,2026-03-29T22:36:30.463,2026-03-29T18:36:30.463,-20161.17,-45392.759999999995,-76326.03,-48152.744999999995,-8042.67,-15949.349999999999,8567.369999999999,-59202.314999999995,-1.4256378317758989,-2.4726912501302682,-2.9772833715108025,-6.75290567959128,-2.9613933439692866,-0.8014349792360649,0.2700101979777848,2.3049349740408775,0.30236739,-0.97594965,0.07531719,-4.3491,-11.04824,31.26774,67.0
1774823790.4631307,1.5497207641601562e-05,2026-03-29T22:36:30.463,2026-03-29T18:36:30.463,-20164.14,-45408.915,-76343.94,-48167.055,-8058.33,-15964.74,8570.295,-59196.689999999995,-2.0451324962454667,-1.453748805654503,-1.9466457444713445,-11.861097373050269,-5.270127093641454,-2.1991557711913092,2.3538931765767463,-0.022828471933851055,0.30236739,-0.97594965,0.07531719,-4.3491,-11.04824,31.26774,67.0
1774823790.4672563,0.0041255950927734375,2026-03-29T22:36:30.467,2026-03-29T18:36:30.467,-20167.02,-45411.705,-76335.20999999999,-48142.439999999995,-8060.625,-15965.82,8574.66,-59191.064999999995,-1.7478988181364092,0.32770005293295723,0.08017700638516213,-11.568817384293018,-5.204584767780661,-2.65561313887446,3.3198736943094285,-2.4411139796024437,0.288756585,-1.006039905,0.07434063,13.2762,-16.28242,40.01172,67.0
1774823790.4672644,8.106231689453125e-06,2026-03-29T22:36:30.467,2026-03-29T18:36:30.467,-20167.155,-45409.77,-76322.295,-48113.055,-8045.73,-15956.685,8576.955,-59183.865,-0.5275730040407738,2.2174863565522096,2.4358645053776153,-6.142510072711328,-2.8427759140884685,-1.9957342957324267,2.79359586144862,-3.7715076025499847,0.288756585,-1.006039905,0.07434063,13.2762,-16.28242,40.01172,67.0
1774823790.4717932,0.00452876091003418,2026-03-29T22:36:30.471,2026-03-29T18:36:30.471,-20165.625,-45395.189999999995,-76296.69,-48077.82,-8023.815,-15960.465,8573.94,-59178.555,1.134950784355372,3.387244303562318,4.130892240843815,1.8579546155451114,0.7197927150497332,-0.5084738969773765,1.0828061475959843,-3.3269246008025144,0.288756585,-1.006039905,0.07434063,13.2762,-16.28242,40.01172,67.0
1774823790.4718163,2.3126602172851562e-05,2026-03-29T22:36:30.471,2026-03-29T18:36:30.471,-20166.344999999998,-45390.689999999995,-76288.815,-48070.53,-8018.37,-15962.13,8565.885,-59171.85,2.4603388312660677,3.200492775650049,4.267877758019129,8.78723980384137,3.878918336608227,1.1782679880256868,-0.9909258610120414,-1.2653115692272374,0.288756585,-1.006039905,0.07434063,13.2762,-16.28242,40.01172,67.0
1774823790.475159,0.0033426284790039062,2026-03-29T22:36:30.475,2026-03-29T18:36:30.475,-20173.32,-45407.924999999996,-76310.955,-48079.89,-8023.679999999999,-15957.18,8557.92,-59166.63,2.7432784064755915,1.556463044292249,2.5126308805313604,11.583085468887836,5.2464833814516725,2.35914348684387,-2.489075373352941,1.463363540332891,0.288756585,-1.006039905,0.07434063,13.2762,-16.28242,40.01172,67.0
1774823790.4751813,2.2411346435546875e-05,2026-03-29T22:36:30.475,2026-03-29T18:36:30.475,-20180.655,-45408.689999999995,-76311.405,-48070.979999999996,-8012.7,-15937.289999999999,8565.975,-59173.244999999995,1.727269290802947,-0.9730947348759462,-0.6237813516408603,9.12821862315232,4.262582428851034,2.5422847716648636,-2.7888791323703646,3.560893081930286,0.288756585,-1.006039905,0.07434063,13.2762,-16.28242,40.01172,67.0
1774823790.4913623,0.016180992126464844,2026-03-29T22:36:30.491,2026-03-29T18:36:30.491,-20180.745,-45426.869999999995,-76333.185,-48083.49,-8022.509999999999,-15943.59,8570.07,-59160.645,-0.21736244653999146,-3.321597086410624,-3.8832173829726444,2.696224813471981,1.424159137107882,1.6519404092405083,-1.8487861101597198,4.005324285631612,0.288756585,-1.006039905,0.07434063,13.2762,-16.28242,40.01172,67.0
1774823790.491382,1.9550323486328125e-05,2026-03-29T22:36:30.491,2026-03-29T18:36:30.491,-20188.53,-45442.575,-76345.65,-48098.384999999995,-8035.245,-15956.369999999999,8571.96,-59147.729999999996,-2.22330501073555,-4.378290968439354,-5.757891748052187,-4.6958832395520895,-1.962667182625686,0.06070026045082752,-0.19010827346150647,2.552659919099368,0.288756585,-1.006039905,0.07434063,13.2762,-16.28242,40.01172,67.0
1774823790.4914231,4.124641418457031e-05,2026-03-29T22:36:30.491,2026-03-29T18:36:30.491,-20199.329999999998,-45414.765,-76315.95,-48079.665,-8016.03,-15940.89,8580.96,-59168.024999999994,-3.3214169439061734,-3.5211882876958738,-5.194579561315622,-9.703583094114313,-4.384107616533234,-1.562743346231713,1.3822317355199651,-0.1322888847372329,0.288756585,-1.006039905,0.07434063,13.2762,-16.28242,40.01172,67.0
1774823790.4914303,7.152557373046875e-06,2026-03-29T22:36:30.491,2026-03-29T18:36:30.491,-20183.579999999998,-45399.78,-76315.36499999999,-48090.869999999995,-8021.88,-15945.119999999999,8578.35,-59169.375,-2.9171913733209127,-0.973154717972289,-2.1737393102195,-10.17400828986074,-4.796621432665316,-2.5300374573691276,2.1735686194451316,-2.7850442927555634,0.288756585,-1.006039905,0.07434063,13.2762,-16.28242,40.01172,67.0
1774823790.4914386,8.344650268554688e-06,2026-03-29T22:36:30.491,2026-03-29T18:36:30.491,-20179.079999999998,-45409.229999999996,-76327.73999999999,-48099.78,-8025.974999999999,-15945.345,8574.66,-59169.645,-1.1106042550429749,2.218841350278373,2.1499379703207926,-6.075823984359082,-3.0771275693765103,-2.422022812694414,1.9137975764174413,-4.144642949874477,0.30517500000000003,-1.022153145,0.0756834,34.823319999999995,-18.63246,44.34556,67.0
1774823790.4914448,6.198883056640625e-06,2026-03-29T22:36:30.491,2026-03-29T18:36:30.491,-20157.255,-45404.595,-76327.02,-48104.865,-8034.21,-15951.689999999999,8573.355,-59153.085,1.3120628214459058,4.611389183591239,5.8729181661571035,0.5632296483783784,-0.0513468149415977,-1.2704928496684134,0.8464226034428621,-3.559696296279215,0.30517500000000003,-1.022153145,0.0756834,34.823319999999995,-18.63246,44.34556,67.0
1774823790.4936159,0.002171039581298828,2026-03-29T22:36:30.493,2026-03-29T18:36:30.493,-20158.11,-45400.14,-76318.245,-48098.564999999995,-8033.49,-15949.755,8577.315,-59144.759999999995,3.227679220110326,5.026059169963234,7.186635296559213,6.649615168131211,2.900378563419822,0.4458950898278491,-0.4357156161958867,-1.3030389965906968,0.30517500000000003,-1.022153145,0.0756834,34.823319999999995,-18.63246,44.34556,67.0
1774823790.4936304,1.4543533325195312e-05,2026-03-29T22:36:30.493,2026-03-29T18:36:30.493,-20165.085,-45410.354999999996,-76331.06999999999,-48107.97,-8042.3099999999995,-15957.765,8572.86,-59142.555,3.7081756560212007,3.137434666252137,5.26303925191119,9.464774511484247,4.47226663025522,1.995521040700117,-1.3101150056916342,1.5582100224754603,0.30517500000000003,-1.022153145,0.0756834,34.823319999999995,-18.63246,44.34556,67.0
1774823790.495416,0.0017855167388916016,2026-03-29T22:36:30.495,2026-03-29T18:36:30.495,-20163.285,-45414.225,-76334.355,-48103.92,-8037.045,-15956.324999999999,8572.185,-59132.43,2.4778744421551626,-0.3088646414651801,0.7454413327452134,7.8825328444638085,4.010678790696399,2.7017347544750883,-1.4305480786177522,3.674120036834911,0.30517500000000003,-1.022153145,0.0756834,34.823319999999995,-18.63246,44.34556,67.0
1774823790.4954305,1.4543533325195312e-05,2026-03-29T22:36:30.495,2026-03-29T18:36:30.495,-20165.219999999998,-45425.43,-76352.44499999999,-48102.39,-8039.34,-15960.644999999999,8565.615,-59122.305,0.06750474317125658,-3.7832862435752848,-4.435241425186603,2.817122423594714,1.7849135772732159,2.237334122211739,-0.8672787224137303,4.05677349168013,0.30517500000000003,-1.022153145,0.0756834,34.823319999999995,-18.63246,44.34556,67.0
1774823790.501754,0.006323575973510742,2026-03-29T22:36:30.501,2026-03-29T18:36:30.501,-20181.87,-45435.24,-76360.77,-48090.24,-8023.545,-15946.019999999999,8572.095,-59139.134999999995,-2.4196747719880562,-5.65821618533309,-7.886748153153582,-3.274312316019493,-1.160084260375285,0.7780052331515215,-0.022948659020623405,2.5468956866313843,0.30517500000000003,-1.022153145,0.0756834,34.823319999999995,-18.63246,44.34556,67.0
1774823790.5017688,1.4781951904296875e-05,2026-03-29T22:36:30.501,2026-03-29T18:36:30.501,-20192.355,-45440.235,-76365.855,-48096.494999999995,-8020.3949999999995,-15940.89,8575.83,-59148.36,-3.824162337802144,-4.9817310609702155,-7.870264491770733,-7.573272750652192,-3.49140982896282,-1.0580154073744927,0.6156019685435872,-0.12053172324961238,0.30517500000000003,-1.022153145,0.0756834,34.823319999999995,-18.63246,44.34556,67.0
1774823790.5017817,1.2874603271484375e-05,2026-03-29T22:36:30.501,2026-03-29T18:36:30.501,-20182.995,-45430.02,-76358.47499999999,-48130.29,-8044.38,-15957.0,8572.23,-59132.204999999994,-3.482119441598818,-1.9663351792682267,-4.1797533493818415,-8.201028335204677,-4.189734046772777,-2.467135395795313,0.7472553482277896,-2.6782859881968033,0.30517500000000003,-1.022153145,0.0756834,34.823319999999995,-18.63246,44.34556,67.0
1774823790.501786,4.291534423828125e-06,2026-03-29T22:36:30.501,2026-03-29T18:36:30.501,-20167.92,-45411.84,-76333.68,-48139.155,-8056.3949999999995,-15968.789999999999,8567.369999999999,-59118.345,-1.5451113184333707,2.0602450419194396,1.659846122701869,-5.040194844971767,-2.9941418150030557,-2.8099939947419355,0.4022097025425548,-3.9364109767958726,0.30517500000000003,-1.022153145,0.0756834,34.823319999999995,-18.63246,44.34556,67.0
1774823790.507733,0.005947113037109375,2026-03-29T22:36:30.507,2026-03-29T18:36:30.507,-20180.204999999998,-45421.56,-76329.72,-48110.985,-8037.585,-15959.385,8566.605,-59139.899999999994,1.0889323816574377,5.243558146379314,7.016752725430742,0.2818763782367985,-0.49690415036646934,-1.9024577623102639,-0.10875051411478709,-3.3427523086441497,0.325255515,-1.0053074850000001,0.07397442,42.6517,-22.386419999999998,48.2979,67.0
1774823790.5077567,2.3603439331054688e-05,2026-03-29T22:36:30.507,2026-03-29T18:36:30.507,-20183.94,-45420.03,-76317.66,-48078.27,-8016.075,-15942.24,8578.35,-59146.155,3.2011538402422763,6.067473742507612,9.346389639613184,5.210254714102895,2.1444979490519223,-0.1151455656493682,-0.40294534745388016,-1.227381730541234,0.325255515,-1.0053074850000001,0.07397442,42.6517,-22.386419999999998,48.2979,67.0
1774823790.5140064,0.006249666213989258,2026-03-29T22:36:30.514,2026-03-29T18:36:30.514,-20163.69,-45393.075,-76287.87,-48072.42,-8019.764999999999,-15946.47,8579.744999999999,-59121.27,3.827875185097552,4.087200577103342,7.409867410443148,7.476757440204371,3.739962459191977,1.7724025829838868,-0.2675417769007706,1.378210046539853,0.325255515,-1.0053074850000001,0.07397442,42.6517,-22.386419999999998,48.2979,67.0
1774823790.5140162,9.775161743164062e-06,2026-03-29T22:36:30.514,2026-03-29T18:36:30.514,-20161.395,-45396.72,-76292.64,-48081.78,-8028.8099999999995,-15952.904999999999,8578.619999999999,-59112.54,2.7096468465149592,0.17117734380182478,1.9293470437586977,6.139126646834135,3.600621668802252,2.908659398605596,0.20669818701914386,3.2491365805561707,0.325255515,-1.0053074850000001,0.07397442,42.6517,-22.386419999999998,48.2979,67.0
1774823790.5140252,9.059906005859375e-06,2026-03-29T22:36:30.514,2026-03-29T18:36:30.514,-20161.844999999998,-45409.905,-76316.04,-48091.049999999996,-8032.094999999999,-15954.39,8577.315,-59103.27,0.39977959731810564,-3.8798600698311954,-4.6643161745273245,1.9715599079690156,1.8358127376666689,2.7540763473975245,0.6781395862589049,3.5499421722803124,0.325255515,-1.0053074850000001,0.07397442,42.6517,-22.386419999999998,48.2979,67.0
1774823790.5140295,4.291534423828125e-06,2026-03-29T22:36:30.514,2026-03-29T18:36:30.514,-20157.165,-45402.119999999995,-76312.17,-48088.034999999996,-8033.3099999999995,-15956.369999999999,8573.76,-59094.63,-2.0135038911819527,-6.169398223270961,-9.313198126222938,-2.9537771158978043,-0.7143076855606638,1.3389761253731762,0.7650988689708766,2.2117955629264054,0.325255515,-1.0053074850000001,0.07397442,42.6517,-22.386419999999998,48.2979,67.0
1774823790.5196693,0.005639791488647461,2026-03-29T22:36:30.519,2026-03-29T18:36:30.519,-20152.035,-45394.335,-76304.655,-48081.689999999995,-8031.915,-15958.08,8570.61,-59090.22,-3.4300192956718516,-5.604635718503611,-9.760121907802377,-6.276859957100498,-2.8730248053652794,-0.7287265120701923,0.29409113552172195,-0.06808952245512993,0.325255515,-1.0053074850000001,0.07397442,42.6517,-22.386419999999998,48.2979,67.0
1774823790.5196812,1.1920928955078125e-05,2026-03-29T22:36:30.519,2026-03-29T18:36:30.519,-20156.355,-45398.52,-76314.23999999999,-48089.924999999996,-8036.1449999999995,-15963.705,8569.71,-59097.555,-3.2498483503267934,-2.427129238165643,-5.651670881514022,-6.466571288888851,-3.6655076910858213,-2.5209503028693834,-0.5613382556626256,-2.1892660426269597,0.325255515,-1.0053074850000001,0.07397442,42.6517,-22.386419999999998,48.2979,67.0
1774823790.523768,0.004086732864379883,2026-03-29T22:36:30.523,2026-03-29T18:36:30.523,-20170.079999999998,-45399.33,-76307.48999999999,-48084.39,-8028.315,-15955.244999999999,8573.715,-59113.71,-1.6315830897898254,1.886800579251152,1.2252419527013023,-3.52160537562983,-2.757193061488992,-3.20499123608979,-1.3417108422000916,-3.184404608701732,0.325255515,-1.0053074850000001,0.07397442,42.6517,-22.386419999999998,48.2979,67.0
1774823790.5237815,1.3589859008789062e-05,2026-03-29T22:36:30.523,2026-03-29T18:36:30.523,-20168.505,-45400.14,-76308.48,-48090.42,-8031.915,-15955.92,8572.725,-59107.32,0.616486608025061,5.3166193145428275,7.7186063043196445,1.0627197719374057,-0.5960527770504007,-2.4315651937481406,-1.5429139910984646,-2.665471804165585,0.325255515,-1.0053074850000001,0.07397442,42.6517,-22.386419999999998,48.2979,67.0
1774823790.5276673,0.0038857460021972656,2026-03-29T22:36:30.527,2026-03-29T18:36:30.527,-20165.13,-45400.905,-76309.2,-48089.43,-8030.745,-15952.724999999999,8574.164999999999,-59098.14,2.4447679015017765,6.253712738416596,10.762712505227588,5.032719354988919,1.802098692600853,-0.5138472862850731,-0.9129555671974677,-0.9716881644076636,0.336974235,-0.97924554,0.073058895,41.94974,-26.20142,52.60122,67.0
1774823790.5276806,1.33514404296875e-05,2026-03-29T22:36:30.527,2026-03-29T18:36:30.527,-20167.695,-45406.845,-76319.685,-48096.494999999995,-8033.085,-15951.644999999999,8576.01,-59093.82,3.06202192865227,4.26615729294336,8.83419415513696,6.462637648648839,3.3247884827135166,1.694620532846864,0.36181740652126404,1.0351027720088526,0.336974235,-0.97924554,0.073058895,41.94974,-26.20142,52.60122,67.0
1774823790.5372236,0.00954294204711914,2026-03-29T22:36:30.537,2026-03-29T18:36:30.537,-20168.864999999998,-45412.064999999995,-76329.495,-48101.13,-8029.799999999999,-15946.154999999999,8577.494999999999,-59091.119999999995,2.2842195726299517,0.30405266643600837,2.7175300506398763,4.673852428862954,3.274795099800082,3.1783337378057395,1.698288808368109,2.4096258413439453,0.336974235,-0.97924554,0.073058895,41.94974,-26.20142,52.60122,67.0
1774823790.537256,3.24249267578125e-05,2026-03-29T22:36:30.537,2026-03-29T18:36:30.537,-20171.61,-45417.06,-76335.93,-48103.92,-8031.105,-15948.314999999999,8576.91,-59090.13,0.5758713736289612,-3.7547035755153857,-4.805406746573473,0.5545223033474919,1.6892092729772616,3.22752137115201,2.386042390653503,2.5727285562926006,0.336974235,-0.97924554,0.073058895,41.94974,-26.20142,52.60122,67.0
1774823790.5372877,3.170967102050781e-05,2026-03-29T22:36:30.537,2026-03-29T18:36:30.537,-20171.52,-45416.34,-76328.64,-48094.784999999996,-8029.53,-15950.97,8575.335,-59087.564999999995,-1.2158486128589723,-6.000603880071925,-10.223291160041093,-3.8694852980734953,-0.6801678123678991,1.7792437814232047,1.9590863490999515,1.555601221304655,0.336974235,-0.97924554,0.073058895,41.94974,-26.20142,52.60122,67.0
1774823790.5373046,1.6927719116210938e-05,2026-03-29T22:36:30.537,2026-03-29T18:36:30.537,-20167.11,-45406.979999999996,-76307.12999999999,-48079.35,-8026.424999999999,-15952.635,8572.32,-59082.704999999994,-2.2858643516133386,-5.399990294335365,-10.941338966450266,-6.4094595298038195,-2.7166702835274963,-0.5329385557916667,0.4774732496056854,-0.0641984207756758,0.336974235,-0.97924554,0.073058895,41.94974,-26.20142,52.60122,67.0
1774823790.5543327,0.017028093338012695,2026-03-29T22:36:30.554,2026-03-29T18:36:30.554,-20167.605,-45409.545,-76317.345,-48089.159999999996,-8035.514999999999,-15957.9,8570.789999999999,-59080.005,-2.239933585660926,-2.278443776830081,-6.530542072485295,-5.7737884775604025,-3.459006833306536,-2.654360527308978,-1.4415011144274714,-1.4817880235062701,0.336974235,-0.97924554,0.073058895,41.94974,-26.20142,52.60122,67.0
1774823790.5543523,1.9550323486328125e-05,2026-03-29T22:36:30.554,2026-03-29T18:36:30.554,-20163.105,-45410.174999999996,-76322.47499999999,-48085.064999999995,-8033.985,-15956.324999999999,8567.955,-59068.845,-1.2354121332376127,1.8492111060886427,1.023873972887493,-2.2087025434326266,-2.552248785247773,-3.591013380984806,-2.882728321606266,-2.065947606755327,0.336974235,-0.97924554,0.073058895,41.94974,-26.20142,52.60122,67.0
1774823790.5543652,1.2874603271484375e-05,2026-03-29T22:36:30.554,2026-03-29T18:36:30.554,-20163.105,-45413.909999999996,-76331.11499999999,-48083.4,-8025.12,-15955.244999999999,8564.805,-59068.979999999996,0.15343182628947727,5.0154299202933705,8.21496254596462,2.591911236078888,-0.4192044506888862,-2.877211132781493,-3.073359484404408,-1.6417733849183138,0.336974235,-0.97924554,0.073058895,41.94974,-26.20142,52.60122,67.0
1774823790.5543697,4.5299530029296875e-06,2026-03-29T22:36:30.554,2026-03-29T18:36:30.554,-20159.37,-45406.89,-76323.825,-48098.79,-8032.005,-15957.224999999999,8569.395,-59061.06,1.254314333725476,5.743824923234413,11.646499884281864,6.277652053332395,1.9313615467570007,-0.8080237213662668,-1.7903651743118814,-0.5278523303627808,0.336974235,-0.97924554,0.073058895,41.94974,-26.20142,52.60122,67.0
1774823790.554375,5.245208740234375e-06,2026-03-29T22:36:30.554,2026-03-29T18:36:30.554,-20158.965,-45406.215,-76318.73999999999,-48103.47,-8029.755,-15949.98,8577.855,-59060.79,1.6261886941468897,3.744723108118765,9.643282446183497,6.970090168089734,3.3753048433435975,1.6801829274279858,0.47685989160670034,0.6686759339312964,0.34680087,-0.963925755,0.06445296,36.227239999999995,-30.932019999999998,54.34086,67.0
1774823790.5543792,4.291534423828125e-06,2026-03-29T22:36:30.554,2026-03-29T18:36:30.554,-20158.065,-45403.83,-76313.655,-48103.604999999996,-8034.299999999999,-15953.58,8579.205,-59064.075,1.2360482456762294,0.031586873539593704,3.072957123743529,4.195740279060222,3.2059422264380237,3.434351398746932,2.710742494915982,1.3767568134233235,0.34680087,-0.963925755,0.06445296,36.227239999999995,-30.932019999999998,54.34086,67.0
1774823790.5543838,4.5299530029296875e-06,2026-03-29T22:36:30.554,2026-03-29T18:36:30.554,-20158.605,-45405.945,-76320.855,-48099.375,-8030.745,-15951.51,8578.89,-59069.97,0.4126646204838739,-3.588963495511036,-5.025289649720367,-0.8308178620715305,1.4786256451529247,3.6215878852694847,3.8286392144907078,1.3344202084692534,0.34680087,-0.963925755,0.06445296,36.227239999999995,-30.932019999999998,54.34086,67.0
1774823790.5543873,3.5762786865234375e-06,2026-03-29T22:36:30.554,2026-03-29T18:36:30.554,-20158.2,-45410.759999999995,-76326.075,-48099.869999999995,-8030.924999999999,-15955.695,8575.56,-59066.64,-0.37324862552748356,-5.397891975475843,-10.848422904349476,-5.731817122456946,-1.000617589594216,2.1269789388125675,3.211235115260531,0.6795062609768002,0.34680087,-0.963925755,0.06445296,36.227239999999995,-30.932019999999998,54.34086,67.0
1774823790.5589619,0.00457453727722168,2026-03-29T22:36:30.558,2026-03-29T18:36:30.558,-20157.57,-45411.659999999996,-76324.14,-48090.33,-8026.0199999999995,-15954.705,8573.985,-59063.895,-0.7689783254287854,-4.584697745748483,-11.62054767021938,-8.076298488666191,-3.045681209823989,-0.379021274956509,1.0367857315260571,-0.1692881731271075,0.34680087,-0.963925755,0.06445296,36.227239999999995,-30.932019999999998,54.34086,67.0
1774823790.5590389,7.700920104980469e-05,2026-03-29T22:36:30.559,2026-03-29T18:36:30.559,-20161.125,-45411.39,-76317.795,-48080.7,-8017.65,-15947.369999999999,8575.11,-59063.534999999996,-0.6994442788261781,-1.6142807488712843,-6.921315007454827,-6.563654888040905,-3.652608992080403,-2.74230002564584,-1.7560698642502968,-0.7597060367639082,0.34680087,-0.963925755,0.06445296,36.227239999999995,-30.932019999999998,54.34086,67.0
1774823790.564562,0.005523204803466797,2026-03-29T22:36:30.564,2026-03-29T18:36:30.564,-20160.54,-45401.265,-76302.18,-48077.28,-8016.03,-15946.515,8572.815,-59062.32,-0.3539284159204324,2.027886531483056,1.086302011675625,-1.7130877404352662,-2.4892669485810206,-3.8598776402263066,-3.879112760280877,-0.8419246116197595,0.34680087,-0.963925755,0.06445296,36.227239999999995,-30.932019999999998,54.34086,67.0
1774823790.564587,2.5033950805664062e-05,2026-03-29T22:36:30.564,2026-03-29T18:36:30.564,-20149.515,-45385.83,-76288.05,-48068.009999999995,-8010.36,-15943.23,8571.6,-59053.274999999994,-0.028187709893965854,4.575994672111613,8.65158104103555,4.295999971267254,-0.07473025805601542,-3.1984061673727577,-4.2965973891277,-0.47198214575720965,0.34680087,-0.963925755,0.06445296,36.227239999999995,-30.932019999999998,54.34086,67.0
1774823790.5646105,2.3365020751953125e-05,2026-03-29T22:36:30.564,2026-03-29T18:36:30.564,-20142.225,-45392.67,-76298.58,-48075.615,-8018.1449999999995,-15953.535,8568.72,-59043.284999999996,0.0725630030080655,4.841186433050907,12.196635916525853,8.595843595853554,2.447868018730485,-1.0506472813098375,-2.7337489625525766,0.05866659072361947,0.34680087,-0.963925755,0.06445296,36.227239999999995,-30.932019999999998,54.34086,67.0
1774823790.5646203,9.775161743164062e-06,2026-03-29T22:36:30.564,2026-03-29T18:36:30.564,-20150.01,-45403.2,-76306.41,-48077.369999999995,-8023.23,-15960.42,8566.38,-59045.805,-0.04865530014908286,2.7688088276010467,10.01367208299483,8.985301559413411,3.848309768874144,1.5946764983657136,0.15931993944044265,0.41331247350734857,0.34680087,-0.963925755,0.06445296,36.227239999999995,-30.932019999999998,54.34086,67.0
1774823790.5685463,0.00392603874206543,2026-03-29T22:36:30.568,2026-03-29T18:36:30.568,-20160.315,-45420.03,-76329.045,-48085.11,-8024.985,-15958.89,8569.305,-59055.704999999994,-0.2061220547400308,-0.566730764477207,3.091207367805052,5.03358743334826,3.4059457807483473,3.5118666534129908,3.080990406861927,0.4059977126573158,0.373229025,-0.959653305,0.05102526,36.36458,-30.39792,55.210679999999996,67.0
1774823790.5685587,1.239776611328125e-05,2026-03-29T22:36:30.568,2026-03-29T18:36:30.568,-20164.23,-45431.909999999996,-76344.20999999999,-48106.755,-8034.929999999999,-15957.63,8573.58,-59054.445,-0.1760578815367364,-3.51309182688305,-5.33220149581476,-1.612577297456671,1.27789965508621,3.8113365870064273,4.672433419046429,0.09479913329495902,0.373229025,-0.959653305,0.05102526,36.36458,-30.39792,55.210679999999996,67.0
1774823790.5713637,0.002804994583129883,2026-03-29T22:36:30.571,2026-03-29T18:36:30.571,-20161.395,-45428.04,-76332.465,-48108.915,-8038.125,-15954.615,8578.529999999999,-59043.465,0.13412624892105593,-4.65619273035787,-11.286030729444718,-7.908156107691082,-1.548656522498881,2.356290721282497,4.1575515093406805,-0.2726249913710777,0.373229025,-0.959653305,0.05102526,36.36458,-30.39792,55.210679999999996,67.0
1774823790.5713806,1.6927719116210938e-05,2026-03-29T22:36:30.571,2026-03-29T18:36:30.571,-20163.69,-45430.965,-76333.95,-48111.479999999996,-8040.24,-15951.195,8576.279999999999,-59034.465,0.5997100019407257,-3.498749924498531,-11.944597342383787,-10.800073638528243,-3.7116211105297965,-0.17436581953589012,1.7236597662124973,-0.42179744741333874,0.373229025,-0.959653305,0.05102526,36.36458,-30.39792,55.210679999999996,67.0
1774823790.5757704,0.004389762878417969,2026-03-29T22:36:30.575,2026-03-29T18:36:30.575,-20159.594999999998,-45422.775,-76340.565,-48114.99,-8035.469999999999,-15949.439999999999,8576.955,-59042.924999999996,0.9332137303578492,-0.675391132388551,-6.972778676853129,-8.696627509493178,-4.128385007079854,-2.6064390313980184,-1.544803553878118,-0.22435583170426138,0.373229025,-0.959653305,0.05102526,36.36458,-30.39792,55.210679999999996,67.0
1774823790.5757928,2.2411346435546875e-05,2026-03-29T22:36:30.575,2026-03-29T18:36:30.575,-20145.6,-45403.74,-76330.215,-48110.13,-8032.815,-15950.925,8576.73,-59035.905,0.8530350391887397,2.3879043380282177,1.302753156180155,-2.313001062201634,-2.5360041088429233,-3.8215500341147326,-4.157032651874143,0.21924843225677265,0.373229025,-0.959653305,0.05102526,36.36458,-30.39792,55.210679999999996,67.0
1774823790.5836728,0.007879972457885742,2026-03-29T22:36:30.583,2026-03-29T18:36:30.583,-20137.77,-45403.92,-76329.495,-48107.924999999996,-8036.37,-15957.81,8575.515,-59022.36,0.2698148127671994,4.189715241179983,8.984851674231138,5.546481759780109,0.3520708892194455,-3.2773399989139125,-4.905473408704209,0.6343570088363447,0.373229025,-0.959653305,0.05102526,36.36458,-30.39792,55.210679999999996,67.0
1774823790.5837104,3.7670135498046875e-05,2026-03-29T22:36:30.583,2026-03-29T18:36:30.583,-20137.364999999998,-45412.244999999995,-76334.44499999999,-48107.295,-8039.88,-15961.455,8574.255,-59014.485,-0.6212980714684848,3.886241904685613,12.446849247341625,11.219878792898319,3.1633689542887877,-1.2517424307206027,-3.4309154717506707,0.7328650061537224,0.373229025,-0.959653305,0.05102526,36.36458,-30.39792,55.210679999999996,67.0
1774823790.5837238,1.33514404296875e-05,2026-03-29T22:36:30.583,2026-03-29T18:36:30.583,-20138.535,-45405.72,-76324.68,-48102.479999999996,-8035.335,-15956.73,8577.99,-59017.634999999995,-1.405914026193992,1.6843975222315675,10.050688822097454,11.893458161410202,4.518432772333498,1.3001744504284227,-0.39551230509632473,0.38905451937971103,0.373229025,-0.959653305,0.05102526,36.36458,-30.39792,55.210679999999996,67.0
1774823790.583728,4.291534423828125e-06,2026-03-29T22:36:30.583,2026-03-29T18:36:30.583,-20146.995,-45396.27,-76306.635,-48084.345,-8018.73,-15942.33,8583.57,-59041.619999999995,-1.650296118607923,-1.2873206103469614,2.9250524481574143,6.987437577298368,3.70804297467276,3.2029453053007657,2.81988985526967,-0.2699212703227303,0.373229025,-0.959653305,0.05102526,36.36458,-30.39792,55.210679999999996,67.0
1774823790.5878313,0.004103183746337891,2026-03-29T22:36:30.587,2026-03-29T18:36:30.587,-20139.3,-45389.34,-76302.045,-48080.61,-8017.065,-15942.06,8585.145,-59029.515,-1.1358278998257851,-3.553458539501854,-5.568097110588062,-1.4579015081227693,1.0627666654809698,3.6098005259694017,4.753242566000929,-0.9135422609225018,0.39745992,-0.954038085,0.042541395,38.92826,-28.12418,55.98894,67.0
1774823790.587854,2.2649765014648438e-05,2026-03-29T22:36:30.587,2026-03-29T18:36:30.587,-20134.395,-45391.229999999996,-76321.89,-48093.75,-8026.245,-15947.279999999999,8583.66,-59021.64,-0.0026543524617508945,-4.0202654178996,-11.425966019045562,-9.627909079402889,-2.1775472457409726,2.383875613543774,4.53496445663686,-1.1760983810108754,0.39745992,-0.954038085,0.042541395,38.92826,-28.12418,55.98894,67.0
1774823790.591354,0.0034999847412109375,2026-03-29T22:36:30.591,2026-03-29T18:36:30.591,-20142.54,-45410.534999999996,-76348.62,-48107.205,-8033.445,-15958.215,8579.925,-59023.71,1.281432088759509,-2.4997201111774885,-11.899217189937355,-13.66329869317325,-4.445926034033599,0.13744118100570618,2.283272805383697,-0.8567866484437592,0.39745992,-0.954038085,0.042541395,38.92826,-28.12418,55.98894,67.0
1774823790.5913694,1.5497207641601562e-05,2026-03-29T22:36:30.591,2026-03-29T18:36:30.591,-20146.454999999998,-45416.384999999995,-76354.245,-48118.455,-8040.014999999999,-15975.72,8576.91,-59021.369999999995,2.1230963599447974,0.2207177346593447,-6.7876635780651045,-11.487078413217443,-4.608651342707201,-2.0779158169262533,-0.9604721196563758,-0.04485317421154101,0.39745992,-0.954038085,0.042541395,38.92826,-28.12418,55.98894,67.0
1774823790.595544,0.004174709320068359,2026-03-29T22:36:30.595,2026-03-29T18:36:30.595,-20147.895,-45413.055,-76337.64,-48109.5,-8036.1449999999995,-15976.89,8567.235,-59023.305,2.084108517402153,2.7848701178346627,1.4763456904894985,-3.861568559300602,-2.5336655968205832,-3.271919414168392,-3.720828518678788,0.90103791910687,0.39745992,-0.954038085,0.042541395,38.92826,-28.12418,55.98894,67.0
1774823790.5955646,2.0503997802734375e-05,2026-03-29T22:36:30.595,2026-03-29T18:36:30.595,-20152.934999999998,-45410.67,-76304.7,-48090.645,-8035.469999999999,-15972.255,8554.095,-59031.09,1.1043784298076074,3.9413229967457006,8.991437495643945,5.859047947659659,0.8191429340546305,-2.964830606583851,-4.768554731240274,1.5161403966419778,0.39745992,-0.954038085,0.042541395,38.92826,-28.12418,55.98894,67.0
1774823790.604314,0.00874948501586914,2026-03-29T22:36:30.604,2026-03-29T18:36:30.604,-20162.07,-45428.805,-76316.625,-48092.13,-8047.799999999999,-15976.26,8545.77,-59034.78,-0.4447053865668097,3.1499311257577203,12.238532632972854,13.213019369381188,3.843128535083913,-1.3780672955397268,-3.6741247598787434,1.4586482965357117,0.39745992,-0.954038085,0.042541395,38.92826,-28.12418,55.98894,67.0
1774823790.6043289,1.4781951904296875e-05,2026-03-29T22:36:30.604,2026-03-29T18:36:30.604,-20157.885,-45430.335,-76307.175,-48065.445,-8034.929999999999,-15963.21,8553.195,-59023.034999999996,-1.9086396964787118,0.8289021923629186,9.736874956402744,14.691967860192122,5.059020176043869,0.7086379073683039,-0.9823651530511766,0.6910954178791291,0.39745992,-0.954038085,0.042541395,38.92826,-28.12418,55.98894,67.0
1774823790.6043444,1.5497207641601562e-05,2026-03-29T22:36:30.604,2026-03-29T18:36:30.604,-20145.329999999998,-45406.665,-76291.56,-48046.32,-8001.09,-15927.57,8582.13,-59010.84,-2.6355449393296597,-1.8682619547284298,2.721120452038598,9.420542270198455,3.843184470247565,2.3469790741380017,2.061831026771823,-0.47914591806376616,0.39745992,-0.954038085,0.042541395,38.92826,-28.12418,55.98894,67.0
1774823790.6043487,4.291534423828125e-06,2026-03-29T22:36:30.604,2026-03-29T18:36:30.604,-20138.219999999998,-45408.284999999996,-76325.535,-48088.125,-8012.115,-15934.365,8586.315,-58998.915,-2.269433010221905,-3.626459636332683,-5.471607448757124,-0.3528716592899516,0.7491792171338744,2.859142409457055,4.097183421676367,-1.5266648566271561,0.39745992,-0.954038085,0.042541395,38.92826,-28.12418,55.98894,67.0
1774823790.608105,0.003756284713745117,2026-03-29T22:36:30.608,2026-03-29T18:36:30.608,-20141.82,-45411.435,-76347.18,-48117.96,-8024.219999999999,-15939.9,8582.805,-59008.545,-0.9173268715555044,-3.607710941782382,-10.999284865871237,-10.221373320083051,-2.7443197548453817,2.1189323874144086,4.261630438416489,-1.9473428623576472,0.410094165,-0.939939,0.039916890000000003,37.127579999999995,-26.14038,58.53736,67.0
1774823790.6081212,1.621246337890625e-05,2026-03-29T22:36:30.608,2026-03-29T18:36:30.608,-20140.605,-45408.15,-76343.805,-48131.055,-8039.16,-15949.035,8580.96,-59008.905,0.885359791011068,-1.8455541577185937,-11.32772409870103,-15.62413011108416,-4.944896210129856,0.5577892768739299,2.558167795753254,-1.499403584699794,0.410094165,-0.939939,0.039916890000000003,37.127579999999995,-26.14038,58.53736,67.0
1774823790.6115158,0.003394603729248047,2026-03-29T22:36:30.611,2026-03-29T18:36:30.611,-20143.079999999998,-45403.2,-76320.495,-48117.015,-8036.1449999999995,-15946.74,8577.539999999999,-59016.689999999995,2.39575939933573,0.7884461609918237,-6.397716302415645,-13.970630891680626,-4.772885886492624,-1.0821191828233276,-0.18451098789876116,-0.3315451603672533,0.410094165,-0.939939,0.039916890000000003,37.127579999999995,-26.14038,58.53736,67.0
1774823790.611529,1.33514404296875e-05,2026-03-29T22:36:30.611,2026-03-29T18:36:30.611,-20153.114999999998,-45404.28,-76307.175,-48094.965,-8021.5199999999995,-15935.849999999999,8575.244999999999,-59034.465,2.974154835775477,3.0193230427783186,1.3940327831943413,-5.887312439900999,-2.296271151302812,-2.1084667599306135,-2.7196852297042517,1.0660481429513826,0.410094165,-0.939939,0.039916890000000003,37.127579999999995,-26.14038,58.53736,67.0
1774823790.616936,0.005406856536865234,2026-03-29T22:36:30.616,2026-03-29T18:36:30.616,-20143.665,-45392.58,-76292.145,-48081.104999999996,-8016.075,-15934.095,8579.835,-59017.005,2.351726047467515,3.7863620685805466,8.368499298561735,5.016269545573519,1.2936423728791377,-2.1743196709339014,-3.955822419667759,2.070854504657433,0.410094165,-0.939939,0.039916890000000003,37.127579999999995,-26.14038,58.53736,67.0
1774823790.6169488,1.2874603271484375e-05,2026-03-29T22:36:30.616,2026-03-29T18:36:30.616,-20148.21,-45395.189999999995,-76288.455,-48072.195,-8011.125,-15933.824999999999,8586.63,-58996.845,0.7451154824918286,2.7443211132905123,11.31424758442923,13.77681766321715,4.259067814805042,-1.3806986920427384,-3.4286098871717505,2.206079107481749,0.410094165,-0.939939,0.039916890000000003,37.127579999999995,-26.14038,58.53736,67.0
1774823790.619506,0.002557039260864258,2026-03-29T22:36:30.619,2026-03-29T18:36:30.619,-20166.165,-45416.07,-76306.14,-48068.055,-8003.429999999999,-15931.035,8590.365,-58986.99,-1.225810788089775,0.4126971665866151,8.975273771477244,16.358805241880017,5.16424621573007,-0.16529715925851066,-1.4667736792974655,1.3630420501572231,0.410094165,-0.939939,0.039916890000000003,37.127579999999995,-26.14038,58.53736,67.0
1774823790.6195219,1.5974044799804688e-05,2026-03-29T22:36:30.619,2026-03-29T18:36:30.619,-20184.12,-45427.5,-76320.315,-48077.415,-8009.865,-15935.49,8585.64,-59008.814999999995,-2.78042062186586,-2.0884517941333116,2.582805941539186,11.528958685636258,3.5779788060405653,0.9391045008250651,1.002194990959771,-0.1340300610687685,0.410094165,-0.939939,0.039916890000000003,37.127579999999995,-26.14038,58.53736,67.0
1774823790.6236384,0.004116535186767578,2026-03-29T22:36:30.623,2026-03-29T18:36:30.623,-20150.01,-45416.655,-76330.17,-48092.715,-8025.165,-15951.914999999999,8572.635,-59019.255,-3.2826866407050375,-3.579929399280263,-4.792436125401081,1.4454213746240498,0.282868626027955,1.5433498740504645,2.895097790448891,-1.6542369466436022,0.410094165,-0.939939,0.039916890000000003,37.127579999999995,-26.14038,58.53736,67.0
1774823790.6236544,1.5974044799804688e-05,2026-03-29T22:36:30.623,2026-03-29T18:36:30.623,-20134.665,-45410.22,-76324.815,-48101.985,-8033.849999999999,-15963.57,8566.785,-59008.905,-2.4921539854696615,-3.379035153227462,-9.72735218669901,-9.320525517584818,-3.112279291149852,1.528202081208432,3.4509383917033807,-2.526723085766296,0.410094165,-0.939939,0.039916890000000003,37.127579999999995,-26.14038,58.53736,67.0
1774823790.6275485,0.0038940906524658203,2026-03-29T22:36:30.627,2026-03-29T18:36:30.627,-20141.505,-45410.445,-76323.69,-48117.869999999995,-8045.28,-15967.439999999999,8569.17,-59002.604999999996,-0.6670556873967843,-1.6078544815601739,-10.047358087667513,-15.880445892251643,-4.964396461226321,1.023870125701634,2.531550708810137,-2.33462537763431,0.41131486500000003,-0.92553474,0.039245505,31.42034,-27.010199999999998,59.727639999999994,67.0
1774823790.6275694,2.09808349609375e-05,2026-03-29T22:36:30.627,2026-03-29T18:36:30.627,-20148.66,-45418.634999999995,-76332.06,-48110.534999999996,-8038.215,-15957.585,8572.185,-58998.689999999995,1.5187044922282589,0.8829207061556394,-5.786549475040437,-15.270407517239256,-4.399659454632619,0.2885398179119711,0.6293829266919169,-1.1086681804639094,0.41131486500000003,-0.92553474,0.039245505,31.42034,-27.010199999999998,59.727639999999994,67.0
1774823790.63417,0.006600618362426758,2026-03-29T22:36:30.634,2026-03-29T18:36:30.634,-20145.375,-45410.534999999996,-76321.035,-48094.29,-8023.679999999999,-15945.164999999999,8576.01,-58991.04,3.2172526417597607,2.9274350612834894,0.917885058941097,-7.799930034209177,-1.731680589412712,-0.4270824008765236,-1.3940736106760583,0.6668270623573456,0.41131486500000003,-0.92553474,0.039245505,31.42034,-27.010199999999998,59.727639999999994,67.0
1774823790.634194,2.384185791015625e-05,2026-03-29T22:36:30.634,2026-03-29T18:36:30.634,-20143.89,-45404.505,-76315.905,-48096.09,-8027.054999999999,-15950.925,8575.02,-58990.905,3.7242986137889456,3.5925643575931616,6.903789706500781,3.1105156770828986,1.7087050197651479,-0.9569154530242975,-2.7008853089463205,2.2444769098735646,0.41131486500000003,-0.92553474,0.039245505,31.42034,-27.010199999999998,59.727639999999994,67.0
1774823790.6352043,0.0010104179382324219,2026-03-29T22:36:30.635,2026-03-29T18:36:30.635,-20147.715,-45412.56,-76332.19499999999,-48092.265,-8024.804999999999,-15955.92,8572.275,-59005.71,2.76059275067843,2.6020586421410288,9.488376628466069,12.516347087076475,4.241247254676024,-1.2197863009518655,-2.8201550166764147,2.9261529057304676,0.41131486500000003,-0.92553474,0.039245505,31.42034,-27.010199999999998,59.727639999999994,67.0
1774823790.635212,7.62939453125e-06,2026-03-29T22:36:30.635,2026-03-29T18:36:30.635,-20153.114999999998,-45418.545,-76338.405,-48088.395,-8028.855,-15971.67,8570.97,-59009.399999999994,0.6112757611178762,0.4452409323965363,7.677202742379129,16.214288221112685,4.664774042236314,-1.178931238480162,-1.80368053555313,2.3679660450523503,0.41131486500000003,-0.92553474,0.039245505,31.42034,-27.010199999999998,59.727639999999994,67.0
1774823790.6437593,0.008547306060791016,2026-03-29T22:36:30.643,2026-03-29T18:36:30.643,-20151.899999999998,-45427.545,-76349.16,-48100.994999999995,-8041.545,-15971.715,8569.08,-58996.619999999995,-1.9411305116447997,-1.8689438976080426,2.529832041433396,12.636872539389376,2.8341625327520985,-0.8172860005769164,-0.15130149469618964,0.7470021706414303,0.41131486500000003,-0.92553474,0.039245505,31.42034,-27.010199999999998,59.727639999999994,67.0
1774823790.643772,1.2636184692382812e-05,2026-03-29T22:36:30.643,2026-03-29T18:36:30.643,-20149.829999999998,-45427.229999999996,-76352.355,-48115.979999999996,-8045.594999999999,-15960.105,8568.0,-58991.805,-3.885342588561615,-3.2873702079465565,-3.442286872683112,3.5144746012704053,-0.29488629715448367,-0.1608004125578976,1.4349826765382998,-1.2880884162173727,0.41131486500000003,-0.92553474,0.039245505,31.42034,-27.010199999999998,59.727639999999994,67.0
1774823790.6437905,1.8596649169921875e-05,2026-03-29T22:36:30.643,2026-03-29T18:36:30.643,-20154.285,-45420.299999999996,-76334.76,-48119.939999999995,-8030.07,-15941.88,8571.735,-59000.67,-4.369390045009827,-3.192377373660836,-7.510504265351642,-6.973264654053223,-3.1641587707296397,0.6677456509319696,2.3469197883106445,-2.8725616901239994,0.41131486500000003,-0.92553474,0.039245505,31.42034,-27.010199999999998,59.727639999999994,67.0
1774823790.6437957,5.245208740234375e-06,2026-03-29T22:36:30.643,2026-03-29T18:36:30.643,-20152.71,-45415.619999999995,-76321.70999999999,-48138.345,-8039.115,-15948.18,8571.96,-58997.924999999996,-3.067163008731734,-1.667400813141595,-7.985175152233497,-14.135355974293224,-4.394681843706281,1.4205996525715185,2.292547910895863,-3.288868394358027,0.41131486500000003,-0.92553474,0.039245505,31.42034,-27.010199999999998,59.727639999999994,67.0
1774823790.6475406,0.003744840621948242,2026-03-29T22:36:30.647,2026-03-29T18:36:30.647,-20146.094999999998,-45408.24,-76317.03,-48126.509999999995,-8033.804999999999,-15945.795,8575.02,-58981.005,-0.3697542977322826,0.5635791897629052,-4.910729704563393,-14.887444445902442,-3.456992148887565,1.7762573281404639,1.3704661443700668,-2.2877676644950284,0.41442765,-0.92455818,0.039245505,30.031679999999998,-29.69596,60.29226,67.0
1774823790.6475635,2.288818359375e-05,2026-03-29T22:36:30.647,2026-03-29T18:36:30.647,-20141.055,-45403.064999999995,-76306.635,-48088.845,-8018.549999999999,-15946.47,8572.86,-58974.57,2.702778498777951,2.482783964854645,0.08241522587335524,-9.08424431816621,-0.9004993590215631,1.4765840066210179,-0.009535757802974396,-0.22582063639034183,0.41442765,-0.92455818,0.039245505,30.031679999999998,-29.69596,60.29226,67.0
1774823790.651477,0.0039136409759521484,2026-03-29T22:36:30.651,2026-03-29T18:36:30.651,-20135.79,-45404.955,-76304.745,-48083.13,-8015.8949999999995,-15947.505,8571.735,-58967.729999999996,4.869939979981453,3.244396709857567,4.6383321892393115,0.5108493959709838,1.9583324004079972,0.4915107959637309,-1.3069083053373685,2.052677726117263,0.41442765,-0.92455818,0.039245505,30.031679999999998,-29.69596,60.29226,67.0
1774823790.6514904,1.33514404296875e-05,2026-03-29T22:36:30.651,2026-03-29T18:36:30.651,-20145.195,-45411.435,-76310.64,-48083.85,-8010.224999999999,-15939.72,8575.11,-58983.615,5.1173155701868565,2.545970587526362,6.796094649501838,9.557140719072567,3.715738765772701,-0.8871871079606605,-2.053234487567903,3.555604560630652,0.41442765,-0.92455818,0.039245505,30.031679999999998,-29.69596,60.29226,67.0
1774823790.6557715,0.004281044006347656,2026-03-29T22:36:30.655,2026-03-29T18:36:30.655,-20148.795,-45405.0,-76311.315,-48081.96,-8004.105,-15931.8,8581.095,-58998.6,3.1692946040996093,0.7435904973145763,5.833473280859897,14.120393401150782,3.576408914726022,-2.1049717899512896,-2.006753591442933,3.571542957480011,0.41442765,-0.92455818,0.039245505,30.031679999999998,-29.69596,60.29226,67.0
1774823790.6557944,2.288818359375e-05,2026-03-29T22:36:30.655,2026-03-29T18:36:30.655,-20150.1,-45409.365,-76321.305,-48091.634999999995,-8011.98,-15940.215,8577.404999999999,-58989.015,-0.31110771320073183,-1.3299045911633343,2.471434918681912,12.392867612973435,1.7172988808211767,-2.5650218742920576,-1.2168307593533938,2.004197583117124,0.41442765,-0.92455818,0.039245505,30.031679999999998,-29.69596,60.29226,67.0
1774823790.6636217,0.007827281951904297,2026-03-29T22:36:30.663,2026-03-29T18:36:30.663,-20175.21,-45420.615,-76328.50499999999,-48075.57,-7995.014999999999,-15923.519999999999,8585.369999999999,-59001.57,-3.9208802971870433,-2.7508205156540666,-1.5933373430403592,5.393585259570789,-0.848966517364499,-1.9240097352969003,0.009388564477229197,-0.5431865307507479,0.41442765,-0.92455818,0.039245505,30.031679999999998,-29.69596,60.29226,67.0
1774823790.6636343,1.2636184692382812e-05,2026-03-29T22:36:30.663,2026-03-29T18:36:30.663,-20187.36,-45431.505,-76349.565,-48091.68,-8004.825,-15929.055,8587.35,-59011.515,-6.0725635783009135,-2.915681992533614,-4.545841396814756,-3.6130107275046917,-2.8210314138786154,-0.31512278563613444,1.2188369707068374,-2.99052584918964,0.41442765,-0.92455818,0.039245505,30.031679999999998,-29.69596,60.29226,67.0
1774823790.670482,0.0068476200103759766,2026-03-29T22:36:30.670,2026-03-29T18:36:30.670,-20165.265,-45431.64,-76355.73,-48110.354999999996,-8016.75,-15938.82,8585.46,-58996.215,-5.693256090635993,-1.7953042918593833,-5.266304606374286,-10.655386485122632,-3.272452325685098,1.6369159447530293,1.9668299435895635,-4.234410779951473,0.41442765,-0.92455818,0.039245505,30.031679999999998,-29.69596,60.29226,67.0
1774823790.6705084,2.6464462280273438e-05,2026-03-29T22:36:30.670,2026-03-29T18:36:30.670,-20136.239999999998,-45412.38,-76339.305,-48114.81,-8023.7699999999995,-15950.07,8572.904999999999,-58988.384999999995,-2.7595449744983536,0.07343718740436274,-3.734104359456741,-12.817835737551146,-2.091806181558437,3.052462960567275,1.9695160196333168,-3.6450399068439046,0.41442765,-0.92455818,0.039245505,30.031679999999998,-29.69596,60.29226,67.0
1774823790.6705253,1.6927719116210938e-05,2026-03-29T22:36:30.670,2026-03-29T18:36:30.670,-20141.19,-45409.14,-76321.62,-48112.064999999995,-8023.41,-15955.019999999999,8572.05,-58990.32,1.598417489865049,1.844037444184119,-0.889111783013508,-9.440017801181133,0.012286672515402369,3.1991526285785623,1.2090090902019548,-1.3835548688060935,0.41760147000000003,-0.928891665,0.040832415000000004,32.68692,-31.008319999999998,58.24742,67.0
1774823790.6705327,7.3909759521484375e-06,2026-03-29T22:36:30.670,2026-03-29T18:36:30.670,-20142.765,-45411.75,-76318.92,-48107.655,-8022.96,-15956.73,8572.994999999999,-58990.994999999995,5.516602872885109,2.7430044926049266,1.9140763479219904,-2.2643168785879237,1.9211634298064801,1.8730705478312717,-0.046350261892154056,1.6194426988716168,0.41760147000000003,-0.928891665,0.040832415000000004,32.68692,-31.008319999999998,58.24742,67.0
1774823790.6705413,8.58306884765625e-06,2026-03-29T22:36:30.670,2026-03-29T18:36:30.670,-20140.469999999998,-45411.21,-76312.935,-48087.314999999995,-8013.69,-15947.46,8575.965,-58985.235,7.194673656689583,2.406597875749512,3.5526145582342408,5.4622341806895465,2.6996053555847124,-0.4404224277361326,-1.3235867689018779,4.040044883719759,0.41760147000000003,-0.928891665,0.040832415000000004,32.68692,-31.008319999999998,58.24742,67.0
1774823790.6705475,6.198883056640625e-06,2026-03-29T22:36:30.670,2026-03-29T18:36:30.670,-20142.585,-45411.479999999996,-76306.815,-48078.36,-8012.655,-15946.019999999999,8573.355,-58983.524999999994,5.730983431949569,1.0262200022203742,3.573492161259114,10.468407220465533,2.0583641182836017,-2.7336355167159367,-2.112545455925499,4.74424793218568,0.41760147000000003,-0.928891665,0.040832415000000004,32.68692,-31.008319999999998,58.24742,67.0
1774823790.6759377,0.005390167236328125,2026-03-29T22:36:30.675,2026-03-29T18:36:30.675,-20136.42,-45397.979999999996,-76298.715,-48091.994999999995,-8024.174999999999,-15951.465,8572.005,-58977.99,1.6044516147558754,-0.7543355241793915,2.259445435403001,10.841238070422023,0.4548469841792937,-3.9204522658274383,-2.0664663944885153,3.3222154192144324,0.41760147000000003,-0.928891665,0.040832415000000004,32.68692,-31.008319999999998,58.24742,67.0
1774823790.6759596,2.193450927734375e-05,2026-03-29T22:36:30.675,2026-03-29T18:36:30.675,-20144.114999999998,-45398.07,-76298.535,-48088.755,-8018.099999999999,-15944.58,8573.085,-58989.42,-3.4533165400350567,-2.1366302390916547,0.36106895677456463,6.728058300476464,-1.1990795556353187,-3.3592855582076915,-1.1585488534278454,0.32076070649073024,0.41760147000000003,-0.928891665,0.040832415000000004,32.68692,-31.008319999999998,58.24742,67.0
1774823790.6800437,0.004084110260009766,2026-03-29T22:36:30.680,2026-03-29T18:36:30.680,-20144.07,-45394.83,-76291.965,-48072.104999999996,-8004.87,-15935.805,8575.065,-58994.64,-7.182002610055519,-2.5240102301277325,-1.3156389047794939,0.11780780566186558,-2.04633331742856,-1.1994332265334002,0.2782991345246147,-2.9555842929659986,0.41760147000000003,-0.928891665,0.040832415000000004,32.68692,-31.008319999999998,58.24742,67.0
1774823790.6800644,2.0742416381835938e-05,2026-03-29T22:36:30.680,2026-03-29T18:36:30.680,-20151.27,-45406.53,-76305.78,-48074.715,-8003.16,-15936.074999999999,8577.945,-58994.28,-7.8123574153144935,-1.778873650410316,-2.2453071121330566,-6.1250273691789925,-1.7301841911797045,1.6358532681030953,1.6621022888583317,-5.009929305789104,0.41760147000000003,-0.928891665,0.040832415000000004,32.68692,-31.008319999999998,58.24742,67.0
1774823790.6941233,0.014058828353881836,2026-03-29T22:36:30.694,2026-03-29T18:36:30.694,-20156.85,-45416.115,-76317.795,-48080.205,-8001.855,-15934.32,8579.835,-58994.235,-4.917663288857908,-0.27044866388480754,-2.306431198424162,-9.502235665716979,-0.5438170240384724,3.8468271722151814,2.393344088177328,-4.8414071836906905,0.41760147000000003,-0.928891665,0.040832415000000004,32.68692,-31.008319999999998,58.24742,67.0
1774823790.694142,1.8835067749023438e-05,2026-03-29T22:36:30.694,2026-03-29T18:36:30.694,-20150.46,-45414.27,-76327.065,-48089.43,-8007.165,-15940.215,8575.875,-58992.255,0.3182121094200305,1.3029269509214068,-1.6931706867779919,-8.86104669272177,0.7785741271048171,4.362786765183225,2.117541250001343,-2.4383151845537157,0.41760147000000003,-0.928891665,0.040832415000000004,32.68692,-31.008319999999998,58.24742,67.0
1774823790.6941595,1.7404556274414062e-05,2026-03-29T22:36:30.694,2026-03-29T18:36:30.694,-20146.995,-45412.29,-76326.705,-48100.14,-8014.455,-15948.09,8568.81,-58994.865,5.577513799097329,2.2336569446220027,-0.7252926520637123,-4.738794198879737,1.495763733571426,2.869034841794864,0.9023039590099455,1.1693748587174504,0.410704515,-0.926084055,0.046081425,33.40414,-33.266799999999996,57.13344,67.0
1774823790.6941671,7.62939453125e-06,2026-03-29T22:36:30.694,2026-03-29T18:36:30.694,-20143.62,-45425.52,-76336.73999999999,-48103.92,-8019.945,-15955.019999999999,8569.215,-58988.204999999994,8.44310845072025,2.122245243439306,0.30989012673233324,0.9980150440465707,1.2695520684733053,-0.007792257056758311,-0.7618119547014288,4.347507788349882,0.410704515,-0.926084055,0.046081425,33.40414,-33.266799999999996,57.13344,67.0
1774823790.6941757,8.58306884765625e-06,2026-03-29T22:36:30.694,2026-03-29T18:36:30.694,-20144.655,-45432.854999999996,-76336.065,-48081.465,-8022.87,-15966.09,8563.68,-58984.424999999996,7.525612766011235,1.0506389997816976,1.208780171025882,5.999713805200016,0.3262786221875152,-2.9625271884134716,-2.1540868787128025,5.602258326233763,0.410704515,-0.926084055,0.046081425,33.40414,-33.266799999999996,57.13344,67.0
1774823790.694182,6.198883056640625e-06,2026-03-29T22:36:30.694,2026-03-29T18:36:30.694,-20148.614999999998,-45410.805,-76298.44499999999,-48066.299999999996,-8025.84,-15967.484999999999,8564.67,-58991.22,3.1502215906415065,-0.4643273107932427,1.8141781585110894,8.380434905058358,-0.7083378694744858,-4.612218089028807,-2.6371659066737987,4.290943812944498,0.410704515,-0.926084055,0.046081425,33.40414,-33.266799999999996,57.13344,67.0
1774823790.6972628,0.0030808448791503906,2026-03-29T22:36:30.697,2026-03-29T18:36:30.697,-20141.01,-45392.985,-76279.31999999999,-48070.259999999995,-8033.94,-15973.109999999999,8566.244999999999,-58979.744999999995,-2.7421556563735936,-1.7141798471929772,1.9705383505444354,7.393089115474711,-1.194400694534403,-4.154134662276694,-1.954059130626986,0.9570623166053195,0.410704515,-0.926084055,0.046081425,33.40414,-33.266799999999996,57.13344,67.0
1774823790.6972795,1.6689300537109375e-05,2026-03-29T22:36:30.697,2026-03-29T18:36:30.697,-20152.17,-45431.505,-76323.42,-48076.11,-8032.41,-15985.755,8562.645,-58969.439999999995,-7.461045335088279,-2.1269103034134194,1.5468554353772652,3.6125129125093456,-0.8562369966687453,-1.7630156258166223,-0.3675960669296756,-2.8875601689375725,0.410704515,-0.926084055,0.046081425,33.40414,-33.266799999999996,57.13344,67.0
1774823790.705194,0.007914543151855469,2026-03-29T22:36:30.705,2026-03-29T18:36:30.705,-20177.954999999998,-45453.015,-76353.435,-48096.72,-8022.6449999999995,-15961.14,8568.045,-58979.025,-8.811444251333201,-1.529627979183291,0.5358275761120842,-1.3821069192190112,0.06326292642587134,1.4718100243608525,1.4341745827031456,-5.451033027988699,0.410704515,-0.926084055,0.046081425,33.40414,-33.266799999999996,57.13344,67.0
1774823790.7052138,1.9788742065429688e-05,2026-03-29T22:36:30.705,2026-03-29T18:36:30.705,-20190.105,-45426.689999999995,-76339.08,-48104.369999999995,-8001.719999999999,-15914.654999999999,8583.029999999999,-59006.97,-6.134095230198986,-0.22497832757022634,-0.8399485253051775,-5.655330589291915,0.9578372044772608,4.048906936613071,2.6364462101697472,-5.506002143749762,0.410704515,-0.926084055,0.046081425,33.40414,-33.266799999999996,57.13344,67.0
1774823790.7052324,1.8596649169921875e-05,2026-03-29T22:36:30.705,2026-03-29T18:36:30.705,-20174.265,-45397.665,-76323.59999999999,-48127.095,-8008.424999999999,-15908.939999999999,8589.465,-59014.665,-0.6390847634080001,1.1543789282375254,-2.1163352177612076,-7.634332092362391,1.2293493628252823,4.761843937554189,2.670255799053835,-2.98831504292737,0.410704515,-0.926084055,0.046081425,33.40414,-33.266799999999996,57.13344,67.0
1774823790.7052364,4.0531158447265625e-06,2026-03-29T22:36:30.705,2026-03-29T18:36:30.705,-20158.38,-45401.58,-76315.00499999999,-48118.68,-8003.969999999999,-15913.305,8592.885,-58996.305,5.1411896024964605,1.946300063521282,-2.7305715743228545,-6.649891092443296,0.6576317877748316,3.2730093418899475,1.4865998064082335,0.9472984071243443,0.410704515,-0.926084055,0.046081425,33.40414,-33.266799999999996,57.13344,67.0
1774823790.707569,0.002332448959350586,2026-03-29T22:36:30.707,2026-03-29T18:36:30.707,-20139.614999999998,-45420.795,-76328.055,-48096.63,-7999.965,-15927.119999999999,8581.5,-58984.47,8.532802168352955,1.7745631090738456,-2.282956768348258,-3.136705471953782,-0.449687491292472,0.2771194353238746,-0.4022906564099676,4.456689157998652,0.398009235,-0.92126229,0.051696645,26.90338,-39.18768,56.767199999999995,67.0
1774823790.707581,1.2159347534179688e-05,2026-03-29T22:36:30.707,2026-03-29T18:36:30.707,-20120.895,-45408.689999999995,-76319.86499999999,-48083.895,-8002.17,-15934.095,8573.175,-58973.895,7.978080181281775,0.7299859068734074,-0.789255867504228,1.5501825021458284,-1.4210168000022023,-2.8260815794985596,-2.1436736253044475,5.878685871790476,0.398009235,-0.92126229,0.051696645,26.90338,-39.18768,56.767199999999995,67.0
1774823790.719332,0.011750936508178711,2026-03-29T22:36:30.719,2026-03-29T18:36:30.719,-20126.07,-45411.84,-76328.73,-48093.345,-8013.87,-15943.859999999999,8573.985,-58967.865,3.769043186375279,-0.6708656484272475,1.231098754218804,5.629298604907546,-1.6115353054495847,-4.593823849394133,-2.9321423006741534,4.534120594984397,0.398009235,-0.92126229,0.051696645,26.90338,-39.18768,56.767199999999995,67.0
1774823790.7193618,2.9802322387695312e-05,2026-03-29T22:36:30.719,2026-03-29T18:36:30.719,-20134.079999999998,-45417.689999999995,-76333.14,-48102.299999999996,-8025.03,-15954.885,8570.654999999999,-58967.865,-2.0974533775005058,-1.733202059474997,2.9200526923258736,7.534074958172867,-0.799495960991445,-4.219844368319995,-2.3864623785824675,1.0613038392855192,0.398009235,-0.92126229,0.051696645,26.90338,-39.18768,56.767199999999995,67.0
1774823790.7193868,2.5033950805664062e-05,2026-03-29T22:36:30.719,2026-03-29T18:36:30.719,-20143.53,-45409.68,-76321.62,-48100.365,-8019.179999999999,-15949.035,8572.815,-58988.07,-6.874591474398524,-1.9222524466347057,3.4565983163446137,6.492256109678651,0.6446829253723612,-1.907246472592229,-0.7368285492666556,-2.8829046540255474,0.398009235,-0.92126229,0.051696645,26.90338,-39.18768,56.767199999999995,67.0
1774823790.7193968,1.0013580322265625e-05,2026-03-29T22:36:30.719,2026-03-29T18:36:30.719,-20150.73,-45402.03,-76307.22,-48078.045,-7996.679999999999,-15930.404999999999,8582.895,-59005.17,-8.370471893686625,-1.1299742429176136,2.4730317323600097,2.842267042878789,1.9279655667308266,1.2398783194815002,1.270689594140146,-5.418653231402464,0.398009235,-0.92126229,0.051696645,26.90338,-39.18768,56.767199999999995,67.0
1774823790.7194088,1.1920928955078125e-05,2026-03-29T22:36:30.719,2026-03-29T18:36:30.719,-20142.945,-45402.165,-76307.48999999999,-48073.994999999995,-7994.295,-15928.064999999999,8585.235,-58987.395,-5.974396005463501,0.2618698948403935,0.2939257507208282,-2.0445984281036913,2.264768588230006,3.748365802607313,2.7134484853093324,-5.351128893973622,0.398009235,-0.92126229,0.051696645,26.90338,-39.18768,56.767199999999995,67.0
1774823790.7194183,9.5367431640625e-06,2026-03-29T22:36:30.719,2026-03-29T18:36:30.719,-20140.605,-45404.28,-76308.97499999999,-48076.56,-7997.3099999999995,-15930.045,8582.039999999999,-58983.615,-0.914191108189077,1.5591063485823125,-2.15139241370739,-6.242285077724627,1.336232897203824,4.472379943596628,2.919676324972625,-2.7469375048800377,0.398009235,-0.92126229,0.051696645,26.90338,-39.18768,56.767199999999995,67.0
1774823790.723926,0.004507780075073242,2026-03-29T22:36:30.723,2026-03-29T18:36:30.723,-20144.79,-45411.119999999995,-76323.465,-48084.975,-8005.995,-15935.715,8578.845,-58984.649999999994,4.368594589537872,2.0932527752480565,-3.7330661663371347,-8.004482514291457,-0.4820701594792977,3.1216106693947068,1.7840909118536286,1.1055274824159849,0.398009235,-0.92126229,0.051696645,26.90338,-39.18768,56.767199999999995,67.0
1774823790.723952,2.5987625122070312e-05,2026-03-29T22:36:30.723,2026-03-29T18:36:30.723,-20150.145,-45422.28,-76355.37,-48099.104999999996,-8010.855,-15939.72,8577.404999999999,-58988.97,7.409187109921128,1.5586292065429648,-3.662051377223223,-6.489799479496657,-2.2690342310071525,0.37565990659531323,-0.17802394197463778,4.333125221056703,0.398009235,-0.92126229,0.051696645,26.90338,-39.18768,56.767199999999995,67.0
1774823790.7275844,0.0036323070526123047,2026-03-29T22:36:30.727,2026-03-29T18:36:30.727,-20148.795,-45418.095,-76348.75499999999,-48096.314999999995,-8006.04,-15938.64,8580.869999999999,-58987.665,6.889466910317031,0.18103950460283427,-1.9007171747418101,-2.1775111155640734,-3.0259460101290783,-2.4587478924638013,-2.066007553166422,5.397607271923336,0.390440895,-0.921323325,0.059570160000000004,19.02922,-45.718959999999996,56.43148,67.0
1774823790.7276127,2.8371810913085938e-05,2026-03-29T22:36:30.727,2026-03-29T18:36:30.727,-20147.355,-45412.11,-76339.08,-48098.564999999995,-8003.565,-15937.515,8583.705,-58983.704999999994,3.2225219742280036,-1.3728822849123186,0.7773679964796246,3.237108659103687,-2.2248121345068577,-4.073677886892349,-3.0099021352171915,3.8423267936584513,0.390440895,-0.921323325,0.059570160000000004,19.02922,-45.718959999999996,56.43148,67.0
1774823790.7317452,0.004132509231567383,2026-03-29T22:36:30.731,2026-03-29T18:36:30.731,-20148.48,-45413.369999999995,-76331.97,-48103.604999999996,-8005.139999999999,-15938.279999999999,8583.255,-58981.68,-1.714224205998066,-2.3118072292838208,3.130643742194169,7.480616153272564,-0.13963655493461163,-3.7667595889230374,-2.573558991244458,0.4972286624908697,0.390440895,-0.921323325,0.059570160000000004,19.02922,-45.718959999999996,56.43148,67.0
1774823790.7317607,1.5497207641601562e-05,2026-03-29T22:36:30.731,2026-03-29T18:36:30.731,-20162.61,-45428.49,-76335.39,-48100.86,-8006.804999999999,-15941.07,8578.8,-58984.92,-5.540159659487329,-2.1138567161585216,4.04205111942337,8.649253807916299,2.2355897866026706,-1.7457162861518862,-0.9567064741385594,-2.9548960202850174,0.390440895,-0.921323325,0.059570160000000004,19.02922,-45.718959999999996,56.43148,67.0
1774823790.744629,0.012868165969848633,2026-03-29T22:36:30.744,2026-03-29T18:36:30.744,-20171.835,-45439.29,-76343.4,-48098.43,-8009.594999999999,-15941.43,8581.23,-58988.88,-6.534374675533587,-0.8054856587003315,3.0706274103592754,6.075492448004368,3.6650173576695524,1.000404421755724,1.0978438017524423,-4.82767886868383,0.390440895,-0.921323325,0.059570160000000004,19.02922,-45.718959999999996,56.43148,67.0
1774823790.7447064,7.748603820800781e-05,2026-03-29T22:36:30.744,2026-03-29T18:36:30.744,-20154.69,-45420.57,-76319.91,-48098.43,-8021.07,-15952.14,8582.175,-58989.06,-4.425197200611939,1.0202517894871783,0.6807972817288749,0.7130763753506307,3.3128916068814487,3.1866506587387065,2.6478060360346243,-4.266033082590446,0.390440895,-0.921323325,0.059570160000000004,19.02922,-45.718959999999996,56.43148,67.0
1774823790.7594836,0.014777183532714844,2026-03-29T22:36:30.759,2026-03-29T18:36:30.759,-20119.545,-45395.235,-76305.95999999999,-48094.604999999996,-8022.6449999999995,-15958.755,8575.11,-58977.36,-0.43641963358745667,2.4689588739398434,-1.976135055173368,-5.181023414170826,1.2159716995249135,3.834603871215869,2.9854100321970582,-1.6482474064038075,0.390440895,-0.921323325,0.059570160000000004,19.02922,-45.718959999999996,56.43148,67.0
1774823790.7595117,2.8133392333984375e-05,2026-03-29T22:36:30.759,2026-03-29T18:36:30.759,-20130.255,-45400.095,-76313.06999999999,-48089.34,-8012.025,-15952.5,8575.56,-58983.479999999996,3.397454573957475,2.7765948464977366,-3.6271123084664034,-8.98421470829388,-1.6747986675970554,2.7084687049899565,1.9607367771340096,1.639533651695508,0.390440895,-0.921323325,0.059570160000000004,19.02922,-45.718959999999996,56.43148,67.0
1774823790.7595353,2.3603439331054688e-05,2026-03-29T22:36:30.759,2026-03-29T18:36:30.759,-20135.114999999998,-45404.28,-76316.805,-48089.07,-8009.19,-15951.015,8576.055,-58979.34,5.272411981962949,1.7015039987496603,-3.5072617728248106,-8.882701454944513,-3.9301707215576847,0.3915850661916526,0.04656075403660598,3.9306197865632355,0.390440895,-0.921323325,0.059570160000000004,19.02922,-45.718959999999996,56.43148,67.0
1774823790.759545,9.775161743164062e-06,2026-03-29T22:36:30.759,2026-03-29T18:36:30.759,-20142.225,-45401.49,-76305.51,-48078.945,-8000.865,-15938.955,8575.38,-58987.17,4.477692179808926,-0.3207476716023329,-1.7345389579412658,-4.7532083662840545,-4.353752777644172,-2.014830240222074,-1.8822754244981623,4.127685615448319,0.390440895,-0.921323325,0.059570160000000004,19.02922,-45.718959999999996,56.43148,67.0
1774823790.7595575,1.239776611328125e-05,2026-03-29T22:36:30.759,2026-03-29T18:36:30.759,-20148.344999999998,-45401.085,-76298.12999999999,-48072.104999999996,-7997.759999999999,-15933.015,8577.72,-58992.84,1.6607637905433075,-2.350345223053078,0.7633148666126965,1.6838061764312569,-2.612281848171687,-3.4147860242091848,-2.9505276647151732,2.2395534642124315,0.383482905,-0.9279761400000001,0.06701643,17.45744,-49.79338,56.370439999999995,67.0
1774823790.7595668,9.298324584960938e-06,2026-03-29T22:36:30.759,2026-03-29T18:36:30.759,-20144.745,-45405.945,-76305.19499999999,-48072.015,-7998.705,-15934.859999999999,8578.17,-58986.54,-1.6022580551469878,-3.3772555214153073,2.7318467094422876,7.56313888490185,0.5455362986016616,-3.2135712975184503,-2.6796856480170654,-0.6629448211008407,0.383482905,-0.9279761400000001,0.06701643,17.45744,-49.79338,56.370439999999995,67.0
1774823790.759578,1.1205673217773438e-05,2026-03-29T22:36:30.759,2026-03-29T18:36:30.759,-20144.204999999998,-45410.715,-76311.765,-48071.07,-7996.905,-15935.58,8578.619999999999,-58989.555,-3.6704876091908325,-2.816856579645841,3.2323411493788208,10.151885027692186,3.6136811971536935,-1.5637375498591115,-1.2002694113467531,-3.035917310480848,0.383482905,-0.9279761400000001,0.06701643,17.45744,-49.79338,56.370439999999995,67.0
1774823790.759638,6.008148193359375e-05,2026-03-29T22:36:30.759,2026-03-29T18:36:30.759,-20145.555,-45417.284999999996,-76321.26,-48080.97,-8005.724999999999,-15942.96,8576.91,-58991.354999999996,-3.669159917439699,-0.8263114466535979,2.1097276025230953,8.134424375047159,5.0546144250333285,0.7366533990136731,0.8138008243817982,-3.678790562528372,0.383482905,-0.9279761400000001,0.06701643,17.45744,-49.79338,56.370439999999995,67.0
1774823790.7596493,1.1205673217773438e-05,2026-03-29T22:36:30.759,2026-03-29T18:36:30.759,-20147.805,-45416.159999999996,-76326.93,-48097.845,-8017.245,-15950.115,8574.48,-58992.884999999995,-1.8638564261801653,1.7242843885553711,0.04416876367823517,2.294258428335644,4.072762638906026,2.6296163594090665,2.454437237165155,-2.348122283630616,0.383482905,-0.9279761400000001,0.06701643,17.45744,-49.79338,56.370439999999995,67.0
1774823790.759658,8.821487426757812e-06,2026-03-29T22:36:30.759,2026-03-29T18:36:30.759,-20148.255,-45416.43,-76330.305,-48102.165,-8017.245,-15949.98,8573.22,-58993.56,0.5845090999738181,3.6317333444003776,-1.835043500427816,-4.765542504582348,1.045023842037778,3.2800217233579074,2.9890358716526992,0.1478292080386382,0.383482905,-0.9279761400000001,0.06701643,17.45744,-49.79338,56.370439999999995,67.0
1774823790.7596688,1.0728836059570312e-05,2026-03-29T22:36:30.759,2026-03-29T18:36:30.759,-20139.704999999998,-45422.369999999995,-76340.295,-48110.805,-8023.679999999999,-15956.369999999999,8571.555,-58973.715,2.313385179146827,3.924978228287147,-2.5623723085379364,-9.778765420338607,-2.621485089217965,2.436905154108584,2.1855191302262886,2.412489680009344,0.383482905,-0.9279761400000001,0.06701643,17.45744,-49.79338,56.370439999999995,67.0
1774823790.7596774,8.58306884765625e-06,2026-03-29T22:36:30.759,2026-03-29T18:36:30.759,-20133.315,-45423.494999999995,-76343.08499999999,-48118.409999999996,-8032.7699999999995,-15965.82,8568.72,-58959.27,2.5033980452191447,2.350929972314947,-1.8449097479571108,-10.337303534621466,-5.151882290310785,0.520893424035612,0.40962129603739184,3.2258547536051583,0.383482905,-0.9279761400000001,0.06701643,17.45744,-49.79338,56.370439999999995,67.0
1774823790.798174,0.03849649429321289,2026-03-29T22:36:30.798,2026-03-29T18:36:30.798,-20134.215,-45430.65,-76352.805,-48134.115,-8054.82,-15982.83,8559.72,-58954.005,1.2717539145554688,-0.4593111346402898,-0.19435336449243698,-6.063571421820883,-5.270196132389502,-1.5863812833293773,-1.544388970228229,2.197948961677108,0.383482905,-0.9279761400000001,0.06701643,17.45744,-49.79338,56.370439999999995,67.0
1774823790.7981887,1.4781951904296875e-05,2026-03-29T22:36:30.798,2026-03-29T18:36:30.798,-20152.98,-45418.634999999995,-76328.81999999999,-48104.955,-8026.785,-15955.65,8568.855,-59001.615,-0.47729427800123614,-3.2416063422936032,1.3849746533351477,1.1438298452457225,-2.843544908185792,-2.9447927470526296,-2.8097380709084607,-0.03780124124731893,0.383482905,-0.9279761400000001,0.06701643,17.45744,-49.79338,56.370439999999995,67.0
1774823790.7982025,1.3828277587890625e-05,2026-03-29T22:36:30.798,2026-03-29T18:36:30.798,-20159.055,-45413.595,-76325.58,-48090.24,-8008.514999999999,-15941.97,8577.945,-59016.104999999996,-1.6308588883855388,-4.668411344486938,1.9758948548857342,7.945322660307018,1.0218945792290643,-2.967725806404584,-2.8298786483342355,-2.1900975336121515,0.37280178,-0.9379248450000001,0.072204405,20.00586,-52.265499999999996,56.0042,67.0
1774823790.7982068,4.291534423828125e-06,2026-03-29T22:36:30.798,2026-03-29T18:36:30.798,-20159.46,-45408.645,-76319.235,-48077.955,-7991.549999999999,-15940.305,8576.46,-59017.095,-1.5292671546934336,-3.9797085362180376,1.2716392721399834,11.112993268340869,4.4928769849079115,-1.6668637562928428,-1.599834583235494,-3.0314066331682725,0.37280178,-0.9379248450000001,0.072204405,20.00586,-52.265499999999996,56.0042,67.0
1774823790.7982123,5.4836273193359375e-06,2026-03-29T22:36:30.798,2026-03-29T18:36:30.798,-20148.39,-45403.155,-76317.165,-48079.08,-7988.085,-15941.564999999999,8576.775,-59004.09,-0.33277647271288163,-1.3761417279876795,-0.2520248982724441,9.075800001939527,5.888312794199093,0.3675720668305175,0.336644659502178,-2.0809756784399296,0.37280178,-0.9379248450000001,0.072204405,20.00586,-52.265499999999996,56.0042,67.0
1774823790.7982426,3.0279159545898438e-05,2026-03-29T22:36:30.798,2026-03-29T18:36:30.798,-20145.285,-45406.979999999996,-76322.87999999999,-48092.895,-8001.315,-15942.465,8576.595,-58992.704999999994,1.1072066737779778,2.025070287073576,-1.6165603853078117,2.7111126310507223,4.499523636637014,2.2332818163001757,2.128897424091939,0.12461118630625267,0.37280178,-0.9379248450000001,0.072204405,20.00586,-52.265499999999996,56.0042,67.0
1774823790.7982488,6.198883056640625e-06,2026-03-29T22:36:30.798,2026-03-29T18:36:30.798,-20145.375,-45400.005,-76303.98,-48079.619999999995,-7998.929999999999,-15932.205,8582.535,-58991.31,1.7862613369415896,4.671388200085705,-1.9192466485979256,-5.021471424506649,0.9485335920730726,3.109380188060492,2.9918703041748556,2.323947144650931,0.37280178,-0.9379248450000001,0.072204405,20.00586,-52.265499999999996,56.0042,67.0
1774823790.7982523,3.5762786865234375e-06,2026-03-29T22:36:30.798,2026-03-29T18:36:30.798,-20150.01,-45402.975,-76300.155,-48076.515,-8003.5199999999995,-15934.59,8578.935,-59001.119999999995,1.1746843081478937,5.28529695853418,-0.8838091847449245,-10.457472782098483,-3.0961470342587933,2.6088484433223442,2.5468759657881677,3.2306050417556245,0.37280178,-0.9379248450000001,0.072204405,20.00586,-52.265499999999996,56.0042,67.0
1774823790.798257,4.76837158203125e-06,2026-03-29T22:36:30.798,2026-03-29T18:36:30.798,-20147.219999999998,-45420.795,-76325.985,-48095.955,-8012.474999999999,-15937.56,8579.385,-58988.024999999994,-0.43541093228481126,3.477942410741133,0.9379382346417333,-10.973954183687242,-5.713604899394264,0.9432722373105852,0.9843767249071064,2.25969122773099,0.37280178,-0.9379248450000001,0.072204405,20.00586,-52.265499999999996,56.0042,67.0
1774823790.7982607,3.5762786865234375e-06,2026-03-29T22:36:30.798,2026-03-29T18:36:30.798,-20152.17,-45428.085,-76333.905,-48099.6,-8012.7,-15939.359999999999,8575.38,-58988.07,-2.0734075142399795,-0.027652530012992307,2.4466831449961486,-6.267477548934912,-5.651913219667099,-1.167018714649776,-1.019381639377212,-0.12000027164417405,0.37280178,-0.9379248450000001,0.072204405,20.00586,-52.265499999999996,56.0042,67.0
1774823790.798266,5.245208740234375e-06,2026-03-29T22:36:30.798,2026-03-29T18:36:30.798,-20155.815,-45421.064999999995,-76321.62,-48085.604999999996,-8004.24,-15935.939999999999,8570.295,-59000.579999999994,-2.652061261419308,-3.6851782556706025,2.6206470571425475,1.4650489592795912,-2.9307703277459223,-2.7991810379961506,-2.5944817766040327,-2.611867359369351,0.37280178,-0.9379248450000001,0.072204405,20.00586,-52.265499999999996,56.0042,67.0
1774823790.7982695,3.5762786865234375e-06,2026-03-29T22:36:30.798,2026-03-29T18:36:30.798,-20166.75,-45430.92,-76317.93,-48067.784999999996,-7996.275,-15937.38,8567.595,-58997.835,-1.6311073712742559,-5.810673556538247,1.1419627405464994,8.550288504961356,1.1663944095595566,-3.2233256667167804,-3.0524332830814305,-3.7867805996873214,0.37280178,-0.9379248450000001,0.072204405,20.00586,-52.265499999999996,56.0042,67.0
1774823790.7982738,4.291534423828125e-06,2026-03-29T22:36:30.798,2026-03-29T18:36:30.798,-20180.565,-45441.63,-76325.48999999999,-48060.63,-7993.259999999999,-15941.835,8571.555,-59000.31,0.6036970804698198,-5.359691916746048,-1.3398233176619925,11.590280490931725,4.706358949175247,-2.2221336721202065,-2.1839968507235565,-2.879039761877138,0.3576651,-0.946591815,0.08093241,22.87474,-54.99704,55.59218,67.0
1774823790.7982771,3.337860107421875e-06,2026-03-29T22:36:30.798,2026-03-29T18:36:30.798,-20156.67,-45419.534999999996,-76337.19,-48076.92,-8004.69,-15945.93,8575.38,-59011.695,2.8835192517406703,-2.4365124446432134,-3.4872491841468154,9.102812489274825,6.028512660910684,-0.1979846637871482,-0.3525803670893334,-0.24823973081046077,0.3576651,-0.946591815,0.08093241,22.87474,-54.99704,55.59218,67.0
1774823790.798282,4.76837158203125e-06,2026-03-29T22:36:30.798,2026-03-29T18:36:30.798,-20125.844999999998,-45404.549999999996,-76358.34,-48108.465,-8012.295,-15941.925,8584.244999999999,-59001.21,3.8698297297555526,1.7114215169334048,-3.980559333649555,2.2528336447890602,4.531046266439099,1.983916033144668,1.6574861003184844,2.7594332103185577,0.3576651,-0.946591815,0.08093241,22.87474,-54.99704,55.59218,67.0
1774823790.7982852,3.337860107421875e-06,2026-03-29T22:36:30.798,2026-03-29T18:36:30.798,-20142.0,-45425.79,-76389.3,-48137.895,-8013.78,-15942.24,8584.56,-58991.579999999994,2.815574115919477,5.228882311807294,-2.2824238756999793,-5.690224719311254,0.9455399111022745,3.358409388477214,2.9747833443539595,4.499190225989449,0.3576651,-0.946591815,0.08093241,22.87474,-54.99704,55.59218,67.0
1774823790.7982895,4.291534423828125e-06,2026-03-29T22:36:30.798,2026-03-29T18:36:30.798,-20146.95,-45414.585,-76366.17,-48142.845,-8016.21,-15943.904999999999,8582.355,-58990.725,0.05043847653322372,6.487041444340582,0.9663430534026692,-10.917715197121156,-3.0255313386569123,3.281080772432148,3.0159434073256906,3.9135124783283217,0.3576651,-0.946591815,0.08093241,22.87474,-54.99704,55.59218,67.0
1774823790.798293,3.5762786865234375e-06,2026-03-29T22:36:30.798,2026-03-29T18:36:30.798,-20172.51,-45406.755,-76318.02,-48121.56,-8013.87,-15940.439999999999,8584.83,-58998.645,-3.1021477921912144,4.8395768987373025,4.1747087101563825,-10.917444475151177,-5.526591687689363,1.7265380511185346,1.742104390952235,1.1438857810843694,0.3576651,-0.946591815,0.08093241,22.87474,-54.99704,55.59218,67.0
1774823790.8003044,0.0020112991333007812,2026-03-29T22:36:30.800,2026-03-29T18:36:30.800,-20184.57,-45405.405,-76284.98999999999,-48079.08,-7990.695,-15924.644999999999,8590.41,-59004.765,-4.96868719416437,0.9489663245155172,5.580888492206987,-5.689877181090125,-5.425086765470179,-0.6724816694553092,-0.31513608779325286,-2.474652181525037,0.3576651,-0.946591815,0.08093241,22.87474,-54.99704,55.59218,67.0
1774823790.800331,2.6702880859375e-05,2026-03-29T22:36:30.800,2026-03-29T18:36:30.800,-20156.67,-45408.104999999996,-76295.43,-48081.33,-7998.84,-15936.48,8585.82,-58994.82,-4.412209286577331,-3.4797067761976486,4.201251155018274,2.2486489754501866,-2.8282576994649227,-2.876155723858236,-2.27362663770864,-5.061810048766707,0.3576651,-0.946591815,0.08093241,22.87474,-54.99704,55.59218,67.0
1774823790.804531,0.004199981689453125,2026-03-29T22:36:30.804,2026-03-29T18:36:30.804,-20112.614999999998,-45409.725,-76311.765,-48092.939999999995,-8014.139999999999,-15952.455,8571.824999999999,-58974.03,-1.4928776830521573,-6.450707588566492,0.4440318861292188,9.080824056010666,0.9969580669236294,-3.88324078514418,-3.2767326924163216,-5.166203148937602,0.3576651,-0.946591815,0.08093241,22.87474,-54.99704,55.59218,67.0
1774823790.804544,1.2874603271484375e-05,2026-03-29T22:36:30.804,2026-03-29T18:36:30.804,-20113.02,-45417.645,-76315.77,-48092.265,-8012.25,-15950.115,8578.395,-58959.27,2.469755643794596,-6.581869456133929,-3.9731934071633974,11.532932233682399,4.248365094447369,-3.183064440175106,-2.866598947854728,-2.56175676423963,0.3576651,-0.946591815,0.08093241,22.87474,-54.99704,55.59218,67.0
1774823790.8094068,0.004862785339355469,2026-03-29T22:36:30.809,2026-03-29T18:36:30.809,-20125.71,-45414.99,-76311.36,-48084.705,-8005.59,-15945.345,8579.205,-58960.215,5.5030596974035175,-3.7494712525482954,-6.814547160034276,8.453032220881841,5.446883584022104,-1.0108240128972765,-1.1927367072675559,1.5639172547568896,0.3393546,-0.9468359550000001,0.08959938,20.4484,-57.6065,55.012299999999996,67.0
1774823790.8094249,1.811981201171875e-05,2026-03-29T22:36:30.809,2026-03-29T18:36:30.809,-20130.39,-45405.9,-76306.23,-48077.595,-7995.599999999999,-15935.4,8580.96,-58960.89,5.972627678187007,0.827824304107095,-6.458727933686032,1.3567806065161825,4.115947751383667,1.7206873903712325,1.0390583465469276,5.156230438968812,0.3393546,-0.9468359550000001,0.08959938,20.4484,-57.6065,55.012299999999996,67.0
1774823790.8131363,0.0037114620208740234,2026-03-29T22:36:30.813,2026-03-29T18:36:30.813,-20137.274999999998,-45407.924999999996,-76312.485,-48083.805,-7999.83,-15939.494999999999,8576.505,-58964.265,3.456354593480211,5.11624458142647,-2.7990254003053003,-6.3205713582742,0.9668744526669985,3.8005698733361526,2.862263126347607,6.321308262008349,0.3393546,-0.9468359550000001,0.08959938,20.4484,-57.6065,55.012299999999996,67.0
1774823790.8131573,2.09808349609375e-05,2026-03-29T22:36:30.813,2026-03-29T18:36:30.813,-20151.045,-45403.29,-76298.535,-48067.244999999995,-7988.264999999999,-15931.8,8572.185,-58989.42,-0.9633411332548381,7.176139029209226,2.5803090443323735,-10.896146657938775,-2.4795723773727825,4.255164623699567,3.467219119187281,4.31867226970991,0.3393546,-0.9468359550000001,0.08959938,20.4484,-57.6065,55.012299999999996,67.0
1774823790.8176992,0.004541873931884766,2026-03-29T22:36:30.817,2026-03-29T18:36:30.817,-20162.34,-45408.915,-76300.65,-48061.08,-7980.48,-15924.195,8578.664999999999,-59018.625,-5.170399695728043,6.044492910790799,7.093769701986028,-10.217283865814313,-4.634985039831329,2.8030691145119264,2.560966211048614,0.0009832764582405197,0.3393546,-0.9468359550000001,0.08959938,20.4484,-57.6065,55.012299999999996,67.0
1774823790.8177104,1.1205673217773438e-05,2026-03-29T22:36:30.817,2026-03-29T18:36:30.817,-20148.57,-45418.95,-76314.95999999999,-48077.955,-7996.139999999999,-15934.859999999999,8582.22,-58989.645,-7.041159136805346,2.1871631210790006,8.408852885178327,-4.681253268194299,-4.583519655802318,0.016872264559415342,0.509194749363544,-4.549782883401936,0.3393546,-0.9468359550000001,0.08959938,20.4484,-57.6065,55.012299999999996,67.0
1774823790.8212452,0.0035347938537597656,2026-03-29T22:36:30.821,2026-03-29T18:36:30.821,-20152.305,-45426.015,-76326.20999999999,-48090.645,-8005.41,-15943.5,8578.845,-58988.204999999994,-5.522033733023189,-2.69229019330545,5.651551096904198,2.9902892211638465,-2.471847555247463,-2.8979599132757765,-1.8087488930430071,-7.034067085945065,0.3393546,-0.9468359550000001,0.08959938,20.4484,-57.6065,55.012299999999996,67.0
1774823790.8212552,1.0013580322265625e-05,2026-03-29T22:36:30.821,2026-03-29T18:36:30.821,-20156.895,-45436.005,-76338.58499999999,-48093.705,-8006.445,-15946.785,8575.74,-58990.634999999995,-1.2096331392598711,-6.409162946012672,-0.06005258353549872,9.097432639264987,0.6176147725501885,-4.624527130984453,-3.3759666932073524,-6.099277006562847,0.3393546,-0.9468359550000001,0.08959938,20.4484,-57.6065,55.012299999999996,67.0
1774823790.8238063,0.0025510787963867188,2026-03-29T22:36:30.823,2026-03-29T18:36:30.823,-20151.315,-45424.08,-76329.94499999999,-48090.735,-8005.365,-15951.869999999999,8572.5,-58987.755,3.880715839349309,-7.281979569073142,-6.064874338791792,10.759572433325854,3.2231658018177085,-4.330673752945578,-3.4849336412288143,-2.0664477779236705,0.3393546,-0.9468359550000001,0.08959938,20.4484,-57.6065,55.012299999999996,67.0
1774823790.8238187,1.239776611328125e-05,2026-03-29T22:36:30.823,2026-03-29T18:36:30.823,-20140.605,-45408.06,-76310.50499999999,-48086.145,-8007.12,-15963.705,8571.645,-58974.93,7.269152787411337,-4.898757326280427,-9.41324720199741,7.284765726897192,4.203406502441059,-2.0689224049865627,-2.0584322461730262,3.1673189670597113,0.3393546,-0.9468359550000001,0.08959938,20.4484,-57.6065,55.012299999999996,67.0
1774823790.8282652,0.004446506500244141,2026-03-29T22:36:30.828,2026-03-29T18:36:30.828,-20135.34,-45413.685,-76316.805,-48103.38,-8020.755,-15970.904999999999,8570.07,-58952.115,7.230339139598265,-0.31380364396467253,-8.329267551308387,0.45417061653303403,3.241517748189946,1.2122461836026774,0.30196933759131117,7.028911174887854,0.320738925,-0.946591815,0.099181875,12.71158,-63.54264,56.217839999999995,67.0
1774823790.8282855,2.0265579223632812e-05,2026-03-29T22:36:30.828,2026-03-29T18:36:30.828,-20149.605,-45407.115,-76301.775,-48079.979999999996,-7998.389999999999,-15941.474999999999,8575.875,-58951.665,3.673236758628817,4.4198213308411765,-3.150666031383254,-6.394284309712154,0.9292197138196363,4.066597692059107,2.568662639769362,7.541250991492815,0.320738925,-0.946591815,0.099181875,12.71158,-63.54264,56.217839999999995,67.0
1774823790.8322978,0.004012346267700195,2026-03-29T22:36:30.832,2026-03-29T18:36:30.832,-20160.045,-45396.36,-76295.47499999999,-48064.365,-7979.759999999999,-15915.914999999999,8585.279999999999,-58980.104999999996,-1.767269208902526,7.1745281890894566,3.7502158619173542,-10.01096329015928,-1.5796224716955172,5.190365664327839,3.7364552666106032,4.335567701573294,0.320738925,-0.946591815,0.099181875,12.71158,-63.54264,56.217839999999995,67.0
1774823790.8323069,9.059906005859375e-06,2026-03-29T22:36:30.832,2026-03-29T18:36:30.832,-20148.48,-45412.965,-76320.18,-48091.5,-8008.92,-15938.055,8576.73,-58984.74,-6.491486117748836,6.711237033358609,9.06509303035692,-8.791480236928951,-3.1494417131518504,4.019359446706893,3.2705518664819055,-1.1141306313275863,0.320738925,-0.946591815,0.099181875,12.71158,-63.54264,56.217839999999995,67.0
1774823790.8368661,0.00455927848815918,2026-03-29T22:36:30.836,2026-03-29T18:36:30.836,-20124.315,-45422.909999999996,-76347.765,-48129.03,-8049.24,-15969.33,8566.785,-58966.064999999995,-8.18939201224913,3.2427254180435723,10.15442410048272,-3.492119542449516,-3.1835213092795533,1.008214225540941,1.353246181929402,-6.173805705541255,0.320738925,-0.946591815,0.099181875,12.71158,-63.54264,56.217839999999995,67.0
1774823790.8368871,2.09808349609375e-05,2026-03-29T22:36:30.836,2026-03-29T18:36:30.836,-20137.59,-45422.549999999996,-76342.77,-48123.585,-8049.0599999999995,-15971.22,8565.164999999999,-58972.14,-5.97740297793272,-1.6612189962521324,6.372196561419578,3.218066825318909,-1.8427190808747005,-2.545269236590229,-1.185476756257967,-8.33068750768467,0.320738925,-0.946591815,0.099181875,12.71158,-63.54264,56.217839999999995,67.0
1774823790.8402145,0.0033273696899414062,2026-03-29T22:36:30.840,2026-03-29T18:36:30.840,-20163.105,-45421.335,-76324.86,-48078.54,-8009.775,-15948.494999999999,8573.13,-59014.89,-0.8549804396250363,-5.785806594244636,-0.559455698627347,8.112086495841606,0.11347779262954116,-5.063059049254101,-3.2282335914570597,-6.446293673414806,0.320738925,-0.946591815,0.099181875,12.71158,-63.54264,56.217839999999995,67.0
1774823790.8402288,1.430511474609375e-05,2026-03-29T22:36:30.840,2026-03-29T18:36:30.840,-20155.995,-45419.939999999995,-76318.83,-48038.58,-7971.48,-15927.345,8578.574999999999,-59000.985,4.753190167824925,-7.2770213089289575,-7.339294307024981,8.975148592323958,1.7493741043768682,-5.3908330163118565,-3.8646051830032766,-1.3543903517086153,0.320738925,-0.946591815,0.099181875,12.71158,-63.54264,56.217839999999995,67.0
1774823790.845376,0.005147218704223633,2026-03-29T22:36:30.845,2026-03-29T18:36:30.845,-20152.35,-45427.77,-76336.37999999999,-48034.395,-7965.63,-15924.779999999999,8577.9,-58983.39,8.156214459147508,-5.482394870365291,-10.67644097169932,5.6177308691445935,2.407181818431037,-3.327003225875847,-2.799565335299739,4.508574727680495,0.320738925,-0.946591815,0.099181875,12.71158,-63.54264,56.217839999999995,67.0
1774823790.8453903,1.430511474609375e-05,2026-03-29T22:36:30.845,2026-03-29T18:36:30.845,-20148.614999999998,-45430.29,-76346.145,-48048.165,-7981.92,-15928.875,8573.445,-58976.909999999996,7.6976982424810725,-1.242618327803435,-8.908103688365562,-0.13780389901008416,1.9693035687093492,0.2658215471499904,-0.49136363666953425,8.276253299041107,0.320738925,-0.946591815,0.099181875,12.71158,-63.54264,56.217839999999995,67.0
1774823790.8481455,0.0027551651000976562,2026-03-29T22:36:30.848,2026-03-29T18:36:30.848,-20138.265,-45421.83,-76334.44499999999,-48073.77,-8000.865,-15932.88,8574.164999999999,-58965.615,3.56510560725206,3.4989357620083497,-2.842323689634568,-5.4426837086921696,0.8250128207739205,3.824773979969542,2.046185487320401,8.060688839238278,0.303771195,-0.953793945,0.10790988,12.2843,-65.86216,53.562599999999996,67.0
1774823790.8481743,2.8848648071289062e-05,2026-03-29T22:36:30.848,2026-03-29T18:36:30.848,-20152.079999999998,-45407.52,-76303.845,-48121.83,-8021.25,-15933.599999999999,8579.835,-58969.665,-2.2888013316882105,6.588815152558462,4.60666698020008,-7.8490729753816915,-0.40164073529553473,5.770418966039726,3.691478027931053,3.901293667887231,0.303771195,-0.953793945,0.10790988,12.2843,-65.86216,53.562599999999996,67.0
1774823790.8519676,0.0037932395935058594,2026-03-29T22:36:30.851,2026-03-29T18:36:30.851,-20169.855,-45380.025,-76260.645,-48129.884999999995,-8001.945,-15919.38,8597.07,-58976.865,-7.077880657042267,6.647692428380312,9.828343959304231,-6.456919598231446,-1.1911800468027363,5.208922673538235,3.7139582420643262,-2.223411270223923,0.303771195,-0.953793945,0.10790988,12.2843,-65.86216,53.562599999999996,67.0
1774823790.8519833,1.5735626220703125e-05,2026-03-29T22:36:30.851,2026-03-29T18:36:30.851,-20175.344999999998,-45390.78,-76271.265,-48066.21,-7969.59,-15919.335,8593.244999999999,-58980.555,-8.518543086274299,3.6940285321179864,10.285188333086786,-2.23436359418206,-1.3512077876251276,2.3398304673735946,2.1006177612482944,-7.341365316721649,0.303771195,-0.953793945,0.10790988,12.2843,-65.86216,53.562599999999996,67.0
1774823790.8561747,0.004191398620605469,2026-03-29T22:36:30.856,2026-03-29T18:36:30.856,-20155.59,-45419.58,-76318.965,-48054.645,-7986.014999999999,-15944.625,8573.4,-58988.25,-5.924500994197576,-0.8779985443602165,5.766896025658952,2.593670665149834,-1.0250736163580116,-1.6151804123759104,-0.4368061583048471,-8.93572715748049,0.303771195,-0.953793945,0.10790988,12.2843,-65.86216,53.562599999999996,67.0
1774823790.8561876,1.2874603271484375e-05,2026-03-29T22:36:30.856,2026-03-29T18:36:30.856,-20131.2,-45442.665,-76359.825,-48083.67,-8011.665,-15964.83,8561.52,-58972.77,-0.5330291943202828,-4.952853461256623,-1.4985450423437012,5.723688031397333,-0.5201525933877161,-4.9360943484743105,-2.7777811266988395,-6.187700583753694,0.303771195,-0.953793945,0.10790988,12.2843,-65.86216,53.562599999999996,67.0
1774823790.8631716,0.00698399543762207,2026-03-29T22:36:30.863,2026-03-29T18:36:30.863,-20128.005,-45438.39,-76360.14,-48099.735,-8013.78,-15958.394999999999,8566.515,-58959.72,5.091663047979331,-6.674706383908628,-7.940993550876784,5.89329608047031,-0.08664922530825668,-6.154193860016888,-3.8908205299272995,-0.39768478984466765,0.303771195,-0.953793945,0.10790988,12.2843,-65.86216,53.562599999999996,67.0
1774823790.8632011,2.956390380859375e-05,2026-03-29T22:36:30.863,2026-03-29T18:36:30.863,-20132.954999999998,-45424.755,-76343.58,-48111.03,-8002.215,-15940.98,8575.154999999999,-58963.68,8.28690659127732,-5.29952781025021,-10.413281139238453,3.388780200880154,0.2105598296325052,-4.70000745891867,-3.2905388359309966,5.6317547850619905,0.303771195,-0.953793945,0.10790988,12.2843,-65.86216,53.562599999999996,67.0
1774823790.8661125,0.0029113292694091797,2026-03-29T22:36:30.866,2026-03-29T18:36:30.866,-20132.774999999998,-45419.534999999996,-76343.895,-48137.13,-8006.3099999999995,-15937.875,8586.765,-58957.29,7.559067058043559,-1.5243143988514143,-7.748650593616113,-0.2633522453155378,0.4594401265469142,-1.1647682230155278,-1.250190344456504,8.957267530824561,0.303771195,-0.953793945,0.10790988,12.2843,-65.86216,53.562599999999996,67.0
1774823790.8661215,9.059906005859375e-06,2026-03-29T22:36:30.866,2026-03-29T18:36:30.866,-20142.225,-45404.955,-76313.11499999999,-48122.64,-7995.465,-15919.199999999999,8592.615,-58967.729999999996,3.2835602750132007,2.8555776296186774,-1.3322506036783992,-3.192917986117092,0.7515021017044079,2.9421554596511115,1.3236952965017286,7.936813205780552,0.303771195,-0.953793945,0.10790988,12.2843,-65.86216,53.562599999999996,67.0
1774823790.8759413,0.009819746017456055,2026-03-29T22:36:30.875,2026-03-29T18:36:30.875,-20143.215,-45404.415,-76299.075,-48101.759999999995,-8003.745,-15928.199999999999,8588.43,-58965.255,-2.491193813756323,5.79628037379779,5.601510044942609,-4.15778424144265,1.0374099183089776,5.838691423556238,3.2964855923504217,3.0436302581202077,0.286925535,-0.95727294,0.11743134,10.55992,-64.3209,51.48724,67.0
1774823790.8759608,1.9550323486328125e-05,2026-03-29T22:36:30.875,2026-03-29T18:36:30.875,-20139.57,-45402.84,-76289.12999999999,-48077.189999999995,-8000.639999999999,-15936.75,8584.83,-58958.595,-7.03225726766396,5.9617739415779765,9.595524969440254,-3.0807408358406785,1.1051050713739057,6.241826426571213,3.8081184033400626,-3.352565816191452,0.286925535,-0.95727294,0.11743134,10.55992,-64.3209,51.48724,67.0
1774823790.8759751,1.430511474609375e-05,2026-03-29T22:36:30.875,2026-03-29T18:36:30.875,-20140.515,-45404.549999999996,-76286.83499999999,-48066.795,-7990.424999999999,-15941.835,8585.46,-58956.345,-8.222659828183806,3.3383542588729056,8.7041208154237,-0.9139089335812897,0.7140431600939754,3.9326064647033765,2.6494253421555762,-8.136040508453505,0.286925535,-0.95727294,0.11743134,10.55992,-64.3209,51.48724,67.0
1774823790.87598,4.76837158203125e-06,2026-03-29T22:36:30.875,2026-03-29T18:36:30.875,-20144.07,-45411.435,-76304.47499999999,-48082.59,-7998.255,-15950.025,8578.755,-58961.52,-5.551785580989518,-0.7783903610862816,3.461312499763464,1.026358962461339,-0.1928252084058221,-0.1322671280488097,0.346945699983012,-8.967097329219909,0.286925535,-0.95727294,0.11743134,10.55992,-64.3209,51.48724,67.0
1774823790.8759854,5.4836273193359375e-06,2026-03-29T22:36:30.875,2026-03-29T18:36:30.875,-20142.809999999998,-45411.075,-76307.22,-48084.255,-8000.054999999999,-15941.295,8579.43,-58958.909999999996,-0.3309530945040175,-4.412975406411747,-3.406254714869149,1.8346129595623344,-1.346143006410212,-4.216146543816916,-2.0775909102507124,-5.430154237603808,0.286925535,-0.95727294,0.11743134,10.55992,-64.3209,51.48724,67.0
1774823790.8759892,3.814697265625e-06,2026-03-29T22:36:30.875,2026-03-29T18:36:30.875,-20140.739999999998,-45406.53,-76302.315,-48073.725,-7988.445,-15925.32,8582.895,-58956.075,4.954590667521642,-5.853898067806486,-8.377044419056949,1.4555018722567024,-2.199904769023267,-6.541984445805821,-3.5625307393862684,0.7570978070501894,0.286925535,-0.95727294,0.11743134,10.55992,-64.3209,51.48724,67.0
1774823790.8804743,0.004485130310058594,2026-03-29T22:36:30.880,2026-03-29T18:36:30.880,-20142.495,-45408.915,-76304.43,-48065.58,-7979.715,-15919.56,8584.244999999999,-58953.195,7.835000210837389,-4.4626463886062915,-8.933944908597748,0.5667033002128141,-2.1885092673959727,-6.0624081313631875,-3.4725854799389104,6.579092357152369,0.286925535,-0.95727294,0.11743134,10.55992,-64.3209,51.48724,67.0
1774823790.8804924,1.811981201171875e-05,2026-03-29T22:36:30.880,2026-03-29T18:36:30.880,-20150.73,-45423.765,-76320.09,-48077.415,-7993.485,-15932.519999999999,8581.185,-58955.04,7.014432151149576,-0.9642723098131244,-4.848581827465421,0.024490282282899026,-1.0708884992344443,-2.9288795236964913,-1.8708575845822122,9.195252079661426,0.286925535,-0.95727294,0.11743134,10.55992,-64.3209,51.48724,67.0
1774823790.8842697,0.0037772655487060547,2026-03-29T22:36:30.884,2026-03-29T18:36:30.884,-20149.965,-45429.615,-76340.97,-48094.244999999995,-8006.535,-15940.845,8581.095,-58952.204999999994,2.9535328427551817,2.9159811573350276,1.7077244808390188,0.24531066709505464,0.837577695394413,1.5484765909889202,0.5197240156216522,7.329323543172671,0.286925535,-0.95727294,0.11743134,10.55992,-64.3209,51.48724,67.0
1774823790.8842912,2.1457672119140625e-05,2026-03-29T22:36:30.884,2026-03-29T18:36:30.884,-20142.36,-45423.18,-76349.79,-48101.715,-8007.66,-15942.24,8581.455,-58944.555,-2.385422730882282,5.292899288468639,7.288152249882133,0.9211695432507669,2.711923065543357,5.444329279569402,2.6433960433442616,1.8940131322111626,0.286925535,-0.95727294,0.11743134,10.55992,-64.3209,51.48724,67.0
1774823790.8883731,0.0040819644927978516,2026-03-29T22:36:30.888,2026-03-29T18:36:30.888,-20149.92,-45430.2,-76353.345,-48108.24,-8006.94,-15944.445,8578.8,-58949.369999999995,-6.491163952168851,5.033111684619998,8.958043521361082,1.2504944581548736,3.570599584714466,7.042024551851026,3.578704361549496,-4.455686416298549,0.265929495,-0.950742195,0.117614445,-1.1444999999999999,-67.6018,53.68468,67.0
1774823790.8883915,1.8358230590820312e-05,2026-03-29T22:36:30.888,2026-03-29T18:36:30.888,-20151.315,-45429.479999999996,-76344.435,-48107.205,-8001.99,-15942.644999999999,8578.35,-58947.525,-7.489332549650887,2.2990276830791663,5.827868734812498,0.5391072294749575,2.785630949443133,5.588090654497804,2.938849272645758,-8.621638671244527,0.265929495,-0.950742195,0.117614445,-1.1444999999999999,-67.6018,53.68468,67.0
1774823790.892347,0.0039556026458740234,2026-03-29T22:36:30.892,2026-03-29T18:36:30.892,-20148.434999999998,-45418.77,-76318.33499999999,-48096.09,-7995.465,-15938.279999999999,8579.925,-58942.755,-4.999643099698169,-1.5375963215170796,-0.46497230969484743,-1.2167803033580593,0.4862450541005022,1.6473607473074936,1.0313314761876868,-8.577256010815521,0.265929495,-0.950742195,0.117614445,-1.1444999999999999,-67.6018,53.68468,67.0
1774823790.8923619,1.4781951904296875e-05,2026-03-29T22:36:30.892,2026-03-29T18:36:30.892,-20152.395,-45411.255,-76301.685,-48096.405,-7998.84,-15939.72,8579.52,-58952.88,-0.27191993145470017,-4.570703015485768,-6.588278414301463,-3.1633923588771418,-2.3866421190186182,-3.108308878067159,-1.2885834290766491,-4.355615714526715,0.265929495,-0.950742195,0.117614445,-1.1444999999999999,-67.6018,53.68468,67.0
1774823790.8960776,0.0037157535552978516,2026-03-29T22:36:30.896,2026-03-29T18:36:30.896,-20144.52,-45409.14,-76300.965,-48097.439999999995,-8010.764999999999,-15952.14,8576.775,-58945.454999999994,4.442095815577412,-5.296232305333354,-9.246720978743394,-3.99813495949226,-4.456577450773774,-6.603498071781417,-3.0011299564811122,1.9719451161747057,0.265929495,-0.950742195,0.117614445,-1.1444999999999999,-67.6018,53.68468,67.0
1774823790.8960972,1.9550323486328125e-05,2026-03-29T22:36:30.896,2026-03-29T18:36:30.896,-20133.719999999998,-45411.57,-76305.465,-48093.255,-8017.0199999999995,-15966.18,8574.57,-58924.395,6.965065307425021,-3.3535921409161586,-6.924756785939271,-2.7608162603053517,-4.57303209291047,-7.262513366884313,-3.3704759239896087,7.313902662572361,0.265929495,-0.950742195,0.117614445,-1.1444999999999999,-67.6018,53.68468,67.0
1774823790.9016428,0.005545616149902344,2026-03-29T22:36:30.901,2026-03-29T18:36:30.901,-20132.505,-45415.53,-76314.23999999999,-48093.299999999996,-8014.95,-15970.545,8570.295,-58912.74,6.202412441921874,0.2917781123216739,-0.7300028779363628,0.44893650182339545,-2.4392154489426328,-4.721292232402802,-2.261310964538933,9.071999226047701,0.265929495,-0.950742195,0.117614445,-1.1444999999999999,-67.6018,53.68468,67.0
1774823790.9016595,1.6689300537109375e-05,2026-03-29T22:36:30.901,2026-03-29T18:36:30.901,-20132.01,-45420.255,-76325.84999999999,-48101.04,-8017.2,-15966.09,8569.215,-58905.54,2.6147740139811084,3.8185338967578217,6.124335659477868,4.2921473270940975,1.1319663648233975,-0.02594145220922776,-0.18745794142417305,6.407616223725178,0.265929495,-0.950742195,0.117614445,-1.1444999999999999,-67.6018,53.68468,67.0
1774823790.9043105,0.0026509761810302734,2026-03-29T22:36:30.904,2026-03-29T18:36:30.904,-20146.274999999998,-45406.395,-76302.495,-48071.34,-7986.554999999999,-15933.599999999999,8577.494999999999,-58943.564999999995,-2.047819212053892,5.447008385904577,9.960692252191516,6.741101653764089,4.51070470904264,4.789234552549736,1.924390127316526,0.6424362322542146,0.265929495,-0.950742195,0.117614445,-1.1444999999999999,-67.6018,53.68468,67.0
1774823790.904334,2.3603439331054688e-05,2026-03-29T22:36:30.904,2026-03-29T18:36:30.904,-20143.71,-45404.235,-76291.02,-48046.365,-7967.115,-15922.664999999999,8582.625,-58936.049999999996,-5.601103670420084,4.326391054321736,8.572693854386886,6.13798479799866,5.99648067493818,7.579173935639897,3.147943015852583,-5.398480112056134,0.265929495,-0.950742195,0.117614445,-1.1444999999999999,-67.6018,53.68468,67.0
1774823790.9081311,0.0037970542907714844,2026-03-29T22:36:30.908,2026-03-29T18:36:30.908,-20144.925,-45415.305,-76307.04,-48058.515,-7978.59,-15936.255,8574.21,-58917.555,-6.45263236486218,0.9729289593136035,2.449490527362522,2.2122413022392307,4.674680257673766,7.045147154533441,2.9638575217344503,-8.7741606194292,0.242492055,-0.96972408,0.104797095,1.4802199999999999,-71.53887999999999,59.269839999999995,67.0
1774823790.9081483,1.71661376953125e-05,2026-03-29T22:36:30.908,2026-03-29T18:36:30.908,-20150.415,-45398.655,-76292.73,-48055.409999999996,-7966.755,-15914.519999999999,8587.485,-58941.09,-4.315706605652808,-2.964585332275776,-5.375222145599419,-3.5357654426244394,0.9514067210390827,3.344186941311276,1.4812610736802676,-7.862802938565288,0.242492055,-0.96972408,0.104797095,1.4802199999999999,-71.53887999999999,59.269839999999995,67.0
1774823790.9124713,0.004323005676269531,2026-03-29T22:36:30.912,2026-03-29T18:36:30.912,-20134.62,-45406.575,-76311.81,-48084.479999999996,-7993.844999999999,-15935.58,8584.47,-58924.845,-0.2913451860336358,-5.507264489205739,-10.817322680476686,-8.386037394584935,-3.5363926103051644,-1.9372436024092452,-0.6205970682445129,-3.142517268226188,0.242492055,-0.96972408,0.104797095,1.4802199999999999,-71.53887999999999,59.269839999999995,67.0
1774823790.9124863,1.5020370483398438e-05,2026-03-29T22:36:30.912,2026-03-29T18:36:30.912,-20132.594999999998,-45422.369999999995,-76335.66,-48094.784999999996,-8007.75,-15954.119999999999,8576.1,-58902.93,3.695390422237378,-5.32905433651702,-10.84683816720494,-9.695618145032883,-6.641075463768022,-6.457095047761868,-2.4012682773099594,3.059052170316256,0.242492055,-0.96972408,0.104797095,1.4802199999999999,-71.53887999999999,59.269839999999995,67.0
1774823790.9190872,0.006600856781005859,2026-03-29T22:36:30.919,2026-03-29T18:36:30.919,-20132.145,-45431.055,-76347.54,-48091.005,-8010.179999999999,-15963.66,8565.885,-58892.939999999995,5.817645549440312,-2.4358522849844646,-5.12785542424833,-6.317519414649633,-6.7375230513539455,-8.156612322085353,-3.0792065063194403,7.715496067627735,0.242492055,-0.96972408,0.104797095,1.4802199999999999,-71.53887999999999,59.269839999999995,67.0
1774823790.91911,2.288818359375e-05,2026-03-29T22:36:30.919,2026-03-29T18:36:30.919,-20148.344999999998,-45422.729999999996,-76316.31,-48071.52,-7992.855,-15946.92,8574.93,-58919.49,5.185346281347357,1.8030314256491702,3.6778329173765076,0.6128428168535571,-3.5694113038807203,-6.203724236781212,-2.375895302206182,8.582578064789905,0.242492055,-0.96972408,0.104797095,1.4802199999999999,-71.53887999999999,59.269839999999995,67.0
1774823790.9191308,2.0742416381835938e-05,2026-03-29T22:36:30.919,2026-03-29T18:36:30.919,-20151.675,-45410.174999999996,-76308.165,-48084.075,-7994.205,-15938.055,8587.395,-58938.704999999994,2.214840619650948,5.301593956318917,11.153708204873244,8.010871422372528,1.530759811480134,-1.4061521539896584,-0.6321258228420357,5.28275088810558,0.242492055,-0.96972408,0.104797095,1.4802199999999999,-71.53887999999999,59.269839999999995,67.0
1774823790.9191415,1.0728836059570312e-05,2026-03-29T22:36:30.919,2026-03-29T18:36:30.919,-20135.204999999998,-45408.104999999996,-76315.995,-48097.845,-8006.04,-15947.279999999999,8580.914999999999,-58905.314999999995,-1.621674801093143,6.277325946150824,13.336201681236183,12.229334185095574,6.1987987078312115,4.113308559053004,1.3530551143892937,-0.5323178159715788,0.242492055,-0.96972408,0.104797095,1.4802199999999999,-71.53887999999999,59.269839999999995,67.0
1774823790.924028,0.0048863887786865234,2026-03-29T22:36:30.924,2026-03-29T18:36:30.924,-20141.64,-45427.905,-76345.245,-48106.259999999995,-8012.07,-15949.439999999999,8573.76,-58896.54,-4.523674620036114,4.148057860446245,8.785738820952147,10.86818838641558,8.14180109018731,7.854316643577272,2.6862908046590617,-6.0103139899776865,0.242492055,-0.96972408,0.104797095,1.4802199999999999,-71.53887999999999,59.269839999999995,67.0
1774823790.9241054,7.748603820800781e-05,2026-03-29T22:36:30.924,2026-03-29T18:36:30.924,-20159.055,-45438.705,-76362.525,-48099.78,-7999.74,-15938.369999999999,8578.395,-58921.829999999994,-5.208237717002018,-0.14220542810741535,-0.5507750013380545,4.103568612610061,6.268663146450613,8.076505925820177,2.7820602355743107,-8.501610484232357,0.242492055,-0.96972408,0.104797095,1.4802199999999999,-71.53887999999999,59.269839999999995,67.0
1774823790.9283583,0.004252910614013672,2026-03-29T22:36:30.928,2026-03-29T18:36:30.928,-20154.239999999998,-45423.945,-76334.265,-48081.33,-7990.65,-15934.095,8582.985,-58919.265,-3.4768265032205976,-4.544593976521115,-10.1771700105615,-5.18755706147306,1.2883368545229579,4.617349843992863,1.6220516004242176,-6.84504404605622,0.228331935,-1.00402575,0.09057594000000001,21.486079999999998,-69.46352,61.314679999999996,67.0
1774823790.928378,1.9788742065429688e-05,2026-03-29T22:36:30.928,2026-03-29T18:36:30.928,-20145.555,-45419.805,-76332.23999999999,-48097.665,-7998.75,-15940.619999999999,8580.69,-58908.78,-0.2530832096899219,-6.885053871638129,-15.223827162861456,-12.660353923854737,-4.546958907519306,-0.997775526376345,-0.24412690403983528,-1.9102181420799509,0.228331935,-1.00402575,0.09057594000000001,21.486079999999998,-69.46352,61.314679999999996,67.0
1774823790.9352424,0.006864309310913086,2026-03-29T22:36:30.935,2026-03-29T18:36:30.935,-20134.485,-45414.674999999996,-76321.62,-48111.119999999995,-8009.009999999999,-15948.675,8578.664999999999,-58890.689999999995,2.900785487567484,-5.933371203383856,-12.904505759697292,-14.559630962737877,-8.467124093984687,-6.224000865674889,-1.955480465826672,3.8575528599268267,0.228331935,-1.00402575,0.09057594000000001,21.486079999999998,-69.46352,61.314679999999996,67.0
1774823790.9352627,2.0265579223632812e-05,2026-03-29T22:36:30.935,2026-03-29T18:36:30.935,-20129.355,-45417.689999999995,-76324.095,-48115.17,-8019.764999999999,-15960.689999999999,8574.164999999999,-58879.079999999994,4.539332946065547,-2.0370671605398494,-4.016169385891564,-9.615258561649876,-8.507689969738253,-8.653363808147404,-2.7353211183191264,7.652322617353323,0.228331935,-1.00402575,0.09057594000000001,21.486079999999998,-69.46352,61.314679999999996,67.0
1774823790.9352813,1.8596649169921875e-05,2026-03-29T22:36:30.935,2026-03-29T18:36:30.935,-20126.745,-45416.43,-76322.925,-48107.159999999996,-8021.79,-15969.375,8570.295,-58870.619999999995,3.9966184223069714,3.002636339227335,7.312928722859496,0.1857484365767523,-4.494739222415387,-7.132423140854733,-2.244972975314942,7.677442734761437,0.228331935,-1.00402575,0.09057594000000001,21.486079999999998,-69.46352,61.314679999999996,67.0
1774823790.9352882,6.9141387939453125e-06,2026-03-29T22:36:30.935,2026-03-29T18:36:30.935,-20146.995,-45402.119999999995,-76283.955,-48058.695,-7988.219999999999,-15953.894999999999,8573.535,-58900.68,1.6527263830777392,6.770587276658042,15.56137392185767,10.396487713189066,1.803204116411559,-2.318536918067154,-0.7338703014947936,3.9993393072005663,0.228331935,-1.00402575,0.09057594000000001,21.486079999999998,-69.46352,61.314679999999996,67.0
1774823790.9404767,0.005188465118408203,2026-03-29T22:36:30.940,2026-03-29T18:36:30.940,-20153.7,-45398.025,-76269.59999999999,-48039.345,-7970.94,-15939.09,8577.539999999999,-58899.195,-1.3000924894714452,7.398898217366427,16.520336239597412,16.157618848875515,7.459805210742405,3.597392458513804,1.081945854625882,-1.5220494786302905,0.228331935,-1.00402575,0.09057594000000001,21.486079999999998,-69.46352,61.314679999999996,67.0
1774823790.9405012,2.4557113647460938e-05,2026-03-29T22:36:30.940,2026-03-29T18:36:30.940,-20166.614999999998,-45411.435,-76282.605,-48051.134999999995,-7975.304999999999,-15930.404999999999,8579.789999999999,-58913.954999999994,-3.457128339286256,4.489352909046151,9.43421884614068,14.538076371819457,9.761150650696647,7.888601516883741,2.3557896592292478,-6.174651787190656,0.228331935,-1.00402575,0.09057594000000001,21.486079999999998,-69.46352,61.314679999999996,67.0
1774823790.9447033,0.004202127456665039,2026-03-29T22:36:30.944,2026-03-29T18:36:30.944,-20145.195,-45408.735,-76295.655,-48075.345,-7997.759999999999,-15938.64,8577.585,-58911.075,-3.8678627125989746,-0.6578624212293479,-2.511108864302815,6.028349445954904,7.514718602848447,8.55608610514296,2.504485951760565,-7.7307097921786925,0.228331935,-1.00402575,0.09057594000000001,21.486079999999998,-69.46352,61.314679999999996,67.0
1774823790.9447172,1.3828277587890625e-05,2026-03-29T22:36:30.944,2026-03-29T18:36:30.944,-20140.425,-45416.61,-76316.625,-48100.049999999996,-8018.1449999999995,-15948.449999999999,8573.985,-58901.534999999996,-2.45412662712973,-5.634217597521349,-13.642102757186516,-5.576088161182502,1.6622828605618825,5.26935410398173,1.4774296554587851,-5.517872404445737,0.228331935,-1.00402575,0.09057594000000001,21.486079999999998,-69.46352,61.314679999999996,67.0
1774823790.950594,0.005876779556274414,2026-03-29T22:36:30.950,2026-03-29T18:36:30.950,-20152.079999999998,-45425.115,-76324.77,-48104.865,-8017.965,-15944.984999999999,8576.235,-58902.884999999995,0.003473979339690045,-8.060324588797565,-18.520988107816564,-14.895047920215063,-5.116421740125065,-0.4629142512602171,-0.2245853161803747,-0.7080129564624875,0.215392515,-1.01830794,0.07348614,29.94012,-69.5856,64.22934,67.0
1774823790.9506133,1.9311904907226562e-05,2026-03-29T22:36:30.950,2026-03-29T18:36:30.950,-20155.005,-45429.03,-76326.435,-48086.549999999996,-7997.4,-15936.119999999999,8574.48,-58903.74,2.2821386314821366,-6.729167463075979,-14.61912222214818,-17.494727810274764,-9.641484571870212,-5.9832326204386055,-1.7890637639533036,4.299294449605146,0.215392515,-1.01830794,0.07348614,29.94012,-69.5856,64.22934,67.0
1774823790.950631,1.7642974853515625e-05,2026-03-29T22:36:30.950,2026-03-29T18:36:30.950,-20153.114999999998,-45427.005,-76321.8,-48068.189999999995,-7981.29,-15931.619999999999,8573.31,-58894.784999999996,3.31933517352049,-2.2029493054352756,-3.618037563010006,-12.021794516895529,-9.735006493558382,-8.721877610857687,-2.4770631587720713,7.0759867911937615,0.215392515,-1.01830794,0.07348614,29.94012,-69.5856,64.22934,67.0
1774823790.9506383,7.3909759521484375e-06,2026-03-29T22:36:30.950,2026-03-29T18:36:30.950,-20148.975,-45415.08,-76303.035,-48060.674999999996,-7980.21,-15930.18,8574.255,-58880.79,2.706855199032832,3.430921466234044,9.328862566802798,-0.9019419002675079,-5.273025139094444,-7.40208530119754,-1.972285120626084,6.347191555697941,0.215392515,-1.01830794,0.07348614,29.94012,-69.5856,64.22934,67.0
1774823790.9562805,0.0056421756744384766,2026-03-29T22:36:30.956,2026-03-29T18:36:30.956,-20149.155,-45415.35,-76300.47,-48052.71,-7983.405,-15933.24,8575.785,-58875.165,0.8476545308776069,7.5361325181203735,18.044132989886734,10.755671257553974,1.7226968961345057,-2.64436121068446,-0.5289029339259486,2.5784134535707244,0.215392515,-1.01830794,0.07348614,29.94012,-69.5856,64.22934,67.0
1774823790.9563084,2.7894973754882812e-05,2026-03-29T22:36:30.956,2026-03-29T18:36:30.956,-20154.555,-45416.744999999995,-76302.36,-48045.06,-7979.04,-15928.695,8579.88,-58898.88,-1.2824309466662418,8.173737877360779,18.306534202347628,17.543383241648346,8.01013863989287,3.3204039444714786,1.152121877985296,-2.3029364958465175,0.215392515,-1.01830794,0.07348614,29.94012,-69.5856,64.22934,67.0
1774823790.9608266,0.004518270492553711,2026-03-29T22:36:30.960,2026-03-29T18:36:30.960,-20147.76,-45405.99,-76291.875,-48049.74,-7989.705,-15937.74,8576.685,-58900.229999999996,-2.635173619507402,5.023621702271099,9.911448430293753,16.298667502355602,10.641529295026201,7.698677005142611,2.2596948025141597,-5.891533526069353,0.215392515,-1.01830794,0.07348614,29.94012,-69.5856,64.22934,67.0
1774823790.9608476,2.09808349609375e-05,2026-03-29T22:36:30.960,2026-03-29T18:36:30.960,-20151.719999999998,-45434.07,-76326.165,-48084.03,-8008.514999999999,-15948.09,8575.11,-58887.854999999996,-2.6003895831804,-0.45969975308380934,-3.2018712109784317,7.593870233468241,8.353747591167746,8.449973976629382,2.2619140803355795,-6.491941889878029,0.215392515,-1.01830794,0.07348614,29.94012,-69.5856,64.22934,67.0
1774823790.9673252,0.0064775943756103516,2026-03-29T22:36:30.967,2026-03-29T18:36:30.967,-20158.739999999998,-45457.244999999995,-76362.20999999999,-48115.619999999995,-8010.0,-15946.83,8575.785,-58886.82,-1.2801304041426487,-5.731441070712014,-14.828590736039157,-4.536991687554847,2.1749768624247605,5.247312230097574,1.1618136359293159,-3.9225260188708164,0.215392515,-1.01830794,0.07348614,29.94012,-69.5856,64.22934,67.0
1774823790.9673495,2.4318695068359375e-05,2026-03-29T22:36:30.967,2026-03-29T18:36:30.967,-20162.114999999998,-45451.71,-76368.645,-48129.03,-8004.915,-15944.67,8578.125,-58887.585,0.595815942577706,-8.353879361281829,-19.474010178238643,-14.499185944027301,-5.043852890374749,-0.3741926353698017,-0.5037416598326104,0.4469106051406795,0.215392515,-1.01830794,0.07348614,29.94012,-69.5856,64.22934,67.0
1774823790.9768198,0.009470224380493164,2026-03-29T22:36:30.976,2026-03-29T18:36:30.976,-20152.395,-45437.534999999996,-76364.595,-48117.869999999995,-8010.674999999999,-15957.045,8572.904999999999,-58884.795,2.057622641386222,-7.136271426563878,-14.982336276086977,-17.755681433930167,-9.956129561510409,-5.751411810873308,-1.9226619069982374,4.418432054807148,0.2050776,-1.01342514,0.06323226,24.416,-71.30998,66.42678,67.0
1774823790.9768493,2.956390380859375e-05,2026-03-29T22:36:30.976,2026-03-29T18:36:30.976,-20138.265,-45422.955,-76343.31,-48110.49,-8026.065,-15968.205,8568.404999999999,-58874.895,2.3858695925297964,-2.6785436640905065,-3.546453607770355,-12.920202989096992,-10.282062105190615,-8.359657914903359,-2.400445091231842,6.07094201586265,0.2050776,-1.01342514,0.06323226,24.416,-71.30998,66.42678,67.0
1774823790.9768724,2.3126602172851562e-05,2026-03-29T22:36:30.976,2026-03-29T18:36:30.976,-20120.13,-45387.54,-76286.11499999999,-48092.445,-8024.8949999999995,-15963.48,8571.42,-58858.29,1.4609324894272993,2.931159428459128,9.379016522796942,-2.3473528516549806,-5.87219234773423,-7.006921311629941,-1.6982460028258861,4.691456244667588,0.2050776,-1.01342514,0.06323226,24.416,-71.30998,66.42678,67.0
1774823790.9768827,1.0251998901367188e-05,2026-03-29T22:36:30.976,2026-03-29T18:36:30.976,-20133.63,-45397.08,-76291.515,-48087.72,-8004.87,-15948.0,8572.994999999999,-58863.104999999996,-0.19633447296824472,7.110303315498076,17.716332039215963,9.030624055385454,1.2265032253770414,-2.3867546197971303,-0.1521468722477705,1.080367430992389,0.2050776,-1.01342514,0.06323226,24.416,-71.30998,66.42678,67.0
1774823790.976895,1.239776611328125e-05,2026-03-29T22:36:30.976,2026-03-29T18:36:30.976,-20148.75,-45404.82,-76293.94499999999,-48062.52,-7978.815,-15933.779999999999,8578.98,-58866.075,-1.7045837570929032,7.987613603371634,17.662794868588136,16.038276908852026,7.729827765777274,3.270644591577641,1.4860140841598686,-2.898480883563364,0.2050776,-1.01342514,0.06323226,24.416,-71.30998,66.42678,67.0
1774823790.976904,8.821487426757812e-06,2026-03-29T22:36:30.976,2026-03-29T18:36:30.976,-20162.34,-45412.83,-76297.68,-48058.064999999995,-7974.495,-15930.314999999999,8584.065,-58884.884999999995,-2.2766526809019982,5.250334884111612,9.448683427035927,15.64260074919838,10.64732551802052,7.276297086648778,2.411567463998794,-5.275229873627581,0.2050776,-1.01342514,0.06323226,24.416,-71.30998,66.42678,67.0
1774823790.9803503,0.003446340560913086,2026-03-29T22:36:30.980,2026-03-29T18:36:30.980,-20136.6,-45409.994999999995,-76313.925,-48080.115,-7990.92,-15939.855,8579.025,-58877.865,-1.61949983764879,0.245146776065615,-2.8685575317514007,8.276209521674069,8.666279737865857,7.767612069788247,2.15941771099909,-4.948790517055134,0.2050776,-1.01342514,0.06323226,24.416,-71.30998,66.42678,67.0
