unix_time_s,dt_s,UTC,LOCAL,EMG1_Raw,EMG2_Raw,EMG3_Raw,EMG4_Raw,EMG5_Raw,EMG6_Raw,EMG7_Raw,EMG8_Raw,EMG1_Filtered,EMG2_Filtered,EMG3_Filtered,EMG4_Filtered,EMG5_Filtered,EMG6_Filtered,EMG7_Filtered,EMG8_Filtered,Accel1_Raw,Accel2_Raw,Accel3_Raw,Gyro1_Raw,Gyro2_Raw,Gyro3_Raw,Battery
1774822142.0700357,,2026-03-29T22:09:02.070,2026-03-29T18:09:02.070,-32688.899999999998,-48908.115,-84698.145,-49960.575,-14505.66,-19700.64,5277.285,-63866.34,0.24935361268432876,-0.23639575688910108,-2.079311124661746,-1.4397323648406448,-0.5685180923751089,-0.33561256462735173,0.3477213873323588,0.22654734737778817,-0.296569065,-0.875913285,0.40392963,9.9953,1.8312,-3.3266799999999996,71.0
1774822142.070053,1.7404556274414062e-05,2026-03-29T22:09:02.070,2026-03-29T18:09:02.070,-32697.855,-48923.235,-84714.66,-49971.555,-14517.359999999999,-19715.219999999998,5240.79,-63871.74,-1.9091580538196944,-2.791141942931734,-6.242214194903691,-1.672855369945861,0.05399164553015559,0.5396043787880966,-8.481862706200072,-1.7346988676062411,-0.296569065,-0.875913285,0.40392963,9.9953,1.8312,-3.3266799999999996,71.0
1774822142.0700684,1.52587890625e-05,2026-03-29T22:09:02.070,2026-03-29T18:09:02.070,-32711.895,-48932.685,-84714.66,-49980.915,-14522.85,-19718.864999999998,5224.23,-63885.78,-3.0207467622003303,-4.063855558507206,-7.5821120276813145,-1.3367221804887242,0.4966237180704349,1.0498713475853558,-13.412953804479576,-2.655468228605488,-0.296569065,-0.875913285,0.40392963,9.9953,1.8312,-3.3266799999999996,71.0
1774822142.0700748,6.4373016357421875e-06,2026-03-29T22:09:02.070,2026-03-29T18:09:02.070,-32716.664999999997,-48916.89,-84686.805,-49982.49,-14511.914999999999,-19702.844999999998,5246.82,-63903.195,-2.5796067194560077,-3.5714183366683305,-5.589499331352402,-0.6175376302816722,0.5093709677271714,0.935975195656817,-12.143211397992749,-2.068217557763596,-0.296569065,-0.875913285,0.40392963,9.9953,1.8312,-3.3266799999999996,71.0
1774822142.070082,7.152557373046875e-06,2026-03-29T22:09:02.070,2026-03-29T18:09:02.070,-32698.62,-48914.955,-84695.04,-50023.08,-14537.744999999999,-19715.76,5254.0199999999995,-63877.634999999995,-0.8783767852390777,-1.609971731690841,-1.2437580899339362,0.21609582987238896,0.12840431245760692,0.29102418836692917,-5.265352156598377,-0.33689951867920664,-0.296569065,-0.875913285,0.40392963,9.9953,1.8312,-3.3266799999999996,71.0
1774822142.0700889,6.9141387939453125e-06,2026-03-29T22:09:02.070,2026-03-29T18:09:02.070,-32685.344999999998,-48914.595,-84698.415,-50050.485,-14563.17,-19735.065,5262.21,-63855.314999999995,1.1629599661468002,0.913202672563494,3.4746025315234594,0.9130383987378391,-0.354811067102154,-0.49895787351668647,4.008249762026567,1.5469490931493464,-0.296569065,-0.875913285,0.40392963,9.9953,1.8312,-3.3266799999999996,71.0
1774822142.0700974,8.58306884765625e-06,2026-03-29T22:09:02.070,2026-03-29T18:09:02.070,-32687.864999999998,-48901.994999999995,-84659.22,-50001.03,-14539.365,-19730.7,5265.045,-63865.35,2.484985884621911,2.9055033514741626,6.503420527315524,1.3027878148375747,-0.5765107714227743,-0.9728070827364361,11.357980352019995,2.509492728784131,-0.296569065,-0.875913285,0.40392963,9.9953,1.8312,-3.3266799999999996,71.0
1774822142.0701067,9.298324584960938e-06,2026-03-29T22:09:02.070,2026-03-29T18:09:02.070,-32711.445,-48895.244999999995,-84638.205,-49962.645,-14506.74,-19707.93,5260.005,-63904.814999999995,2.438157111465566,3.569865224528773,6.615189097821666,1.3139866905428401,-0.33053425045872487,-0.8516290209081316,13.38894930113338,1.988970137457947,-0.296569065,-0.875913285,0.40392963,9.9953,1.8312,-3.3266799999999996,71.0
1774822142.0701165,9.775161743164062e-06,2026-03-29T22:09:02.070,2026-03-29T18:09:02.070,-32701.32,-48899.159999999996,-84666.15,-49980.465,-14514.39,-19710.945,5261.8949999999995,-63886.905,1.1089874404176416,2.7253139880082498,3.91537271983094,0.9636332891859548,0.2886773638180499,-0.19612257236393837,9.217728378155087,0.256654985528732,-0.29821701,-0.867002175,0.40368549,8.91184,-0.16785999999999998,-6.80596,71.0
1774822142.070122,5.4836273193359375e-06,2026-03-29T22:09:02.070,2026-03-29T18:09:02.070,-32700.015,-48908.384999999995,-84689.37,-49976.145,-14510.025,-19709.73,5259.735,-63882.854999999996,-0.7432701572213993,0.8374270353439154,-0.2803728413244799,0.3391220338441118,0.9180733416132112,0.6224103252973028,0.8638825368248111,-1.715730649993913,-0.29821701,-0.867002175,0.40368549,8.91184,-0.16785999999999998,-6.80596,71.0
1774822142.0701294,7.3909759521484375e-06,2026-03-29T22:09:02.070,2026-03-29T18:09:02.070,-32703.93,-48917.115,-84696.885,-49979.79,-14509.439999999999,-19702.53,5262.12,-63882.09,-2.1019014036973838,-1.2325095700253195,-4.098028753928147,-0.4146735686295069,1.1244512651290512,1.1238003999604749,-7.7306756417288796,-2.780285244609558,-0.29821701,-0.867002175,0.40368549,8.91184,-0.16785999999999998,-6.80596,71.0
1774822142.0701346,5.245208740234375e-06,2026-03-29T22:09:02.070,2026-03-29T18:09:02.070,-32699.655,-48922.38,-84698.37,-49988.025,-14518.71,-19711.125,5242.275,-63871.29,-2.238745570578498,-2.626374568372988,-5.958436668142318,-1.1077505674744796,0.6650631290587787,0.9864910358838085,-12.576877080823351,-2.252791011632092,-0.29821701,-0.867002175,0.40368549,8.91184,-0.16785999999999998,-6.80596,71.0
1774822142.0701416,6.9141387939453125e-06,2026-03-29T22:09:02.070,2026-03-29T18:09:02.070,-32693.355,-48917.025,-84685.815,-49986.09,-14522.355,-19718.64,5238.8099999999995,-63860.49,-1.1019562879399492,-2.84857443555604,-5.235398764714096,-1.531624797383747,-0.3361368917930542,0.23630816203075625,-11.509386034572739,-0.32101735117253266,-0.29821701,-0.867002175,0.40368549,8.91184,-0.16785999999999998,-6.80596,71.0
1774822142.070147,5.4836273193359375e-06,2026-03-29T22:09:02.070,2026-03-29T18:09:02.070,-32711.129999999997,-48913.335,-84671.055,-49979.744999999995,-14512.59,-19707.57,5260.1849999999995,-63891.314999999995,0.6597790486725419,-1.9336031694058509,-2.4414765234225806,-1.5109637988680755,-1.4061112901496273,-0.7488729867935054,-5.167054875587623,2.011720224035464,-0.29821701,-0.867002175,0.40368549,8.91184,-0.16785999999999998,-6.80596,71.0
1774822142.0701537,6.67572021484375e-06,2026-03-29T22:09:02.070,2026-03-29T18:09:02.070,-32712.164999999997,-48908.79,-84670.37999999999,-49984.515,-14512.095,-19704.42,5278.95,-63898.02,2.04999900782887,-0.37020624312197503,1.097891697414173,-0.9734748277606221,-1.9437349671147643,-1.4278833018340802,3.366888737496085,3.437511897829099,-0.29821701,-0.867002175,0.40368549,8.91184,-0.16785999999999998,-6.80596,71.0
1774822142.0701592,5.4836273193359375e-06,2026-03-29T22:09:02.070,2026-03-29T18:09:02.070,-32699.745,-48915.494999999995,-84679.065,-49987.215,-14529.015,-19725.48,5264.82,-63874.665,2.267720312929799,1.1559542545420132,3.886440647045444,-0.010903580713600808,-1.5415055432586806,-1.3843697715288403,10.069419834313491,3.0522885893303204,-0.29821701,-0.867002175,0.40368549,8.91184,-0.16785999999999998,-6.80596,71.0
1774822142.0701656,6.4373016357421875e-06,2026-03-29T22:09:02.070,2026-03-29T18:09:02.070,-32691.285,-48907.485,-84664.44,-49971.24,-14521.994999999999,-19722.555,5262.57,-63868.14,1.151687123292714,2.0667135440751156,4.898118148524915,1.1059032450322552,-0.24079738691059305,-0.5637871218115136,11.890059589907938,0.886267401154101,-0.29821701,-0.867002175,0.40368549,8.91184,-0.16785999999999998,-6.80596,71.0
1774822142.0701709,5.245208740234375e-06,2026-03-29T22:09:02.070,2026-03-29T18:09:02.070,-32685.12,-48895.604999999996,-84663.135,-49981.365,-14530.095,-19728.27,5255.28,-63863.954999999994,-0.714838411158307,2.1059047276037286,3.9377528370407253,1.9850474696600495,1.4257441953415824,0.6699266592404036,8.154856010049247,-2.0412860603407714,-0.29821701,-0.867002175,0.40368549,8.91184,-0.16785999999999998,-6.80596,71.0
1774822142.0748239,0.004652976989746094,2026-03-29T22:09:02.074,2026-03-29T18:09:02.074,-32695.739999999998,-48881.564999999995,-84650.805,-49988.07,-14527.26,-19718.82,5260.1849999999995,-63882.405,-2.30210733451681,1.386949327050336,1.6041083827872655,2.242866011335158,2.6504229336888825,1.6973743808576096,0.8088103895542272,-4.200414319521249,-0.300597375,-0.85387965,0.39868062,0.2289,-2.35004,-5.35626,71.0
1774822142.074844,2.002716064453125e-05,2026-03-29T22:09:02.074,2026-03-29T18:09:02.074,-32715.315,-48881.43,-84633.75,-49970.295,-14509.26,-19704.555,5263.74,-63913.545,-2.6843979776824947,0.28268946944247275,-1.0673259656827678,1.6656821634987695,2.7381808238269922,1.9523069628284866,-6.586486132000371,-4.337457046034814,-0.300597375,-0.85387965,0.39868062,0.2289,-2.35004,-5.35626,71.0
1774822142.0786152,0.0037713050842285156,2026-03-29T22:09:02.078,2026-03-29T18:09:02.078,-32703.795,-48883.59,-84635.415,-49956.479999999996,-14508.494999999999,-19708.245,5253.255,-63900.765,-1.5543131327013733,-0.7655065109640814,-3.0746144184065476,0.3381571306768072,1.4806952815737335,1.2225654651265982,-10.587006030509068,-2.169842124232359,-0.300597375,-0.85387965,0.39868062,0.2289,-2.35004,-5.35626,71.0
1774822142.0786335,1.8358230590820312e-05,2026-03-29T22:09:02.078,2026-03-29T18:09:02.078,-32699.925,-48893.04,-84652.65,-49963.86,-14516.369999999999,-19715.895,5244.885,-63891.99,0.5765825009000108,-1.4222156232465044,-3.813575833756828,-1.3288806959583244,-0.6779472289234288,-0.21292617379376613,-9.484350481500801,1.3855323348726265,-0.300597375,-0.85387965,0.39868062,0.2289,-2.35004,-5.35626,71.0
1774822142.082703,0.00406956672668457,2026-03-29T22:09:02.082,2026-03-29T18:09:02.082,-32693.445,-48898.935,-84669.61499999999,-49973.4,-14520.51,-19721.07,5248.08,-63879.255,2.6100733285170175,-1.5481048007017069,-3.2096803444642634,-2.7073565619361704,-2.789307683927325,-1.6904935647857922,-4.04118603601,4.600037941081384,-0.300597375,-0.85387965,0.39868062,0.2289,-2.35004,-5.35626,71.0
1774822142.0827167,1.3589859008789062e-05,2026-03-29T22:09:02.082,2026-03-29T18:09:02.082,-32688.135,-48900.645,-84680.055,-49985.009999999995,-14522.715,-19725.524999999998,5253.974999999999,-63869.715,3.420354945006165,-1.1929368976069723,-1.6246977081368958,-3.178809443012504,-3.8175877439019894,-2.4705424239565974,2.9751745859333707,5.772987007652206,-0.300597375,-0.85387965,0.39868062,0.2289,-2.35004,-5.35626,71.0
1774822142.0869613,0.004244565963745117,2026-03-29T22:09:02.086,2026-03-29T18:09:02.086,-32706.945,-48905.369999999995,-84678.03,-49999.095,-14524.38,-19720.305,5261.58,-63893.25,2.4571954326866154,-0.5265317690598309,0.35666211867464825,-2.402232532664096,-3.141735994064651,-2.103928364414113,8.19322161494489,4.114912114322835,-0.300597375,-0.85387965,0.39868062,0.2289,-2.35004,-5.35626,71.0
1774822142.0869749,1.3589859008789062e-05,2026-03-29T22:09:02.086,2026-03-29T18:09:02.086,-32710.23,-48895.65,-84655.98,-49982.13,-14513.805,-19708.559999999998,5269.05,-63904.545,0.07654954280747775,0.24013567872290947,2.1359149876704326,-0.5112770336165051,-0.9012552307513064,-0.6755500771404932,9.265030875612041,0.22111307306003777,-0.300597375,-0.85387965,0.39868062,0.2289,-2.35004,-5.35626,71.0
1774822142.0914807,0.00450587272644043,2026-03-29T22:09:02.091,2026-03-29T18:09:02.091,-32701.23,-48889.485,-84644.73,-49965.119999999995,-14511.779999999999,-19710.495,5264.55,-63893.475,-2.587897465535131,0.9077757076416122,3.2340997367199424,1.8610951814021455,1.9978392941756484,1.2020724343424236,5.931850177178113,-4.131928728518379,-0.300597375,-0.85387965,0.39868062,0.2289,-2.35004,-5.35626,71.0
1774822142.0915172,3.647804260253906e-05,2026-03-29T22:09:02.091,2026-03-29T18:09:02.091,-32695.965,-48890.79,-84652.83,-49972.59,-14519.519999999999,-19720.62,5255.955,-63887.985,-4.167273758692018,1.3120197265591516,3.3530697314871447,3.7739818183059417,4.24818159525842,2.6546234152513173,0.03977451180678213,-6.8030849289229405,-0.300597375,-0.85387965,0.39868062,0.2289,-2.35004,-5.35626,71.0
1774822142.0947227,0.003205537796020508,2026-03-29T22:09:02.094,2026-03-29T18:09:02.094,-32698.53,-48891.284999999996,-84654.405,-49974.615,-14520.779999999999,-19724.309999999998,5246.82,-63895.994999999995,-3.7528301895534057,1.3376264839909002,2.412116331441937,4.339613630559687,4.7304507241092235,2.9540097789497257,-5.455317371680311,-6.337484982780728,-0.302794635,-0.855527595,0.39648336,-1.26658,-2.0295799999999997,-3.41824,71.0
1774822142.0947409,1.811981201171875e-05,2026-03-29T22:09:02.094,2026-03-29T18:09:02.094,-32701.184999999998,-48887.055,-84645.98999999999,-49966.965,-14514.119999999999,-19719.495,5241.554999999999,-63905.49,-1.3931836261853845,0.9442751245958259,0.5925996226928852,3.122097949246767,3.0610785204899806,1.8774947302052158,-7.966703289818113,-2.7360737949702902,-0.302794635,-0.855527595,0.39648336,-1.26658,-2.0295799999999997,-3.41824,71.0
1774822142.0995495,0.004808664321899414,2026-03-29T22:09:02.099,2026-03-29T18:09:02.099,-32694.434999999998,-48880.305,-84637.62,-49959.45,-14508.675,-19715.895,5243.804999999999,-63896.939999999995,1.8704299976436536,0.20276845024938656,-1.6311355150314728,0.4007029835878856,-0.16648699743871637,-0.1570895238751227,-6.500687368271406,2.4556064450667416,-0.302794635,-0.855527595,0.39648336,-1.26658,-2.0295799999999997,-3.41824,71.0
1774822142.0995877,3.814697265625e-05,2026-03-29T22:09:02.099,2026-03-29T18:09:02.099,-32692.41,-48882.825,-84642.75,-49959.99,-14508.539999999999,-19713.915,5258.7,-63889.02,4.470524288175297,-0.685098292022935,-3.5412751433017005,-2.8443015193768146,-3.5837677069608422,-2.254518154852668,-2.043405492206795,6.817808784554554,-0.302794635,-0.855527595,0.39648336,-1.26658,-2.0295799999999997,-3.41824,71.0
1774822142.1027057,0.0031180381774902344,2026-03-29T22:09:02.102,2026-03-29T18:09:02.102,-32697.945,-48890.34,-84652.29,-49963.905,-14510.115,-19709.55,5271.929999999999,-63889.155,5.068945125429053,-1.4174856309949355,-4.363137579093801,-5.262807620801281,-5.628239887977179,-3.4390132843843677,3.03633490124441,8.191547588845369,-0.302794635,-0.855527595,0.39648336,-1.26658,-2.0295799999999997,-3.41824,71.0
1774822142.1027884,8.273124694824219e-05,2026-03-29T22:09:02.102,2026-03-29T18:09:02.102,-32707.62,-48897.99,-84657.645,-49963.275,-14512.455,-19714.454999999998,5263.5599999999995,-63901.935,3.235734110964324,-1.6882156277928646,-3.571510236714384,-5.683692298673909,-5.256146477300962,-3.1072774905318195,6.226320298544876,5.742019354588638,-0.302794635,-0.855527595,0.39648336,-1.26658,-2.0295799999999997,-3.41824,71.0
1774822142.107388,0.004599571228027344,2026-03-29T22:09:02.107,2026-03-29T18:09:02.107,-32708.34,-48898.619999999995,-84664.845,-49957.38,-14509.71,-19719.495,5243.76,-63907.29,-0.28998268647690106,-1.32107344429796,-1.2002539607731677,-3.665224035539838,-2.462533952387077,-1.3276974198929274,6.110837589380952,0.42803494264627245,-0.302794635,-0.855527595,0.39648336,-1.26658,-2.0295799999999997,-3.41824,71.0
1774822142.1074076,1.9550323486328125e-05,2026-03-29T22:09:02.107,2026-03-29T18:09:02.107,-32702.535,-48898.305,-84685.41,-49966.155,-14508.855,-19717.965,5251.635,-63899.369999999995,-3.9030767934767376,-0.3808757670005564,2.0189501374738548,0.204652618547953,1.6459107229833196,1.1596011104912414,2.999769290840833,-5.374866721161112,-0.302794635,-0.855527595,0.39648336,-1.26658,-2.0295799999999997,-3.41824,71.0
1774822142.1181805,0.010772943496704102,2026-03-29T22:09:02.118,2026-03-29T18:09:02.118,-32700.824999999997,-48894.03,-84678.885,-49974.75,-14509.664999999999,-19713.329999999998,5275.98,-63896.67,-5.872248299915904,0.8064661136918918,4.825454455221293,4.433560897939861,5.286781154191523,3.2531309158300847,-1.3330156630980352,-8.948079411284196,-0.302794635,-0.855527595,0.39648336,-1.26658,-2.0295799999999997,-3.41824,71.0
1774822142.118206,2.5510787963867188e-05,2026-03-29T22:09:02.118,2026-03-29T18:09:02.118,-32701.59,-48889.665,-84660.93,-49976.009999999995,-14513.49,-19717.245,5260.86,-63900.854999999996,-5.171217910473525,1.758385911073468,5.907686985322382,7.18001625613098,6.776001734580595,3.9792358618794768,-4.62564205575307,-8.509316748147802,-0.302794635,-0.855527595,0.39648336,-1.26658,-2.0295799999999997,-3.41824,71.0
1774822142.1182287,2.2649765014648438e-05,2026-03-29T22:09:02.118,2026-03-29T18:09:02.118,-32700.285,-48883.095,-84637.305,-49970.25,-14513.31,-19721.88,5241.735,-63901.35,-2.001076126066686,2.036445757210133,4.518165992778881,7.0437247027016765,5.303543253981592,2.942219266293946,-5.2938095718988425,-4.092612447677941,-0.305113965,-0.867368385,0.401060985,4.01338,-0.7019599999999999,-4.70008,71.0
1774822142.1182387,1.0013580322265625e-05,2026-03-29T22:09:02.118,2026-03-29T18:09:02.118,-32690.43,-48881.744999999995,-84637.62,-49973.04,-14520.33,-19730.565,5239.26,-63888.299999999996,2.257842880274789,1.4576800290009395,0.9360901613760185,3.7577974334531468,1.3548812930529315,0.5285806144452073,-3.190572993253676,2.402480406339933,-0.305113965,-0.867368385,0.401060985,4.01338,-0.7019599999999999,-4.70008,71.0
1774822142.118251,1.239776611328125e-05,2026-03-29T22:09:02.118,2026-03-29T18:09:02.118,-32673.69,-48876.119999999995,-84635.145,-49961.34,-14527.305,-19737.945,5246.19,-63864.854999999996,5.658035845021212,0.2107921995050735,-3.492387045381437,-1.551121102969829,-3.434508554451114,-2.236017760931536,0.4033708439663918,8.039759365309017,-0.305113965,-0.867368385,0.401060985,4.01338,-0.7019599999999999,-4.70008,71.0
1774822142.118261,1.0013580322265625e-05,2026-03-29T22:09:02.118,2026-03-29T18:09:02.118,-32669.82,-48871.53,-84628.53,-49950.854999999996,-14529.105,-19739.43,5251.635,-63859.77,6.584055871375316,-1.1941028439015549,-6.834657444864762,-6.711904427569829,-6.956176240378501,-4.12424759739031,3.5169080607942655,10.185610719760318,-0.305113965,-0.867368385,0.401060985,4.01338,-0.7019599999999999,-4.70008,71.0
1774822142.1237211,0.005460023880004883,2026-03-29T22:09:02.123,2026-03-29T18:09:02.123,-32709.69,-48880.665,-84630.78,-49956.479999999996,-14521.365,-19723.59,5251.005,-63917.145,4.519590876287498,-2.1365821919724977,-7.416353748641344,-9.381822141798054,-7.557283160070601,-4.251751274954258,4.543224020746047,7.742091476943263,-0.305113965,-0.867368385,0.401060985,4.01338,-0.7019599999999999,-4.70008,71.0
1774822142.12374,1.8835067749023438e-05,2026-03-29T22:09:02.123,2026-03-29T18:09:02.123,-32711.76,-48871.439999999995,-84620.34,-49971.42,-14514.435,-19709.64,5251.905,-63926.909999999996,0.31803850152319035,-2.169397462694545,-4.660385941127427,-8.100878807265715,-4.811838710689867,-2.487594875525155,3.0568672698660353,1.695043822967943,-0.305113965,-0.867368385,0.401060985,4.01338,-0.7019599999999999,-4.70008,71.0
1774822142.1268146,0.00307464599609375,2026-03-29T22:09:02.126,2026-03-29T18:09:02.126,-32695.92,-48872.655,-84629.79,-49982.13,-14517.494999999999,-19722.059999999998,5248.17,-63900.494999999995,-4.159602770114645,-1.2405871961046888,0.5005231070306261,-3.0575429042146736,0.223354535876985,0.45816615567150676,-0.01820413865105778,-5.291401205221503,-0.305113965,-0.867368385,0.401060985,4.01338,-0.7019599999999999,-4.70008,71.0
1774822142.1268315,1.6927719116210938e-05,2026-03-29T22:09:02.126,2026-03-29T18:09:02.126,-32692.68,-48873.509999999995,-84628.845,-49952.79,-14503.904999999999,-19719.989999999998,5248.71,-63892.979999999996,-6.880986429432555,0.25990610530929015,5.898213391370334,3.824596475075927,5.409780068945512,3.320058970125539,-2.951450170395407,-10.062661383930216,-0.305113965,-0.867368385,0.401060985,4.01338,-0.7019599999999999,-4.70008,71.0
1774822142.1334465,0.0066149234771728516,2026-03-29T22:09:02.133,2026-03-29T18:09:02.133,-32694.795,-48873.915,-84626.415,-49951.89,-14511.33,-19723.5,5248.17,-63896.085,-6.5714480896623755,1.6636162150590044,9.036250338034579,9.595003191438014,8.436118197217478,4.821194753718937,-4.151676145737162,-10.407539577474937,-0.305113965,-0.867368385,0.401060985,4.01338,-0.7019599999999999,-4.70008,71.0
1774822142.1334672,2.0742416381835938e-05,2026-03-29T22:09:02.133,2026-03-29T18:09:02.133,-32700.42,-48873.78,-84625.965,-49953.195,-14505.164999999999,-19713.51,5252.535,-63906.435,-3.308136804358787,2.328704906979607,8.252170568513993,11.533345613899304,7.848759818030427,4.242034890226676,-3.008998176103948,-6.082022308753995,-0.305113965,-0.867368385,0.401060985,4.01338,-0.7019599999999999,-4.70008,71.0
1774822142.133489,2.1696090698242188e-05,2026-03-29T22:09:02.133,2026-03-29T18:09:02.133,-32702.985,-48878.325,-84635.73,-49961.88,-14507.865,-19711.934999999998,5251.005,-63906.255,1.4964980651188273,1.9442734415138403,3.5898570001731165,8.424551613789646,3.744551735167352,1.7613907816566385,-0.19463392884771286,1.0505554155627028,-0.304503615,-0.86877219,0.40392963,3.95234,-0.8087799999999999,-6.104,71.0
1774822142.1334956,6.67572021484375e-06,2026-03-29T22:09:02.133,2026-03-29T18:09:02.133,-32695.289999999997,-48877.47,-84635.73,-49957.74,-14509.845,-19713.645,5254.605,-63893.295,5.718220858225472,0.6849441875697717,-3.0726961437966027,1.257144906911687,-2.2021854901884548,-1.5902073110977555,2.725331779898626,7.835288495007429,-0.304503615,-0.86877219,0.40392963,3.95234,-0.8087799999999999,-6.104,71.0
1774822142.1393816,0.005886077880859375,2026-03-29T22:09:02.139,2026-03-29T18:09:02.139,-32671.125,-48866.445,-84630.375,-49955.534999999996,-14511.015,-19716.39,5262.57,-63864.765,7.470482948850153,-0.8647366487091865,-8.768776516542507,-7.037305640398298,-7.420582230421718,-4.3578596808920755,4.143956278509505,11.233871014681675,-0.304503615,-0.86877219,0.40392963,3.95234,-0.8087799999999999,-6.104,71.0
1774822142.1394212,3.9577484130859375e-05,2026-03-29T22:09:02.139,2026-03-29T18:09:02.139,-32671.844999999998,-48879.99,-84651.165,-49973.13,-14527.529999999999,-19734.03,5249.205,-63859.814999999995,5.950812274899386,-1.9849799472264886,-10.771483094549186,-12.77052449357705,-9.556650581107759,-5.29391431291861,3.276311536593952,9.690861094508692,-0.304503615,-0.86877219,0.40392963,3.95234,-0.8087799999999999,-6.104,71.0
1774822142.1431344,0.0037131309509277344,2026-03-29T22:09:02.143,2026-03-29T18:09:02.143,-32683.905,-48886.74,-84648.735,-49967.145,-14525.505,-19736.954999999998,5234.535,-63873.945,1.8030452964930794,-2.163856153640856,-7.90652189185738,-13.137105014808663,-7.536594353725603,-3.920145183761474,0.5755599829204691,3.841336678581914,-0.304503615,-0.86877219,0.40392963,3.95234,-0.8087799999999999,-6.104,71.0
1774822142.143154,1.9550323486328125e-05,2026-03-29T22:09:02.143,2026-03-29T18:09:02.143,-32717.52,-48880.215,-84618.62999999999,-49924.71,-14490.09,-19706.355,5245.155,-63930.329999999994,-3.165610650569358,-1.3414891873269474,-1.2135663108325463,-7.5790969498962655,-2.09929569048659,-0.7676289943483982,-2.5123523270605115,-3.759881289116237,-0.304503615,-0.86877219,0.40392963,3.95234,-0.8087799999999999,-6.104,71.0
1774822142.1472924,0.004138469696044922,2026-03-29T22:09:02.147,2026-03-29T18:09:02.147,-32720.039999999997,-48873.915,-84607.83,-49905.045,-14475.42,-19694.204999999998,5252.04,-63934.74,-6.783327253847285,0.06545923041756775,6.40666972046742,1.785379964630897,4.463455800546094,2.8243523058354514,-4.320259844646692,-9.766966898189816,-0.304503615,-0.86877219,0.40392963,3.95234,-0.8087799999999999,-6.104,71.0
1774822142.147315,2.2649765014648438e-05,2026-03-29T22:09:02.147,2026-03-29T18:09:02.147,-32699.16,-48873.825,-84621.555,-49922.595,-14489.369999999999,-19705.32,5257.08,-63905.085,-7.46999593703692,1.3718117479506569,11.454092831599814,10.943996962523192,9.27377631126464,5.276800115696079,-3.8476018494872006,-11.525171440803822,-0.304503615,-0.86877219,0.40392963,3.95234,-0.8087799999999999,-6.104,71.0
1774822142.1514275,0.0041124820709228516,2026-03-29T22:09:02.151,2026-03-29T18:09:02.151,-32692.995,-48871.71,-84635.145,-49948.38,-14507.234999999999,-19720.035,5256.2699999999995,-63898.424999999996,-4.927090328862729,1.9613743479792791,11.448322912790928,15.708876113416602,10.133946609067806,5.466399320164972,-1.2965603486535238,-8.245807946989572,-0.304503615,-0.86877219,0.40392963,3.95234,-0.8087799999999999,-6.104,71.0
1774822142.1514485,2.09808349609375e-05,2026-03-29T22:09:02.151,2026-03-29T18:09:02.151,-32699.16,-48870.945,-84647.7,-49970.295,-14520.465,-19730.7,5246.19,-63903.104999999996,-0.26040725939977,1.5859088415434148,6.150495056916554,13.636947824506898,6.533515350648535,3.241474895004691,2.024673249032829,-1.353805185871315,-0.304503615,-0.86877219,0.40392963,3.95234,-0.8087799999999999,-6.104,71.0
1774822142.155403,0.003954410552978516,2026-03-29T22:09:02.155,2026-03-29T18:09:02.155,-32694.93,-48870.854999999996,-84656.87999999999,-49977.314999999995,-14527.529999999999,-19735.38,5252.264999999999,-63899.64,4.510983660252218,0.4770384043257064,-2.2156844529378215,5.268931379598083,-0.06553610443088843,-0.47897837527019893,4.3806266813527746,6.1421137885141786,-0.300109095,-0.863340075,0.40356342,-0.74774,-1.0682,-3.6624,71.0
1774822142.155417,1.4066696166992188e-05,2026-03-29T22:09:02.155,2026-03-29T18:09:02.155,-32699.879999999997,-48867.615,-84646.845,-49945.14,-14505.795,-19718.37,5264.099999999999,-63915.299999999996,7.3368056716182055,-0.7827754972127793,-9.896899129057417,-5.936913671503837,-6.81936679956623,-4.082360168376412,4.514743619198179,10.973255187734683,-0.300109095,-0.863340075,0.40356342,-0.74774,-1.0682,-3.6624,71.0
1774822142.159512,0.0040950775146484375,2026-03-29T22:09:02.159,2026-03-29T18:09:02.159,-32682.78,-48858.21,-84643.37999999999,-49962.735,-14508.449999999999,-19715.219999999998,5271.75,-63896.085,7.019650038632707,-1.5620217710677278,-13.305663562295095,-15.028198620296811,-10.732261698024786,-5.96277983774534,2.3106758492324575,11.041901997543187,-0.300109095,-0.863340075,0.40356342,-0.74774,-1.0682,-3.6624,71.0
1774822142.159528,1.5974044799804688e-05,2026-03-29T22:09:02.159,2026-03-29T18:09:02.159,-32671.754999999997,-48858.119999999995,-84646.98,-49989.33,-14520.555,-19725.795,5262.21,-63879.345,3.718944148098052,-1.499446113252492,-10.706455689370047,-17.757105915628546,-9.992656114094217,-5.2404651716742325,-1.1358376337365574,6.331024240754484,-0.300109095,-0.863340075,0.40356342,-0.74774,-1.0682,-3.6624,71.0
1774822142.163067,0.0035390853881835938,2026-03-29T22:09:02.163,2026-03-29T18:09:02.163,-32696.82,-48865.095,-84629.52,-49965.75,-14510.564999999999,-19724.265,5241.6449999999995,-63906.435,-1.135095635981586,-0.6781709302788651,-3.094847901985192,-12.573973700735678,-4.816368090772778,-2.1765914708578933,-4.0730608896244345,-1.1006081694371446,-0.300109095,-0.863340075,0.40356342,-0.74774,-1.0682,-3.6624,71.0
1774822142.1630828,1.5735626220703125e-05,2026-03-29T22:09:02.163,2026-03-29T18:09:02.163,-32714.28,-48861.99,-84607.245,-49944.78,-14499.72,-19718.55,5239.71,-63931.59,-5.46917153305492,0.4320495743442831,6.174037989004944,-1.4757572159838694,2.5976527222116035,1.9135586800828084,-4.990973959633292,-8.027059605567219,-0.300109095,-0.863340075,0.40356342,-0.74774,-1.0682,-3.6624,71.0
1774822142.166679,0.003596067428588867,2026-03-29T22:09:02.166,2026-03-29T18:09:02.166,-32696.504999999997,-48855.06,-84609.18,-49948.38,-14505.029999999999,-19724.355,5226.57,-63911.97,-7.457297906645176,1.2308539275751131,12.87410048272426,10.744872230439409,9.003824958020992,5.225285730725491,-3.398230112220321,-11.46279770845572,-0.300109095,-0.863340075,0.40356342,-0.74774,-1.0682,-3.6624,71.0
1774822142.1666863,7.3909759521484375e-06,2026-03-29T22:09:02.166,2026-03-29T18:09:02.166,-32681.655,-48843.585,-84597.56999999999,-49933.71,-14499.045,-19714.86,5238.45,-63896.445,-6.289772122566803,1.3057265446877642,13.848355543758023,18.57849929031143,11.539487591256037,6.265190363303794,-0.078783973969901,-9.952361604326466,-0.300109095,-0.863340075,0.40356342,-0.74774,-1.0682,-3.6624,71.0
1774822142.170526,0.003839731216430664,2026-03-29T22:09:02.170,2026-03-29T18:09:02.170,-32677.515,-48837.555,-84590.37,-49924.439999999995,-14497.019999999999,-19714.14,5254.11,-63893.744999999995,-2.4977231408643545,0.6457782070448027,8.503388737612346,18.300460834907106,9.014276198038198,4.5310164168428635,3.303324421399568,-4.184475712335642,-0.300109095,-0.863340075,0.40356342,-0.74774,-1.0682,-3.6624,71.0
1774822142.1705327,6.67572021484375e-06,2026-03-29T22:09:02.170,2026-03-29T18:09:02.170,-32687.19,-48848.715,-84618.045,-49933.935,-14499.18,-19714.274999999998,5266.62,-63904.905,2.2937251932399696,-0.3602979063755948,-0.8525929986049218,9.75092426426241,2.473952127541643,0.7582680926597142,5.048105824423681,3.326867027532534,-0.300109095,-0.863340075,0.40356342,-0.74774,-1.0682,-3.6624,71.0
1774822142.1750915,0.0045588016510009766,2026-03-29T22:09:02.175,2026-03-29T18:09:02.175,-32694.164999999997,-48863.88,-84653.145,-49955.939999999995,-14509.845,-19721.295,5268.96,-63908.505,6.06681462935244,-1.1393219216427555,-10.012841996731867,-3.4618972526038023,-5.230979958037572,-3.3894098971880724,4.280897668701005,9.344743856788822,-0.294005595,-0.8605935,0.405211365,-3.052,-2.71628,-1.7396399999999999,71.0
1774822142.175111,1.9550323486328125e-05,2026-03-29T22:09:02.175,2026-03-29T18:09:02.175,-32687.73,-48861.494999999995,-84646.26,-49963.5,-14515.92,-19729.215,5257.8,-63899.055,7.262537460814575,-1.2466625302055199,-14.776883362310766,-15.48883216267939,-10.695516597978733,-6.057497218838663,1.3922497089301438,11.309292782321043,-0.294005595,-0.8605935,0.405211365,-3.052,-2.71628,-1.7396399999999999,71.0
1774822142.1789334,0.00382232666015625,2026-03-29T22:09:02.178,2026-03-29T18:09:02.178,-32681.789999999997,-48854.7,-84628.845,-49962.195,-14514.435,-19731.51,5247.36,-63891.134999999995,5.4227182871626045,-0.6102408846970008,-12.887938227936036,-20.849554692640528,-11.477778550791825,-6.037517511387984,-2.1649113604191754,8.428284317200532,-0.294005595,-0.8605935,0.405211365,-3.052,-2.71628,-1.7396399999999999,71.0
1774822142.178948,1.4543533325195312e-05,2026-03-29T22:09:02.178,2026-03-29T18:09:02.178,-32689.62,-48852.18,-84608.86499999999,-49955.715,-14510.88,-19731.645,5238.495,-63901.665,1.359975846784088,0.4254234024956059,-5.1039618724743745,-16.951336604538387,-7.201820766371814,-3.322504022584389,-4.613743025797223,1.9934639553498295,-0.294005595,-0.8605935,0.405211365,-3.052,-2.71628,-1.7396399999999999,71.0
1774822142.1832783,0.00433039665222168,2026-03-29T22:09:02.183,2026-03-29T18:09:02.183,-32684.219999999998,-48857.085,-84616.37999999999,-49958.82,-14522.894999999999,-19740.915,5238.315,-63888.435,-3.204275516563634,1.2806527647418353,5.106864798760373,-5.348951100166926,0.2580227443125625,0.8781543992028086,-4.74932315261831,-5.20198368474252,-0.294005595,-0.8605935,0.405211365,-3.052,-2.71628,-1.7396399999999999,71.0
1774822142.1833048,2.6464462280273438e-05,2026-03-29T22:09:02.183,2026-03-29T18:09:02.183,-32701.68,-48855.78,-84600.09,-49921.784999999996,-14504.67,-19726.02,5255.73,-63917.46,-6.37147021578882,1.4533517224495993,13.123116687089583,8.869824920853507,7.603648254719932,4.678953593928068,-2.5373115911597885,-10.081104064816692,-0.294005595,-0.8605935,0.405211365,-3.052,-2.71628,-1.7396399999999999,71.0
1774822142.1868608,0.0035560131072998047,2026-03-29T22:09:02.186,2026-03-29T18:09:02.186,-32713.965,-48842.189999999995,-84572.73,-49875.84,-14464.35,-19695.059999999998,5282.28,-63947.25,-6.855796344254899,0.7977224198249508,15.274704474746398,19.333874929455963,11.584320907484672,6.371940105611694,0.8837780113188806,-10.603469278312952,-0.294005595,-0.8605935,0.405211365,-3.052,-2.71628,-1.7396399999999999,71.0
1774822142.1868792,1.8358230590820312e-05,2026-03-29T22:09:02.186,2026-03-29T18:09:02.186,-32698.44,-48841.29,-84582.405,-49872.78,-14457.779999999999,-19695.69,5279.445,-63920.88,-4.50429578191857,-0.3810521002101263,10.53045348509342,21.27038898045231,10.450426766610937,5.204073687385054,3.7905474385380384,-6.620100798118904,-0.294005595,-0.8605935,0.405211365,-3.052,-2.71628,-1.7396399999999999,71.0
1774822142.1933625,0.006483316421508789,2026-03-29T22:09:02.193,2026-03-29T18:09:02.193,-32691.78,-48843.945,-84591.98999999999,-49875.21,-14466.914999999999,-19708.245,5261.715,-63911.115,-0.33805856356636127,-1.4715099190956327,0.9894165994269615,13.702542694048324,4.732529954694335,1.719840470514797,4.748313394946499,0.09574433739720835,-0.294005595,-0.8605935,0.405211365,-3.052,-2.71628,-1.7396399999999999,71.0
1774822142.1933796,1.71661376953125e-05,2026-03-29T22:09:02.193,2026-03-29T18:09:02.193,-32689.98,-48843.99,-84594.825,-49887.72,-14481.765,-19718.73,5246.19,-63905.625,3.8923472038751066,-1.8700409523036405,-9.05671826957265,-0.058641260012164534,-3.0062447467543283,-2.490569570164678,3.3255438039859695,6.640714135998846,-0.294005595,-0.8605935,0.405211365,-3.052,-2.71628,-1.7396399999999999,71.0
1774822142.1934006,2.09808349609375e-05,2026-03-29T22:09:02.193,2026-03-29T18:09:02.193,-32688.045,-48842.325,-84609.36,-49938.119999999995,-14518.035,-19733.175,5234.8949999999995,-63902.7,6.443612761882017,-1.3036693574528415,-15.066755307125963,-13.87610985935579,-9.329541847470306,-5.522145430637513,0.29133525033726226,10.241900923524145,-0.29101488000000003,-0.860776605,0.404723085,-3.6013599999999997,-3.0825199999999997,-0.01526,71.0
1774822142.1934085,7.867813110351562e-06,2026-03-29T22:09:02.193,2026-03-29T18:09:02.193,-32688.765,-48834.765,-84608.19,-49963.814999999995,-14520.555,-19723.23,5247.54,-63908.82,6.298600225355638,0.007803216298079121,-14.312795983285167,-21.55090099803287,-11.469836402981317,-6.026806483464988,-2.7950872708839647,9.436607396736783,-0.29101488000000003,-0.860776605,0.404723085,-3.6013599999999997,-3.0825199999999997,-0.01526,71.0
1774822142.2066193,0.013210773468017578,2026-03-29T22:09:02.206,2026-03-29T18:09:02.206,-32690.52,-48826.979999999996,-84596.265,-49975.29,-14506.064999999999,-19714.59,5258.655,-63916.155,3.571126410955665,1.440232167560011,-7.121148738222002,-19.630919199523646,-8.553632771828545,-3.822509415960454,-4.385191646957673,4.667358429424614,-0.29101488000000003,-0.860776605,0.404723085,-3.6013599999999997,-3.0825199999999997,-0.01526,71.0
1774822142.2066474,2.8133392333984375e-05,2026-03-29T22:09:02.206,2026-03-29T18:09:02.206,-32687.864999999998,-48835.305,-84607.83,-49965.39,-14499.72,-19721.34,5245.74,-63908.189999999995,-0.5641409026998565,2.2666941204148916,3.274111875361766,-8.978610993348761,-1.9605781582517943,0.04017803583643399,-3.7210276809003027,-1.950502080495227,-0.29101488000000003,-0.860776605,0.404723085,-3.6013599999999997,-3.0825199999999997,-0.01526,71.0
1774822142.206669,2.1696090698242188e-05,2026-03-29T22:09:02.206,2026-03-29T18:09:02.206,-32695.379999999997,-48844.215,-84596.04,-49919.445,-14495.13,-19727.145,5233.41,-63912.24,-4.378166677631583,2.02423779449286,12.196336474398178,5.621538984625126,5.332788819315413,3.779415465558979,-1.2005726257318088,-7.570577139282683,-0.29101488000000003,-0.860776605,0.404723085,-3.6013599999999997,-3.0825199999999997,-0.01526,71.0
1774822142.2066796,1.049041748046875e-05,2026-03-29T22:09:02.206,2026-03-29T18:09:02.206,-32695.515,-48842.505,-84580.69499999999,-49890.509999999995,-14487.57,-19722.105,5236.695,-63912.825,-6.312273519629907,0.7610556779592894,15.641231260229869,17.63480871583321,10.110918358515613,5.711700416672296,1.848591515653999,-9.846131398027117,-0.29101488000000003,-0.860776605,0.404723085,-3.6013599999999997,-3.0825199999999997,-0.01526,71.0
1774822142.2097301,0.003050565719604492,2026-03-29T22:09:02.209,2026-03-29T18:09:02.209,-32699.565,-48851.369999999995,-84600.54,-49904.009999999995,-14491.08,-19719.495,5248.98,-63913.77,-5.616914380630835,-0.9642754785620312,12.080085517227857,21.730846366978064,10.352703973963298,5.01987018748104,3.861922375197431,-7.914938833697172,-0.29101488000000003,-0.860776605,0.404723085,-3.6013599999999997,-3.0825199999999997,-0.01526,71.0
1774822142.209754,2.384185791015625e-05,2026-03-29T22:09:02.209,2026-03-29T18:09:02.209,-32701.32,-48855.195,-84615.84,-49927.95,-14501.295,-19721.295,5246.595,-63915.03,-2.641931283296713,-2.337852802713507,3.136752719038555,16.171198865829282,6.093900397423339,2.10433551216045,3.837580096884679,-2.7225684447581946,-0.29101488000000003,-0.860776605,0.404723085,-3.6013599999999997,-3.0825199999999997,-0.01526,71.0
1774822142.2097776,2.3603439331054688e-05,2026-03-29T22:09:02.209,2026-03-29T18:09:02.209,-32684.625,-48839.939999999995,-84616.065,-49952.384999999995,-14508.72,-19723.454999999998,5242.005,-63894.465,1.334340017739559,-2.6794742548343002,-7.160344091425709,3.5498030712851376,-0.6532935552769228,-1.6363335544878115,1.8356277016068725,3.4358098607925647,-0.29101488000000003,-0.860776605,0.404723085,-3.6013599999999997,-3.0825199999999997,-0.01526,71.0
1774822142.2097893,1.1682510375976562e-05,2026-03-29T22:09:02.209,2026-03-29T18:09:02.209,-32673.465,-48822.255,-84603.15,-49950.494999999995,-14508.449999999999,-19727.82,5241.915,-63882.945,4.655792708420509,-1.7771762751983442,-14.203025789980533,-10.430107018746185,-6.8582298929249035,-4.47915171028661,-1.0717525861732238,7.935141566083452,-0.29101488000000003,-0.860776605,0.404723085,-3.6013599999999997,-3.0825199999999997,-0.01526,71.0
1774822142.2352104,0.025421142578125,2026-03-29T22:09:02.235,2026-03-29T18:09:02.235,-32651.37,-48812.715,-84593.87999999999,-49950.045,-14523.93,-19742.265,5247.36,-63858.645,5.9815209715702915,-0.0032242199546917314,-14.873729518144321,-19.56002141500208,-9.84777167897105,-5.178636195866907,-3.365182236735962,8.946545818468609,-0.28979418,-0.860776605,0.40295307,-1.7549,-3.815,-1.0834599999999999,71.0
1774822142.2352235,1.3113021850585938e-05,2026-03-29T22:09:02.235,2026-03-29T18:09:02.235,-32671.215,-48821.445,-84596.22,-49936.814999999995,-14507.955,-19727.505,5261.49,-63885.104999999996,4.829687705717302,1.8476436343947549,-8.927833129067231,-19.90958289748278,-8.46847429915362,-3.5196637432353977,-3.863304599341161,6.183371661458827,-0.28979418,-0.860776605,0.40295307,-1.7549,-3.815,-1.0834599999999999,71.0
1774822142.2352393,1.5735626220703125e-05,2026-03-29T22:09:02.235,2026-03-29T18:09:02.235,-32695.065,-48822.21,-84580.65,-49905.945,-14481.449999999999,-19707.614999999998,5260.1849999999995,-63920.564999999995,1.750277304700962,2.9232193960586854,0.92563033054725,-11.529309670104311,-3.5245655662212236,-0.37236645211314473,-2.3255479672612003,0.9613683266954804,-0.28979418,-0.860776605,0.40295307,-1.7549,-3.815,-1.0834599999999999,71.0
1774822142.2352433,4.0531158447265625e-06,2026-03-29T22:09:02.235,2026-03-29T18:09:02.235,-32706.629999999997,-48818.88,-84569.84999999999,-49889.07,-14466.555,-19695.78,5263.065,-63940.68,-1.9344891036219687,2.710209098016945,10.265996496887968,1.6699068878514816,2.6706604312358593,2.7577281625084606,0.4327087523255363,-4.426117331828731,-0.28979418,-0.860776605,0.40295307,-1.7549,-3.815,-1.0834599999999999,71.0
1774822142.2352488,5.4836273193359375e-06,2026-03-29T22:09:02.235,2026-03-29T18:09:02.235,-32683.454999999998,-48807.63,-84563.91,-49890.33,-14468.76,-19699.155,5252.8949999999995,-63914.534999999996,-4.700883539262846,1.2756517920618853,14.952846694178545,13.759474366989771,7.386375278331689,4.453725876022362,2.9666652268479727,-7.721894824273699,-0.28979418,-0.860776605,0.40295307,-1.7549,-3.815,-1.0834599999999999,71.0
1774822142.2352526,3.814697265625e-06,2026-03-29T22:09:02.235,2026-03-29T18:09:02.235,-32679.719999999998,-48811.32,-84572.86499999999,-49901.534999999996,-14481.09,-19711.485,5245.695,-63907.064999999995,-5.457908857979874,-0.7588711919055618,12.966605347003862,19.48161772520213,8.689134092240163,4.0352483072201535,3.9487064878462506,-7.656491730002786,-0.28979418,-0.860776605,0.40295307,-1.7549,-3.815,-1.0834599999999999,71.0
1774822142.2352571,4.5299530029296875e-06,2026-03-29T22:09:02.235,2026-03-29T18:09:02.235,-32695.829999999998,-48825.54,-84579.39,-49898.88,-14483.609999999999,-19716.93,5254.83,-63916.965,-3.9789733938422387,-2.4967000245860493,5.27763319199495,16.552675379019387,6.235276681982831,1.8307774590630097,2.8526169853764127,-4.4334427542144645,-0.28979418,-0.860776605,0.40295307,-1.7549,-3.815,-1.0834599999999999,71.0
1774822142.235261,3.814697265625e-06,2026-03-29T22:09:02.235,2026-03-29T18:09:02.235,-32689.17,-48826.755,-84589.56,-49913.28,-14495.31,-19729.079999999998,5250.735,-63907.29,-0.9591844193323473,-3.168713609954405,-4.629303035667967,6.564546736810628,1.3164691512969025,-1.034112564695801,0.22692932793951023,0.4356179044425752,-0.28979418,-0.860776605,0.40295307,-1.7549,-3.815,-1.0834599999999999,71.0
1774822142.2352655,4.5299530029296875e-06,2026-03-29T22:09:02.235,2026-03-29T18:09:02.235,-32680.17,-48825.54,-84603.69,-49920.884999999995,-14501.115,-19734.255,5254.65,-63895.545,2.3102264672870283,-2.474803891278536,-12.341626062050208,-5.865729168321639,-3.811954075657045,-3.207390244172175,-2.581155122269745,4.840756916345101,-0.28979418,-0.860776605,0.40295307,-1.7549,-3.815,-1.0834599999999999,71.0
1774822142.2352693,3.814697265625e-06,2026-03-29T22:09:02.235,2026-03-29T18:09:02.235,-32693.039999999997,-48822.705,-84607.83,-49901.939999999995,-14486.445,-19723.545,5260.095,-63913.454999999994,4.49824736159009,-0.7121440310235663,-14.491261950628243,-15.249184822590504,-6.973096225112764,-3.751750142625301,-4.1111429701091735,6.994570158394789,-0.28979418,-0.860776605,0.40295307,-1.7549,-3.815,-1.0834599999999999,71.0
1774822142.2352765,7.152557373046875e-06,2026-03-29T22:09:02.235,2026-03-29T18:09:02.235,-32692.23,-48815.82,-84605.44499999999,-49913.369999999995,-14489.64,-19717.335,5248.17,-63921.555,4.7794393178792305,1.361673491438541,-10.228319215397471,-17.66803858260199,-6.995552936883776,-2.5505418727704585,-3.536932325881092,6.15900678597112,-0.290465565,-0.8608986750000001,0.400694775,-0.6103999999999999,-3.4945399999999998,-1.38866,71.0
1774822142.2352824,5.9604644775390625e-06,2026-03-29T22:09:02.235,2026-03-29T18:09:02.235,-32677.875,-48812.939999999995,-84599.64,-49919.174999999996,-14497.965,-19720.079999999998,5230.485,-63901.935,3.142947890635469,2.863014453096064,-1.5503394254041964,-12.412458357799112,-4.129336114132526,-0.3019506588171022,-1.0982026563511715,2.881699070654518,-0.290465565,-0.8608986750000001,0.400694775,-0.6103999999999999,-3.4945399999999998,-1.38866,71.0
1774822142.2388973,0.0036149024963378906,2026-03-29T22:09:02.238,2026-03-29T18:09:02.238,-32671.079999999998,-48812.445,-84588.435,-49938.075,-14508.945,-19730.204999999998,5218.47,-63889.155,0.35040494375515663,3.1623049016003155,7.636831143859595,-2.1272610026511587,0.18621816168911906,1.8687277963958628,2.0044744980011004,-1.3246309841932478,-0.290465565,-0.8608986750000001,0.400694775,-0.6103999999999999,-3.4945399999999998,-1.38866,71.0
1774822142.2389245,2.7179718017578125e-05,2026-03-29T22:09:02.238,2026-03-29T18:09:02.238,-32671.89,-48811.545,-84583.17,-49966.74,-14519.744999999999,-19737.315,5243.804999999999,-63885.555,-2.4191254739100954,2.1447748283173556,13.283949059459665,8.517370355233362,4.041873553849434,2.969017697462325,4.202011042342099,-4.68288291665203,-0.290465565,-0.8608986750000001,0.400694775,-0.6103999999999999,-3.4945399999999998,-1.38866,71.0
1774822142.243208,0.004283428192138672,2026-03-29T22:09:02.243,2026-03-29T18:09:02.243,-32703.12,-48818.475,-84574.70999999999,-49926.195,-14490.225,-19716.39,5281.065,-63930.42,-4.071154691674249,0.2458644718478083,12.98881391329264,14.96334496594135,5.906330550214941,2.59349639356876,4.34334717564999,-5.906432842954938,-0.290465565,-0.8608986750000001,0.400694775,-0.6103999999999999,-3.4945399999999998,-1.38866,71.0
1774822142.243223,1.5020370483398438e-05,2026-03-29T22:09:02.243,2026-03-29T18:09:02.243,-32701.905,-48809.205,-84556.75499999999,-49891.5,-14476.814999999999,-19708.155,5271.75,-63934.064999999995,-4.0288120607665965,-1.7437360577649303,7.018213356221389,14.724291398308093,5.224420700220237,1.0641370261881218,2.2841947969109837,-4.685397192113662,-0.290465565,-0.8608986750000001,0.400694775,-0.6103999999999999,-3.4945399999999998,-1.38866,71.0
1774822142.2488945,0.005671501159667969,2026-03-29T22:09:02.248,2026-03-29T18:09:02.248,-32685.93,-48803.04,-84565.70999999999,-49885.74,-14476.185,-19710.45,5250.24,-63913.454999999994,-2.4251049517585472,-3.01196430067667,-1.8733833671237314,8.321480833324403,2.5378064859443525,-0.7861187332273212,-1.0180501970715894,-1.7238961584197392,-0.290465565,-0.8608986750000001,0.400694775,-0.6103999999999999,-3.4945399999999998,-1.38866,71.0
1774822142.2489212,2.6702880859375e-05,2026-03-29T22:09:02.248,2026-03-29T18:09:02.248,-32686.92,-48810.284999999996,-84588.075,-49890.869999999995,-14478.66,-19716.165,5240.565,-63911.43,0.004762733848942318,-3.055047449841214,-9.718931715985754,-1.1431376695227495,-0.8660989451418066,-2.054828800865837,-3.9563754464772356,1.6445244637175087,-0.290465565,-0.8608986750000001,0.400694775,-0.6103999999999999,-3.4945399999999998,-1.38866,71.0
1774822142.251089,0.002167940139770508,2026-03-29T22:09:02.251,2026-03-29T18:09:02.251,-32692.23,-48820.185,-84598.69499999999,-49900.5,-14483.475,-19716.93,5251.41,-63911.7,2.262050586409693,-1.8704913123109201,-13.115890145150939,-9.49394404687176,-3.5687758269058416,-2.2063804733786125,-5.0563797615826855,4.059933697529388,-0.290465565,-0.8608986750000001,0.400694775,-0.6103999999999999,-3.4945399999999998,-1.38866,71.0
1774822142.2511072,1.811981201171875e-05,2026-03-29T22:09:02.251,2026-03-29T18:09:02.251,-32693.67,-48819.555,-84592.665,-49909.229999999996,-14489.144999999999,-19716.84,5261.67,-63910.755,3.4970683399470937,0.05609690941061504,-10.706228647201877,-13.334378218767503,-4.605812186492247,-1.29341694103619,-3.707472537310209,4.683317179341999,-0.290465565,-0.8608986750000001,0.400694775,-0.6103999999999999,-3.4945399999999998,-1.38866,71.0
1774822142.2553504,0.004243135452270508,2026-03-29T22:09:02.255,2026-03-29T18:09:02.255,-32690.204999999998,-48811.994999999995,-84580.965,-49924.439999999995,-14494.005,-19716.75,5266.845,-63909.54,3.3240165385125184,1.9547012424746049,-3.7135859658852177,-11.418468471976066,-3.784610034254269,0.1254867453918804,-0.48358556689543536,3.46865178333167,-0.293273175,-0.860654535,0.400084425,-0.27468,-2.0601,-2.09062,71.0
1774822142.255365,1.4543533325195312e-05,2026-03-29T22:09:02.255,2026-03-29T18:09:02.255,-32689.485,-48811.095,-84583.53,-49921.38,-14494.5,-19719.719999999998,5264.1449999999995,-63909.854999999996,1.923958548895105,3.077390713698205,4.672231631250555,-4.992934532597906,-1.646372928644142,1.3057641561087576,3.1088083462683334,1.0826990787312276,-0.293273175,-0.860654535,0.400084425,-0.27468,-2.0601,-2.09062,71.0
1774822142.2604413,0.005076408386230469,2026-03-29T22:09:02.260,2026-03-29T18:09:02.260,-32689.485,-48812.67,-84593.16,-49894.47,-14484.734999999999,-19717.739999999998,5258.16,-63908.685,-0.08055945058883161,2.986711864593556,10.756490975670564,2.9436317418849067,0.8525326089986446,1.6977678246720744,5.340625659092752,-1.4471606900023775,-0.293273175,-0.860654535,0.400084425,-0.27468,-2.0601,-2.09062,71.0
1774822142.2604632,2.193450927734375e-05,2026-03-29T22:09:02.260,2026-03-29T18:09:02.260,-32700.555,-48824.189999999995,-84594.645,-49899.33,-14492.654999999999,-19727.73,5244.48,-63916.74,-1.903518457727131,1.718803272802128,11.974644149583767,9.045947054734224,2.762774592102111,1.196924099576297,5.090695446542329,-3.1752545586157574,-0.293273175,-0.860654535,0.400084425,-0.27468,-2.0601,-2.09062,71.0
1774822142.263234,0.002770662307739258,2026-03-29T22:09:02.263,2026-03-29T18:09:02.263,-32706.27,-48829.634999999995,-84590.775,-49907.744999999995,-14495.67,-19733.265,5230.26,-63921.78,-2.901011253928192,-0.23495835707352125,7.974364300795321,11.030131373484757,3.4839388979795434,0.15183704064959586,2.3985386967219,-3.5794198608125,-0.293273175,-0.860654535,0.400084425,-0.27468,-2.0601,-2.09062,71.0
1774822142.2632544,2.0503997802734375e-05,2026-03-29T22:09:02.263,2026-03-29T18:09:02.263,-32696.73,-48817.799999999996,-84573.135,-49908.555,-14491.305,-19730.07,5231.97,-63911.97,-2.7868725687594846,-2.1166590721550884,0.6871907522950605,8.493202515880032,2.914308243166681,-0.8522218992579912,-1.5290584680062704,-2.6851937663771914,-0.293273175,-0.860654535,0.400084425,-0.27468,-2.0601,-2.09062,71.0
1774822142.2676342,0.004379749298095703,2026-03-29T22:09:02.267,2026-03-29T18:09:02.267,-32688.225,-48808.53,-84568.095,-49921.02,-14495.625,-19727.505,5235.48,-63906.57,-1.6929681438425728,-3.1896773628282924,-6.604076224793117,2.870208855760869,1.3981826044711316,-1.3075163845694304,-4.8675647500116686,-0.9653551477309954,-0.293273175,-0.860654535,0.400084425,-0.27468,-2.0601,-2.09062,71.0
1774822142.2676604,2.6226043701171875e-05,2026-03-29T22:09:02.267,2026-03-29T18:09:02.267,-32679.135,-48797.82,-84571.065,-49925.34,-14498.955,-19724.579999999998,5239.035,-63901.485,-0.07658429024457669,-3.0203796100628852,-10.752211086383381,-3.34766161285338,-0.4610362880020671,-1.0313041993054932,-6.02605094382625,0.9009023241116413,-0.293273175,-0.860654535,0.400084425,-0.27468,-2.0601,-2.09062,71.0
1774822142.2719512,0.00429081916809082,2026-03-29T22:09:02.271,2026-03-29T18:09:02.271,-32675.445,-48786.705,-84574.665,-49939.064999999995,-14502.42,-19722.915,5263.5599999999995,-63896.04,1.469051707019475,-1.6502609481639203,-10.109625388862959,-7.7179524610482995,-2.0264950695322033,-0.22931211576520222,-4.401496021402811,2.28910236242311,-0.293273175,-0.860654535,0.400084425,-0.27468,-2.0601,-2.09062,71.0
1774822142.2719676,1.6450881958007812e-05,2026-03-29T22:09:02.271,2026-03-29T18:09:02.271,-32678.46,-48778.11,-84560.44499999999,-49940.64,-14496.57,-19722.239999999998,5280.255,-63900.63,2.42323928176922,0.4078478466866434,-5.175540291562075,-8.783978703588982,-2.816404354448915,0.6405916313372061,-0.680158779655835,2.8142615115201672,-0.293273175,-0.860654535,0.400084425,-0.27468,-2.0601,-2.09062,71.0
1774822142.276919,0.0049512386322021484,2026-03-29T22:09:02.276,2026-03-29T18:09:02.276,-32678.954999999998,-48776.085,-84542.355,-49900.095,-14485.005,-19721.655,5254.155,-63905.85,2.497348953400402,2.3544870583954287,1.7246596263170748,-6.496979725869881,-2.6192994729510013,1.1196980837862738,3.4598172509883125,2.3998248832642517,-0.29705734500000003,-0.85766382,0.401671335,-5.615679999999999,-2.6857599999999997,-1.9380199999999999,71.0
1774822142.27693,1.1205673217773438e-05,2026-03-29T22:09:02.276,2026-03-29T18:09:02.276,-32681.655,-48781.17,-84536.955,-49879.215,-14482.215,-19721.34,5244.4349999999995,-63908.009999999995,1.706421685184931,3.407387967547449,7.539762834008717,-2.041602765036372,-1.5314864365218641,0.9800266793168877,6.111774384440175,1.2461277206227583,-0.29705734500000003,-0.85766382,0.401671335,-5.615679999999999,-2.6857599999999997,-1.9380199999999999,71.0
1774822142.2795703,0.002640247344970703,2026-03-29T22:09:02.279,2026-03-29T18:09:02.279,-32685.57,-48789.585,-84553.65,-49892.67,-14486.894999999999,-19723.995,5247.8099999999995,-63909.405,0.34549814572774284,3.11337317977981,9.850190894877707,2.765748096446813,0.07676630876657027,0.3227431031843293,6.019747759384282,-0.25942177907960673,-0.29705734500000003,-0.85766382,0.401671335,-5.615679999999999,-2.6857599999999997,-1.9380199999999999,71.0
1774822142.27959,1.9550323486328125e-05,2026-03-29T22:09:02.279,2026-03-29T18:09:02.279,-32690.024999999998,-48796.74,-84567.105,-49901.715,-14488.019999999999,-19724.445,5243.535,-63909.72,-1.112695014652434,1.5457663901641816,7.874569031284126,6.2039296625881,1.6612092643218341,-0.494415836135573,3.1678919883755436,-1.6526880193414737,-0.29705734500000003,-0.85766382,0.401671335,-5.615679999999999,-2.6857599999999997,-1.9380199999999999,71.0
1774822142.2832248,0.003634929656982422,2026-03-29T22:09:02.283,2026-03-29T18:09:02.283,-32693.67,-48801.104999999996,-84571.83,-49897.979999999996,-14480.369999999999,-19720.89,5237.865,-63912.465,-2.1678264121455166,-0.6998381063197009,2.706327904811284,7.21566541082596,2.6611981042549675,-1.051052333855502,-1.193893973016423,-2.505232351963845,-0.29705734500000003,-0.85766382,0.401671335,-5.615679999999999,-2.6857599999999997,-1.9380199999999999,71.0
1774822142.2832892,6.437301635742188e-05,2026-03-29T22:09:02.283,2026-03-29T18:09:02.283,-32687.864999999998,-48796.38,-84580.29,-49893.93,-14477.535,-19716.165,5237.955,-63908.415,-2.451058946569804,-2.7241458981127313,-3.274893530958657,5.658814609067398,2.687060173287339,-1.0746158961088474,-5.104475241111759,-2.5326982585068,-0.29705734500000003,-0.85766382,0.401671335,-5.615679999999999,-2.6857599999999997,-1.9380199999999999,71.0
1774822142.2875435,0.004254341125488281,2026-03-29T22:09:02.287,2026-03-29T18:09:02.287,-32680.305,-48795.479999999996,-84597.97499999999,-49924.305,-14503.095,-19734.39,5228.505,-63899.369999999995,-1.8504300878687898,-3.681962070127267,-7.506359495117645,2.2316519520232005,1.6811581156303745,-0.5640942866306553,-6.7770013121360035,-1.687206158324161,-0.29705734500000003,-0.85766382,0.401671335,-5.615679999999999,-2.6857599999999997,-1.9380199999999999,71.0
1774822142.2876582,0.00011467933654785156,2026-03-29T22:09:02.287,2026-03-29T18:09:02.287,-32673.015,-48797.64,-84597.03,-49934.655,-14509.529999999999,-19740.96,5219.865,-63886.095,-0.5619656424662991,-3.1387080412560575,-8.344892434353229,-1.831582792472494,-0.019011177497487333,0.22512052660552387,-5.414231336519058,-0.2048112016724956,-0.29705734500000003,-0.85766382,0.401671335,-5.615679999999999,-2.6857599999999997,-1.9380199999999999,71.0
1774822142.291731,0.004072904586791992,2026-03-29T22:09:02.291,2026-03-29T18:09:02.291,-32672.52,-48801.465,-84593.745,-49939.47,-14509.215,-19741.95,5217.21,-63881.82,0.9600171310025125,-1.2736259640766194,-5.69198442647351,-5.165881497395101,-1.7685436744966043,0.9160054477427872,-1.582616084372894,1.4293854700204225,-0.29705734500000003,-0.85766382,0.401671335,-5.615679999999999,-2.6857599999999997,-1.9380199999999999,71.0
1774822142.2917418,1.0728836059570312e-05,2026-03-29T22:09:02.291,2026-03-29T18:09:02.291,-32693.715,-48795.795,-84562.875,-49919.04,-14493.015,-19730.204999999998,5237.01,-63912.24,2.1510687580406906,1.1683104416709524,-0.9101238680596677,-6.672650120542149,-2.8492271557464757,1.1907563919055442,3.0275545688793333,2.618315094811292,-0.29705734500000003,-0.85766382,0.401671335,-5.615679999999999,-2.6857599999999997,-1.9380199999999999,71.0
1774822142.2983155,0.006573677062988281,2026-03-29T22:09:02.298,2026-03-29T18:09:02.298,-32686.065,-48778.695,-84539.83499999999,-49898.744999999995,-14485.904999999999,-19722.69,5277.0599999999995,-63909.494999999995,2.5426172106892664,3.171060570808766,3.872847377650005,-5.833108804486633,-2.771365931802983,0.9306432531648791,6.351955286074269,2.8677038437259927,-0.299132535,-0.854551035,0.40148823,-9.55276,-3.4335,-1.84646,71.0
1774822142.2983375,2.193450927734375e-05,2026-03-29T22:09:02.298,2026-03-29T18:09:02.298,-32671.8,-48780.63,-84552.61499999999,-49908.915,-14515.38,-19755.54,5269.05,-63883.799999999996,1.95276317623292,3.8744026506961617,6.717546774059761,-2.8798150477092923,-1.5129450800931914,0.25634540708294234,6.877685723035037,2.0032153193765976,-0.299132535,-0.854551035,0.40148823,-9.55276,-3.4335,-1.84646,71.0
1774822142.2983534,1.5974044799804688e-05,2026-03-29T22:09:02.298,2026-03-29T18:09:02.298,-32674.77,-48774.33,-84539.745,-49892.445,-14504.715,-19756.395,5247.36,-63893.384999999995,0.5808721000779953,2.951902204586962,6.653773965958545,1.2266562637479603,0.4279366901475581,-0.5383279699509163,4.32950637313044,0.2890900287697278,-0.299132535,-0.854551035,0.40148823,-9.55276,-3.4335,-1.84646,71.0
1774822142.29836,6.67572021484375e-06,2026-03-29T22:09:02.298,2026-03-29T18:09:02.298,-32700.239999999998,-48770.415,-84528.72,-49869.36,-14472.18,-19722.42,5239.665,-63935.909999999996,-1.0470082349995886,0.7696564893049088,3.976405202983459,5.049473768616154,2.2181174687287535,-1.119295771501157,-0.19286316815151655,-1.6289741896978274,-0.299132535,-0.854551035,0.40148823,-9.55276,-3.4335,-1.84646,71.0
1774822142.3030992,0.004739046096801758,2026-03-29T22:09:02.303,2026-03-29T18:09:02.303,-32702.129999999997,-48783.195,-84548.97,-49876.47,-14470.199999999999,-19710.09,5243.13,-63930.555,-2.276132726595409,-1.754847165426385,-0.012361128957862974,7.131468839029177,3.0503794010280525,-1.2493883782271547,-4.692098287151201,-2.9620262606332313,-0.299132535,-0.854551035,0.40148823,-9.55276,-3.4335,-1.84646,71.0
1774822142.3031185,1.9311904907226562e-05,2026-03-29T22:09:02.303,2026-03-29T18:09:02.303,-32702.129999999997,-48791.115,-84559.095,-49872.6,-14464.35,-19709.145,5228.28,-63924.255,-2.592416282926941,-3.542234382353849,-3.6389369605643958,6.5398196467653875,2.522411701684918,-0.8754817571316944,-7.156770832092069,-3.1123530318795525,-0.299132535,-0.854551035,0.40148823,-9.55276,-3.4335,-1.84646,71.0
1774822142.315455,0.012336492538452148,2026-03-29T22:09:02.315,2026-03-29T18:09:02.315,-32711.309999999998,-48803.265,-84560.715,-49843.485,-14442.705,-19705.995,5211.72,-63934.064999999995,-1.849428012065808,-3.822217975023719,-5.560278079946481,3.3020280089618304,0.849135395639659,-0.13943720235518448,-6.4599677756463345,-1.957587592545579,-0.299132535,-0.854551035,0.40148823,-9.55276,-3.4335,-1.84646,71.0
1774822142.3154817,2.6702880859375e-05,2026-03-29T22:09:02.315,2026-03-29T18:09:02.315,-32696.774999999998,-48803.895,-84571.37999999999,-49861.755,-14460.164999999999,-19722.015,5220.855,-63915.03,-0.34695578059855503,-2.475894164513091,-5.237139846809351,-1.4783441325698363,-1.2100756520052125,0.6813125762381753,-2.87245973808347,0.057560018935968404,-0.299132535,-0.854551035,0.40148823,-9.55276,-3.4335,-1.84646,71.0
1774822142.3155065,2.47955322265625e-05,2026-03-29T22:09:02.315,2026-03-29T18:09:02.315,-32676.39,-48784.905,-84558.645,-49892.534999999996,-14485.904999999999,-19730.475,5241.554999999999,-63890.865,1.2850814602420635,-0.09197157280639233,-3.025579911275407,-5.946039344602167,-2.69373483133542,1.275540967852782,2.0418159097163207,2.08558439757746,-0.299132535,-0.854551035,0.40148823,-9.55276,-3.4335,-1.84646,71.0
1774822142.3155143,7.867813110351562e-06,2026-03-29T22:09:02.315,2026-03-29T18:09:02.315,-32674.094999999998,-48751.38,-84519.0,-49894.604999999996,-14491.08,-19721.25,5258.565,-63900.945,2.3555119901677477,2.292711701479162,0.08338039210509321,-8.197297618549847,-2.8967494944817185,1.4068277191469805,6.1076492366969095,3.240125676212195,-0.299132535,-0.854551035,0.40148823,-9.55276,-3.4335,-1.84646,71.0
1774822142.315523,8.58306884765625e-06,2026-03-29T22:09:02.315,2026-03-29T18:09:02.315,-32684.85,-48742.064999999995,-84503.79,-49878.99,-14472.18,-19700.46,5270.804999999999,-63920.564999999995,2.4166795116988777,3.653309441536535,2.9103230695456386,-7.105043436836239,-1.7221693292305493,0.9971312194861174,7.500673976651314,2.999740441058108,-0.30090255,-0.85900659,0.399229935,-11.704419999999999,-7.14168,-1.55652,71.0
1774822142.3155296,6.67572021484375e-06,2026-03-29T22:09:02.315,2026-03-29T18:09:02.315,-32669.82,-48751.38,-84527.01,-49898.52,-14481.045,-19708.605,5271.795,-63894.689999999995,1.4648875066226361,3.429166183562558,4.51731619643515,-2.9017681126616446,0.2560298744993387,0.1622948944705203,5.56503082597929,1.4599875226663737,-0.30090255,-0.85900659,0.399229935,-11.704419999999999,-7.14168,-1.55652,71.0
1774822142.3200436,0.004513978958129883,2026-03-29T22:09:02.320,2026-03-29T18:09:02.320,-32660.64,-48759.255,-84543.3,-49905.945,-14492.519999999999,-19723.32,5272.92,-63877.095,-0.059842408266026256,1.7626435547766948,4.474175503229211,2.787765427994359,2.063757104598213,-0.8130513388724192,1.1211740625064015,-0.6952331827488547,-0.30090255,-0.85900659,0.399229935,-11.704419999999999,-7.14168,-1.55652,71.0
1774822142.3200588,1.52587890625e-05,2026-03-29T22:09:02.320,2026-03-29T18:09:02.320,-32664.78,-48770.729999999996,-84554.775,-49903.02,-14505.975,-19750.14,5238.855,-63877.005,-1.4779175003121163,-0.5815051415443482,2.914757574948527,7.550867087454251,2.8071093644434777,-1.560771859444856,-3.879793573179466,-2.500831331249967,-0.30090255,-0.85900659,0.399229935,-11.704419999999999,-7.14168,-1.55652,71.0
1774822142.3305256,0.010466814041137695,2026-03-29T22:09:02.330,2026-03-29T18:09:02.330,-32690.024999999998,-48777.165,-84546.135,-49858.2,-14476.769999999999,-19739.385,5234.76,-63910.395,-2.183284671933619,-2.5734993822304197,0.42335918194083466,9.217388152137751,2.1246869649638334,-1.7569940779410063,-7.210629054907071,-3.156703731481596,-0.30090255,-0.85900659,0.399229935,-11.704419999999999,-7.14168,-1.55652,71.0
1774822142.3305538,2.8133392333984375e-05,2026-03-29T22:09:02.330,2026-03-29T18:09:02.330,-32715.809999999998,-48775.68,-84530.25,-49829.085,-14450.894999999999,-19716.48,5257.08,-63951.255,-1.9165848945861084,-3.382725336566168,-2.1719831831035,6.87277440993456,0.3789186311194222,-1.2551218596711404,-7.358456897205034,-2.4002261340310658,-0.30090255,-0.85900659,0.399229935,-11.704419999999999,-7.14168,-1.55652,71.0
1774822142.3305824,2.86102294921875e-05,2026-03-29T22:09:02.330,2026-03-29T18:09:02.330,-32703.254999999997,-48774.689999999995,-84532.545,-49861.845,-14477.445,-19725.255,5254.245,-63927.585,-0.8683121179317187,-2.73375023102962,-4.033072625154575,1.3700370623019231,-1.5205133246638642,-0.173256965114769,-4.212048524374426,-0.6233275197512769,-0.30090255,-0.85900659,0.399229935,-11.704419999999999,-7.14168,-1.55652,71.0
1774822142.3305912,8.821487426757812e-06,2026-03-29T22:09:02.330,2026-03-29T18:09:02.330,-32696.19,-48775.275,-84540.78,-49910.085,-14497.785,-19724.13,5237.235,-63920.52,0.4341363449074434,-0.9963887950259792,-4.533462158291426,-4.9476122377836225,-2.580652648315604,1.1111425095807,0.8658553278757039,1.3243469378534092,-0.30090255,-0.85900659,0.399229935,-11.704419999999999,-7.14168,-1.55652,71.0
1774822142.3306026,1.1444091796875e-05,2026-03-29T22:09:02.330,2026-03-29T18:09:02.330,-32693.94,-48777.659999999996,-84558.23999999999,-49933.17,-14489.189999999999,-19715.67,5245.0199999999995,-63913.68,1.3943205360285669,1.0181170536220816,-3.443015737789763,-9.244344010911488,-2.243172196497144,2.0788024264735636,5.6244976263137385,2.549439904563806,-0.30090255,-0.85900659,0.399229935,-11.704419999999999,-7.14168,-1.55652,71.0
1774822142.33061,7.3909759521484375e-06,2026-03-29T22:09:02.330,2026-03-29T18:09:02.330,-32693.625,-48777.525,-84559.095,-49877.685,-14445.855,-19702.934999999998,5248.62,-63908.235,1.6323838451473878,2.4447981707544177,-1.0379281530807194,-9.485119937503265,-0.6862568772811197,2.2710573121242486,7.919656841057389,2.5408267915082927,-0.30090255,-0.85900659,0.399229935,-11.704419999999999,-7.14168,-1.55652,71.0
1774822142.3354232,0.004813194274902344,2026-03-29T22:09:02.335,2026-03-29T18:09:02.335,-32683.77,-48771.18,-84552.705,-49850.955,-14452.064999999999,-19724.94,5236.38,-63899.369999999995,1.1460323019624872,2.74715792320219,1.917832283142031,-5.425548848502976,1.2551955803290742,1.502649877810891,6.679281690695133,1.3970488758682293,-0.304137405,-0.87255636,0.39770406,-9.96478,-8.89658,-0.7019599999999999,71.0
1774822142.3354452,2.193450927734375e-05,2026-03-29T22:09:02.335,2026-03-29T18:09:02.335,-32684.715,-48762.72,-84541.23,-49868.145,-14474.789999999999,-19746.0,5222.835,-63902.744999999995,0.27257525539681804,1.9194680010434633,4.36358328269888,1.1941132006135522,2.5209210305007517,-0.012041680409845445,2.406136283774509,-0.25327998577541666,-0.304137405,-0.87255636,0.39770406,-9.96478,-8.89658,-0.7019599999999999,71.0
1774822142.3394763,0.004031181335449219,2026-03-29T22:09:02.339,2026-03-29T18:09:02.339,-32688.315,-48756.555,-84540.465,-49898.159999999996,-14498.279999999999,-19752.165,5229.764999999999,-63912.735,-0.5168178988429982,0.4320399310984725,5.293590147724382,7.386873531387908,2.390592780850604,-1.6952881693622288,-3.018689129405389,-1.589474548027572,-0.304137405,-0.87255636,0.39770406,-9.96478,-8.89658,-0.7019599999999999,71.0
1774822142.339494,1.7642974853515625e-05,2026-03-29T22:09:02.339,2026-03-29T18:09:02.339,-32685.03,-48749.13,-84528.09,-49885.74,-14477.984999999999,-19719.765,5249.97,-63910.439999999995,-0.8728554174089076,-1.03023302916355,4.170644736220651,10.280127272229317,0.8860816015194579,-2.8167692186181212,-7.158630766952384,-2.0157253232247365,-0.304137405,-0.87255636,0.39770406,-9.96478,-8.89658,-0.7019599999999999,71.0
1774822142.3432596,0.003765583038330078,2026-03-29T22:09:02.343,2026-03-29T18:09:02.343,-32684.715,-48754.53,-84541.095,-49899.104999999996,-14484.105,-19718.415,5241.554999999999,-63908.415,-0.7344772637500576,-1.8926936957020262,1.2318117427649102,8.473453250866761,-1.2110939493429982,-2.8077956740380903,-8.11379433977759,-1.4412819658196387,-0.304137405,-0.87255636,0.39770406,-9.96478,-8.89658,-0.7019599999999999,71.0
1774822142.3432813,2.1696090698242188e-05,2026-03-29T22:09:02.343,2026-03-29T18:09:02.343,-32687.684999999998,-48760.515,-84538.305,-49878.27,-14472.765,-19718.64,5231.385,-63907.47,-0.321006288327825,-1.9205757507487728,-2.4851184276425338,2.7400552680498103,-2.752512626769676,-1.5452098150792677,-5.394348489176709,-0.2851593781569757,-0.304137405,-0.87255636,0.39770406,-9.96478,-8.89658,-0.7019599999999999,71.0
1774822142.34941,0.006128787994384766,2026-03-29T22:09:02.349,2026-03-29T18:09:02.349,-32687.37,-48766.229999999996,-84579.705,-49890.96,-14488.695,-19735.065,5232.554999999999,-63905.534999999996,0.034569090378575675,-1.259219801535784,-5.472752015072288,-4.288710914042143,-2.8328855956873475,0.5353947090521726,-0.1732951936744318,0.7845862881637311,-0.304137405,-0.87255636,0.39770406,-9.96478,-8.89658,-0.7019599999999999,71.0
1774822142.3494349,2.47955322265625e-05,2026-03-29T22:09:02.349,2026-03-29T18:09:02.349,-32684.219999999998,-48765.284999999996,-84594.78,-49905.225,-14491.215,-19731.015,5248.485,-63900.314999999995,0.10602903213546346,-0.2950412579668194,-6.359397319964166,-9.335133959807678,-1.2993839531178166,2.575059927902996,5.212166416032928,1.2263199392581572,-0.304137405,-0.87255636,0.39770406,-9.96478,-8.89658,-0.7019599999999999,71.0
1774822142.3519704,0.002535581588745117,2026-03-29T22:09:02.351,2026-03-29T18:09:02.351,-32686.965,-48768.84,-84578.58,-49903.74,-14485.32,-19728.719999999998,5239.44,-63902.07,-0.08593120786106952,0.5650732484891299,-4.5489801220973884,-10.02296323184607,1.1190034394328658,3.642975691611826,8.302674875902197,0.9073256749089939,-0.304137405,-0.87255636,0.39770406,-9.96478,-8.89658,-0.7019599999999999,71.0
1774822142.3519888,1.8358230590820312e-05,2026-03-29T22:09:02.351,2026-03-29T18:09:02.351,-32686.11,-48767.58,-84561.3,-49899.689999999995,-14468.4,-19712.204999999998,5243.58,-63899.729999999996,-0.29885533676810344,1.0718125717772082,-0.5926283424720574,-6.021470709409987,3.151954944022627,3.162180029341202,7.639880821069121,0.1424760846502029,-0.304137405,-0.87255636,0.39770406,-9.96478,-8.89658,-0.7019599999999999,71.0
1774822142.355513,0.003524303436279297,2026-03-29T22:09:02.355,2026-03-29T18:09:02.355,-32683.59,-48758.49,-84530.745,-49907.34,-14471.64,-19711.17,5260.679999999999,-63895.185,-0.24430509165430553,1.1875234507397687,3.929053286581794,0.7759069422723994,3.641575178466505,1.214215251377467,3.4579750580955952,-0.5229660830215462,-0.30200118,-0.88329852,0.40075581,-7.66052,-8.95762,-1.35814,71.0
1774822142.35554,2.6941299438476562e-05,2026-03-29T22:09:02.355,2026-03-29T18:09:02.355,-32678.055,-48744.0,-84508.155,-49910.265,-14488.064999999999,-19718.235,5264.46,-63893.79,0.19383496221161162,1.0166676994365083,7.024747640243775,7.141615409329999,2.1773717840149756,-1.435950061146085,-2.3858311612766845,-0.6545989818715525,-0.30200118,-0.88329852,0.40075581,-7.66052,-8.95762,-1.35814,71.0
1774822142.3610835,0.00554347038269043,2026-03-29T22:09:02.361,2026-03-29T18:09:02.361,-32673.105,-48733.47,-84491.685,-49883.085,-14493.869999999999,-19729.755,5252.8949999999995,-63895.095,0.8385558772831994,0.6840459025476606,7.177138930397937,10.056318323973928,-0.627825696367492,-3.6348634998992977,-7.230318254065183,-0.1935686378356906,-0.30200118,-0.88329852,0.40075581,-7.66052,-8.95762,-1.35814,71.0
1774822142.3611145,3.0994415283203125e-05,2026-03-29T22:09:02.361,2026-03-29T18:09:02.361,-32672.745,-48731.49,-84481.83,-49855.77,-14480.1,-19728.63,5247.045,-63893.024999999994,1.28513429215592,0.25215633912844004,4.096915000643096,8.1616125558623,-3.3897692456040116,-4.344993025453354,-8.820691649624468,0.5107892715724194,-0.30200118,-0.88329852,0.40075581,-7.66052,-8.95762,-1.35814,71.0
1774822142.3658118,0.004697322845458984,2026-03-29T22:09:02.365,2026-03-29T18:09:02.365,-32673.69,-48739.814999999995,-84495.15,-49845.555,-14463.539999999999,-19717.695,5251.86,-63889.695,1.1326188605757919,-0.27032661865172314,-1.0326438057599978,2.4149714495916337,-4.631651816798256,-3.1369657068131276,-6.360651179006523,0.9212800139095593,-0.30200118,-0.88329852,0.40075581,-7.66052,-8.95762,-1.35814,71.0
1774822142.3658268,1.5020370483398438e-05,2026-03-29T22:09:02.365,2026-03-29T18:09:02.365,-32674.545,-48751.11,-84513.87,-49846.229999999996,-14460.164999999999,-19716.93,5244.075,-63882.36,0.25568872627404554,-0.8480401451012083,-5.9894827031903715,-4.3782294707382965,-3.558245750449843,-0.43463659775162966,-0.9138505142387551,0.6583933040096874,-0.30200118,-0.88329852,0.40075581,-7.66052,-8.95762,-1.35814,71.0
1774822142.3673277,0.001500844955444336,2026-03-29T22:09:02.367,2026-03-29T18:09:02.367,-32673.87,-48746.475,-84511.305,-49850.729999999996,-14458.994999999999,-19715.805,5242.23,-63881.415,-1.048302660151324,-1.3416517601711473,-8.477996698951369,-8.93251616452379,-0.5245866698340061,2.6224149551005524,5.048963656041355,-0.23469561793582755,-0.30200118,-0.88329852,0.40075581,-7.66052,-8.95762,-1.35814,71.0
1774822142.367336,8.344650268554688e-06,2026-03-29T22:09:02.367,2026-03-29T18:09:02.367,-32678.46,-48735.854999999996,-84495.78,-49853.835,-14461.74,-19712.88,5248.755,-63891.45,-2.146870265471445,-1.5130436348203689,-7.205153359038692,-9.082859347248313,3.064761389356539,4.661374967616932,8.76830080137717,-1.273904767916962,-0.30200118,-0.88329852,0.40075581,-7.66052,-8.95762,-1.35814,71.0
1774822142.3715885,0.004252433776855469,2026-03-29T22:09:02.371,2026-03-29T18:09:02.371,-32684.175,-48747.015,-84512.565,-49860.63,-14468.355,-19721.52,5251.365,-63891.99,-2.3779638514475914,-1.1388738972041514,-2.5572903172682295,-4.832701082556431,5.408391519866709,4.698622130928587,8.474790455022147,-1.7906814264894726,-0.30200118,-0.88329852,0.40075581,-7.66052,-8.95762,-1.35814,71.0
1774822142.3716,1.1444091796875e-05,2026-03-29T22:09:02.371,2026-03-29T18:09:02.371,-32683.86,-48759.884999999995,-84537.315,-49865.895,-14471.144999999999,-19728.765,5249.295,-63886.77,-1.426494858193932,-0.1792230626084644,3.477891240379955,1.6660593745027503,5.208216411281027,2.617017307339969,4.234762283461942,-1.3294674563815458,-0.30200118,-0.88329852,0.40075581,-7.66052,-8.95762,-1.35814,71.0
1774822142.375336,0.0037360191345214844,2026-03-29T22:09:02.375,2026-03-29T18:09:02.375,-32679.585,-48767.895,-84540.69,-49841.685,-14454.585,-19724.579999999998,5240.025,-63877.86,0.43521845373875295,1.1066899061074098,8.157993155340112,7.189813202132813,2.3682533203258593,-0.7350936309870244,-2.0437584701453604,0.04014500881092931,-0.296446995,-0.883359555,0.40136616,-12.42164,-6.80596,1.19028,71.0
1774822142.3753548,1.8835067749023438e-05,2026-03-29T22:09:02.375,2026-03-29T18:09:02.375,-32669.055,-48759.93,-84533.895,-49845.869999999995,-14465.654999999999,-19732.32,5232.014999999999,-63867.645,2.39859985380455,2.1965494650597797,9.242356731819742,9.041989159042037,-1.8774852086319274,-3.8896601683178544,-7.46701309732073,1.6899779984475087,-0.296446995,-0.883359555,0.40136616,-12.42164,-6.80596,1.19028,71.0
1774822142.380058,0.0047032833099365234,2026-03-29T22:09:02.380,2026-03-29T18:09:02.380,-32665.32,-48744.09,-84517.83,-49869.045,-14487.705,-19740.105,5236.335,-63868.5,3.4723251037780263,2.515157903068195,6.077868875521455,6.380033325372179,-5.504962378361806,-5.408728654390753,-9.49094307034287,2.7252040885792206,-0.296446995,-0.883359555,0.40136616,-12.42164,-6.80596,1.19028,71.0
1774822142.3801208,6.270408630371094e-05,2026-03-29T22:09:02.380,2026-03-29T18:09:02.380,-32670.09,-48737.205,-84520.26,-49908.015,-14520.555,-19759.68,5231.7,-63876.689999999995,2.982892992943396,1.735776918731031,-0.017460948455934072,0.6127437406108903,-6.669989484714326,-4.54735662694355,-7.118763934479486,2.464588198976357,-0.296446995,-0.883359555,0.40136616,-12.42164,-6.80596,1.19028,71.0
1774822142.3832846,0.0031638145446777344,2026-03-29T22:09:02.383,2026-03-29T18:09:02.383,-32653.17,-48735.765,-84523.275,-49893.255,-14506.605,-19754.415,5228.91,-63856.215,0.9693085036097577,0.015791506561068095,-6.293474977907842,-5.325625591762965,-4.6407317392087695,-1.620393113557477,-1.3944394377021327,0.853088697929542,-0.296446995,-0.883359555,0.40136616,-12.42164,-6.80596,1.19028,71.0
1774822142.3832943,9.775161743164062e-06,2026-03-29T22:09:02.383,2026-03-29T18:09:02.383,-32672.295,-48738.735,-84515.625,-49863.24,-14470.244999999999,-19722.555,5242.905,-63875.159999999996,-1.750723421781393,-1.9827692879697774,-9.814278215798865,-8.45687741515403,-0.22267631455257525,2.10842687609762,5.053955226261302,-1.4321990299067635,-0.296446995,-0.883359555,0.40136616,-12.42164,-6.80596,1.19028,71.0
1774822142.3877609,0.004466533660888672,2026-03-29T22:09:02.387,2026-03-29T18:09:02.387,-32683.68,-48744.945,-84526.47,-49884.884999999995,-14481.63,-19726.605,5253.795,-63884.564999999995,-3.9126709024591193,-3.3411999938204398,-8.844532242599183,-7.251312913155424,4.560169867523895,4.978491096382588,9.223108038333669,-3.2699485640244483,-0.296446995,-0.883359555,0.40136616,-12.42164,-6.80596,1.19028,71.0
1774822142.387783,2.2172927856445312e-05,2026-03-29T22:09:02.387,2026-03-29T18:09:02.387,-32695.065,-48735.494999999995,-84505.59,-49867.29,-14461.515,-19708.965,5260.905,-63914.13,-4.400954379151843,-3.3120663782731055,-3.7153499672720796,-2.3828852760578854,7.402237775475299,5.68123415287939,9.138368396891135,-3.652673789623496,-0.296446995,-0.883359555,0.40136616,-12.42164,-6.80596,1.19028,71.0
1774822142.3928893,0.005106210708618164,2026-03-29T22:09:02.392,2026-03-29T18:09:02.392,-32705.414999999997,-48734.415,-84496.455,-49860.09,-14451.345,-19697.579999999998,5258.61,-63927.854999999996,-2.8244882124467865,-1.7255539118601937,3.2662506962035764,3.6290502331758474,6.833203655467184,3.8636699540242785,4.793495034310816,-2.2339593777353746,-0.296446995,-0.883359555,0.40136616,-12.42164,-6.80596,1.19028,71.0
1774822142.3929272,3.790855407714844e-05,2026-03-29T22:09:02.392,2026-03-29T18:09:02.392,-32687.19,-48740.939999999995,-84513.465,-49860.854999999996,-14467.859999999999,-19713.465,5230.304999999999,-63900.225,0.22510954579997974,0.844623287122518,8.85514238586237,7.706672990755027,2.970837123606806,0.3047616424588529,-1.8237887562110662,0.4306151650462062,-0.296446995,-0.883359555,0.40136616,-12.42164,-6.80596,1.19028,71.0
1774822142.39792,0.00499272346496582,2026-03-29T22:09:02.397,2026-03-29T18:09:02.397,-32685.434999999998,-48752.189999999995,-84532.31999999999,-49857.705,-14476.005,-19724.67,5240.97,-63889.47,3.3891364935550685,3.2748729464682698,10.38615404940316,7.777237426314567,-2.4731538656156125,-3.42337578809916,-7.644198828384018,3.0998268842285883,-0.29125902,-0.87719502,0.40368549,-13.703479999999999,-8.179359999999999,5.06632,71.0
1774822142.3979392,1.9311904907226562e-05,2026-03-29T22:09:02.397,2026-03-29T18:09:02.397,-32684.129999999997,-48750.479999999996,-84540.105,-49863.645,-14483.789999999999,-19730.745,5245.695,-63882.09,5.156595099038564,4.388344298062696,7.057865766124828,3.8226614579504807,-6.96234153973147,-5.659693485316137,-9.94720917915971,4.4372156145293316,-0.29125902,-0.87719502,0.40368549,-13.703479999999999,-8.179359999999999,5.06632,71.0
1774822142.4024827,0.0045435428619384766,2026-03-29T22:09:02.402,2026-03-29T18:09:02.402,-32681.565,-48746.564999999995,-84557.205,-49879.845,-14491.664999999999,-19733.715,5239.9349999999995,-63879.704999999994,4.595743128051581,3.5328119759406746,0.3583256058566945,-2.115107242997325,-8.32911671081028,-5.403679404170565,-7.639286949384349,3.689393131415823,-0.29125902,-0.87719502,0.40368549,-13.703479999999999,-8.179359999999999,5.06632,71.0
1774822142.402512,2.9325485229492188e-05,2026-03-29T22:09:02.402,2026-03-29T18:09:02.402,-32688.09,-48740.715,-84544.065,-49905.81,-14487.705,-19721.88,5235.48,-63889.515,1.8438694397179134,0.9528357177028,-6.595055288260706,-6.975317443916888,-5.8253244141193345,-2.7673235854928273,-1.7756908365589497,1.1041577618632017,-0.29125902,-0.87719502,0.40368549,-13.703479999999999,-8.179359999999999,5.06632,71.0
1774822142.4056878,0.0031757354736328125,2026-03-29T22:09:02.405,2026-03-29T18:09:02.405,-32689.215,-48740.534999999996,-84534.93,-49942.799999999996,-14487.93,-19719.18,5237.775,-63888.21,-1.9017306430766305,-2.2522739169368196,-10.511072944881127,-8.23928110507872,-0.5185185060241738,1.0767814108585338,4.9250725099436385,-2.141369789625058,-0.29125902,-0.87719502,0.40368549,-13.703479999999999,-8.179359999999999,5.06632,71.0
1774822142.4057145,2.6702880859375e-05,2026-03-29T22:09:02.405,2026-03-29T18:09:02.405,-32682.645,-48740.534999999996,-84524.04,-49915.485,-14482.89,-19726.245,5244.795,-63881.774999999994,-4.9123088690004595,-4.599416289435926,-9.493831916508375,-5.220261634036811,5.171681515494643,4.425846970542458,9.349743502589382,-4.4885745077200525,-0.29125902,-0.87719502,0.40368549,-13.703479999999999,-8.179359999999999,5.06632,71.0
1774822142.4123716,0.006657123565673828,2026-03-29T22:09:02.412,2026-03-29T18:09:02.412,-32681.204999999998,-48731.85,-84482.955,-49858.424999999996,-14472.404999999999,-19730.295,5255.46,-63881.729999999996,-5.738927317300641,-4.918993837299086,-3.972399574013309,0.5729539343411774,8.591528173689285,5.811651743349775,9.446035679073189,-4.760870609530165,-0.29125902,-0.87719502,0.40368549,-13.703479999999999,-8.179359999999999,5.06632,71.0
1774822142.412409,3.743171691894531e-05,2026-03-29T22:09:02.412,2026-03-29T18:09:02.412,-32685.254999999997,-48731.354999999996,-84474.045,-49842.045,-14472.404999999999,-19732.995,5236.605,-63886.095,-3.919766478223084,-2.9459574611398143,3.4695955952531907,6.187617559647034,8.101904232593908,4.651097350201063,5.1801165968468625,-2.7624015020413895,-0.29125902,-0.87719502,0.40368549,-13.703479999999999,-8.179359999999999,5.06632,71.0
1774822142.4124358,2.6702880859375e-05,2026-03-29T22:09:02.412,2026-03-29T18:09:02.412,-32668.739999999998,-48715.695,-84469.815,-49850.955,-14486.039999999999,-19739.295,5217.885,-63874.439999999995,-0.2339065287247635,0.4973289570617693,9.302618326416566,8.719414156469137,3.8649317398399927,1.4908928782166335,-1.4541555506716566,0.5964300798906036,-0.29125902,-0.87719502,0.40368549,-13.703479999999999,-8.179359999999999,5.06632,71.0
1774822142.4124458,1.0013580322265625e-05,2026-03-29T22:09:02.412,2026-03-29T18:09:02.412,-32656.725,-48704.805,-84453.345,-49826.115,-14465.744999999999,-19729.395,5213.5199999999995,-63860.939999999995,3.6362761618345107,3.8421849949368974,10.732795830498272,6.795118209672365,-2.209896216539913,-2.2559626995090474,-7.37542702170998,3.722430010079414,-0.29125902,-0.87719502,0.40368549,-13.703479999999999,-8.179359999999999,5.06632,71.0
1774822142.415291,0.002845287322998047,2026-03-29T22:09:02.415,2026-03-29T18:09:02.415,-32653.215,-48702.555,-84459.555,-49842.314999999995,-14470.515,-19727.415,5221.17,-63854.28,5.885969092693412,5.498495421896824,7.051925487985097,1.295298014878083,-7.341228050977477,-4.952290380642266,-9.857549269097904,5.111148742321095,-0.2868645,-0.87548604,0.402525825,-16.83178,-6.39394,3.9676,71.0
1774822142.415311,2.002716064453125e-05,2026-03-29T22:09:02.415,2026-03-29T18:09:02.415,-32667.57,-48710.205,-84470.715,-49856.22,-14474.43,-19725.03,5240.025,-63870.884999999995,5.443777685038107,4.623942854304395,-0.00140878623763576,-5.055361088685409,-9.164504213681807,-5.4607303363243505,-7.793763715180876,4.08590966120957,-0.2868645,-0.87548604,0.402525825,-16.83178,-6.39394,3.9676,71.0
1774822142.423113,0.007802009582519531,2026-03-29T22:09:02.423,2026-03-29T18:09:02.423,-32674.094999999998,-48719.655,-84481.47,-49862.25,-14474.519999999999,-19721.655,5254.695,-63873.63,2.4904682515816576,1.559764593654443,-7.057683227245555,-9.035761913627532,-6.829465904962316,-3.625231769079705,-2.1914055851590453,1.1348458849716385,-0.2868645,-0.87548604,0.402525825,-16.83178,-6.39394,3.9676,71.0
1774822142.4231431,3.0040740966796875e-05,2026-03-29T22:09:02.423,2026-03-29T18:09:02.423,-32675.76,-48725.909999999996,-84492.58499999999,-49865.939999999995,-14480.82,-19730.835,5261.535,-63875.34,-1.6141803234353722,-2.2952030236307066,-10.728772649410173,-8.547236335783882,-1.3932372714665635,-0.3053339162936747,4.32508536206927,-2.32497744145861,-0.2868645,-0.87548604,0.402525825,-16.83178,-6.39394,3.9676,71.0
1774822142.423168,2.47955322265625e-05,2026-03-29T22:09:02.423,2026-03-29T18:09:02.423,-32679.315,-48732.435,-84505.14,-49873.545,-14487.66,-19741.86,5258.745,-63878.13,-4.967217347325817,-5.130268241116558,-9.244106574314374,-3.6947917422094863,4.671355178003361,3.034312078769018,8.755744497865456,-4.640791281745087,-0.2868645,-0.87548604,0.402525825,-16.83178,-6.39394,3.9676,71.0
1774822142.423179,1.0967254638671875e-05,2026-03-29T22:09:02.423,2026-03-29T18:09:02.423,-32674.23,-48726.765,-84496.545,-49867.515,-14484.689999999999,-19743.75,5239.17,-63871.829999999994,-6.019325750271479,-5.587226889284506,-3.3165246373228494,3.2172191174472093,8.617455640776798,4.9796373720798925,9.118377256090206,-4.7299949875970135,-0.2868645,-0.87548604,0.402525825,-16.83178,-6.39394,3.9676,71.0
1774822142.4343152,0.011136293411254883,2026-03-29T22:09:02.434,2026-03-29T18:09:02.434,-32668.829999999998,-48720.555,-84486.15,-49862.564999999995,-14480.595,-19740.195,5234.13,-63863.415,-4.3034976251762345,-3.4246494373483776,4.190630570581617,8.78785214218814,8.680790379834546,4.769947674798328,5.340550784588551,-2.5986448626064935,-0.2868645,-0.87548604,0.402525825,-16.83178,-6.39394,3.9676,71.0
1774822142.434333,1.7881393432617188e-05,2026-03-29T22:09:02.434,2026-03-29T18:09:02.434,-32668.199999999997,-48723.84,-84491.50499999999,-49863.735,-14477.535,-19730.88,5242.365,-63857.024999999994,-0.6472612288032725,0.34862050071739376,9.643911241748196,10.188422985598672,4.870349929239739,2.588821894059816,-0.7539393250623887,0.6811891049795837,-0.2868645,-0.87548604,0.402525825,-16.83178,-6.39394,3.9676,71.0
1774822142.434358,2.47955322265625e-05,2026-03-29T22:09:02.434,2026-03-29T18:09:02.434,-32673.87,-48737.52,-84511.44,-49877.189999999995,-14485.185,-19730.835,5248.8,-63856.665,3.230160651416943,3.9464557496008306,10.403361057001172,6.579391932021301,-1.062155344076853,-0.5644655388447328,-6.334860378755205,3.516166526454269,-0.2868645,-0.87548604,0.402525825,-16.83178,-6.39394,3.9676,71.0
1774822142.4343648,6.9141387939453125e-06,2026-03-29T22:09:02.434,2026-03-29T18:09:02.434,-32674.004999999997,-48737.88,-84513.19499999999,-49879.755,-14488.154999999999,-19736.46,5242.7699999999995,-63856.799999999996,5.53793092603133,5.662200426115276,6.111124050172548,-0.4273552253907229,-6.443662454041018,-3.3414756626531132,-8.893577784524753,4.5793360138854835,-0.2868645,-0.87548604,0.402525825,-16.83178,-6.39394,3.9676,71.0
1774822142.434374,9.298324584960938e-06,2026-03-29T22:09:02.434,2026-03-29T18:09:02.434,-32670.719999999998,-48723.21,-84497.12999999999,-49882.814999999995,-14494.095,-19742.265,5234.67,-63862.784999999996,5.254593153413601,4.693297451165258,-1.1285079024334974,-7.502192192116875,-8.899375586382487,-4.627322286604845,-7.379852234042324,3.44550509642342,-0.28259205,-0.885190605,0.403746525,-9.75114,-4.31858,6.50076,71.0
1774822142.4343803,6.198883056640625e-06,2026-03-29T22:09:02.434,2026-03-29T18:09:02.434,-32672.969999999998,-48714.659999999996,-84482.45999999999,-49865.895,-14480.73,-19732.77,5232.105,-63873.0,2.5889447776856325,1.5287453214312194,-7.7731215430074885,-11.186234785463915,-7.406894341312118,-3.984733197541436,-2.6277657016083493,0.7638500745050384,-0.28259205,-0.885190605,0.403746525,-9.75114,-4.31858,6.50076,71.0
1774822142.4394512,0.005070924758911133,2026-03-29T22:09:02.439,2026-03-29T18:09:02.439,-32679.18,-48712.77,-84470.76,-49848.84,-14465.205,-19719.495,5236.065,-63882.09,-1.1510810727207306,-2.293019586406483,-10.575215589502776,-9.573283092343752,-2.7139705685232243,-1.7844712786636867,3.099265477054312,-2.103600007677073,-0.28259205,-0.885190605,0.403746525,-9.75114,-4.31858,6.50076,71.0
1774822142.4394765,2.5272369384765625e-05,2026-03-29T22:09:02.439,2026-03-29T18:09:02.439,-32670.36,-48720.465,-84490.65,-49860.27,-14474.88,-19730.475,5242.1849999999995,-63869.67,-4.2051092394527645,-4.937751765069504,-8.176473192099378,-3.270547242463588,3.046335851674073,1.005070887074912,7.198379642961345,-3.779743059288451,-0.28259205,-0.885190605,0.403746525,-9.75114,-4.31858,6.50076,71.0
1774822142.4435124,0.00403594970703125,2026-03-29T22:09:02.443,2026-03-29T18:09:02.443,-32666.805,-48729.375,-84503.52,-49858.424999999996,-14474.744999999999,-19734.795,5243.715,-63858.06,-5.200635256888792,-5.168822751341323,-1.777471349413422,4.836350902457784,7.341109131297242,3.2513750416535987,7.922030865172188,-3.5464677631133013,-0.28259205,-0.885190605,0.403746525,-9.75114,-4.31858,6.50076,71.0
1774822142.4435391,2.6702880859375e-05,2026-03-29T22:09:02.443,2026-03-29T18:09:02.443,-32664.824999999997,-48734.369999999995,-84507.705,-49855.814999999995,-14475.644999999999,-19740.285,5237.505,-63846.405,-3.7807317354517185,-2.9395382200577287,5.452328520546655,10.917972156248007,8.360856797050198,4.116843009745575,5.123670067485313,-1.6596582299206257,-0.28259205,-0.885190605,0.403746525,-9.75114,-4.31858,6.50076,71.0
1774822142.4479072,0.0043680667877197266,2026-03-29T22:09:02.447,2026-03-29T18:09:02.447,-32677.695,-48729.509999999995,-84493.89,-49860.09,-14481.225,-19742.489999999998,5204.205,-63866.52,-0.7272282783712576,0.6056765430185302,9.938956009608068,12.011332989529526,5.777875700316647,3.3576718543998285,0.235943535019026,0.8364948346429273,-0.28259205,-0.885190605,0.403746525,-9.75114,-4.31858,6.50076,71.0
1774822142.4479322,2.5033950805664062e-05,2026-03-29T22:09:02.447,2026-03-29T18:09:02.447,-32685.84,-48711.465,-84464.50499999999,-49849.29,-14475.465,-19732.14,5175.045,-63896.985,2.460376295241768,3.715587530943723,9.472755801592212,7.44914037679263,0.8242412610298676,1.3636597521698108,-4.465398343595959,2.678560541237422,-0.28259205,-0.885190605,0.403746525,-9.75114,-4.31858,6.50076,71.0
1774822142.4531658,0.0052335262298583984,2026-03-29T22:09:02.453,2026-03-29T18:09:02.453,-32667.3,-48691.17,-84448.26,-49836.195,-14464.439999999999,-19720.844999999998,5199.795,-63885.915,4.306681158034853,4.904653715715606,4.305153331529246,-0.7755102984733095,-4.308913807286146,-1.0450687579610118,-6.932653260549612,3.029356455248288,-0.28259205,-0.885190605,0.403746525,-9.75114,-4.31858,6.50076,71.0
1774822142.453198,3.218650817871094e-05,2026-03-29T22:09:02.453,2026-03-29T18:09:02.453,-32676.39,-48705.165,-84467.47499999999,-49839.03,-14463.855,-19725.255,5206.7699999999995,-63889.29,4.05353157995085,3.675708436741375,-2.974857248141306,-8.894952550174256,-7.452230157826037,-2.9573267022582206,-6.242925354118397,1.8676843330466908,-0.28259205,-0.885190605,0.403746525,-9.75114,-4.31858,6.50076,71.0
1774822142.4555635,0.002365589141845703,2026-03-29T22:09:02.455,2026-03-29T18:09:02.455,-32678.684999999998,-48730.14,-84508.29,-49867.604999999996,-14488.154999999999,-19752.57,5201.28,-63877.229999999996,1.9744309169710756,0.73547101228316,-8.7286760367442,-13.10184768439571,-7.374396287046703,-3.7046854511683116,-2.925567153091668,-0.06320764508511781,-0.28234791,-0.8886696000000001,0.39977925000000003,-4.18124,-3.90656,6.027699999999999,71.0
1774822142.455603,3.933906555175781e-05,2026-03-29T22:09:02.455,2026-03-29T18:09:02.455,-32654.52,-48716.685,-84492.495,-49841.82,-14467.769999999999,-19736.954999999998,5248.53,-63842.399999999994,-0.8215697393704623,-2.3945699894657864,-10.08349208254074,-11.330166332097885,-4.247430024089766,-3.0736438711810194,1.3851239655293144,-1.6972573518925687,-0.28234791,-0.8886696000000001,0.39977925000000003,-4.18124,-3.90656,6.027699999999999,71.0
1774822142.460177,0.0045740604400634766,2026-03-29T22:09:02.460,2026-03-29T18:09:02.460,-32693.85,-48732.795,-84488.12999999999,-49804.155,-14432.22,-19708.38,5268.735,-63884.204999999994,-2.9741002212188077,-4.163369739454724,-6.370404400567015,-4.251270117817886,0.504680722838527,-1.34211123373386,4.760753063776955,-2.225629724230932,-0.28234791,-0.8886696000000001,0.39977925000000003,-4.18124,-3.90656,6.027699999999999,71.0
1774822142.460206,2.9087066650390625e-05,2026-03-29T22:09:02.460,2026-03-29T18:09:02.460,-32718.555,-48758.04,-84507.165,-49797.494999999995,-14416.92,-19686.87,5274.045,-63900.899999999994,-3.5386025350116688,-3.766912604084498,0.5365669630384512,4.987250740958717,4.866126531382702,0.8469582836963468,5.848320946902975,-1.5027639365603198,-0.28234791,-0.8886696000000001,0.39977925000000003,-4.18124,-3.90656,6.027699999999999,71.0
1774822142.463392,0.0031859874725341797,2026-03-29T22:09:02.463,2026-03-29T18:09:02.463,-32705.145,-48743.729999999996,-84477.59999999999,-49795.02,-14425.515,-19690.065,5275.17,-63883.799999999996,-2.406918844184423,-1.5238193357880832,7.1562539945391865,12.173304525710945,7.08669632173887,2.715353449855597,4.403175698085034,-0.07234377322342891,-0.28234791,-0.8886696000000001,0.39977925000000003,-4.18124,-3.90656,6.027699999999999,72.0
1774822142.4634097,1.7642974853515625e-05,2026-03-29T22:09:02.463,2026-03-29T18:09:02.463,-32673.285,-48698.055,-84425.84999999999,-49818.735,-14453.685,-19704.42,5259.105,-63854.549999999996,-0.29134236429897803,1.3302139668696882,10.147728405195613,13.953803643319029,6.3708367429784145,3.6056894499492844,1.281052441148599,1.1811261619731312,-0.28234791,-0.8886696000000001,0.39977925000000003,-4.18124,-3.90656,6.027699999999999,72.0
1774822142.4679525,0.004542827606201172,2026-03-29T22:09:02.467,2026-03-29T18:09:02.467,-32674.725,-48705.39,-84455.50499999999,-49855.634999999995,-14469.84,-19716.93,5247.945,-63865.665,1.6913867353128396,3.308596156662459,7.994807293517189,9.390698229884691,3.1349028702164503,3.1919749756819047,-2.049269567544694,1.548095965454279,-0.28234791,-0.8886696000000001,0.39977925000000003,-4.18124,-3.90656,6.027699999999999,72.0
1774822142.4679828,3.0279159545898438e-05,2026-03-29T22:09:02.467,2026-03-29T18:09:02.467,-32675.039999999997,-48718.53,-84471.84,-49862.744999999995,-14474.025,-19718.774999999998,5252.58,-63863.28,2.6032023922940355,3.446470109757985,1.7785747897661486,0.43182394303523225,-1.2326008557830084,1.5901820779092857,-4.201823682982355,0.8866170439728315,-0.28234791,-0.8886696000000001,0.39977925000000003,-4.18124,-3.90656,6.027699999999999,72.0
1774822142.4716735,0.0036907196044921875,2026-03-29T22:09:02.471,2026-03-29T18:09:02.471,-32676.66,-48725.729999999996,-84482.09999999999,-49862.384999999995,-14483.43,-19729.305,5255.054999999999,-63860.354999999996,2.1326582876411764,1.7786007345015626,-5.357643798134768,-8.93092864869928,-4.971110176592004,-0.6631269475419699,-4.4457999843518134,-0.3220552542867158,-0.28234791,-0.8886696000000001,0.39977925000000003,-4.18124,-3.90656,6.027699999999999,72.0
1774822142.4717019,2.8371810913085938e-05,2026-03-29T22:09:02.471,2026-03-29T18:09:02.471,-32674.725,-48716.909999999996,-84479.22,-49858.155,-14484.555,-19734.795,5249.835,-63859.68,0.6920266632015504,-0.7173626115745176,-9.789382742960123,-14.447232628331786,-6.647075517074305,-2.7680911678082567,-2.920781801572642,-1.2770007248132111,-0.28234791,-0.8886696000000001,0.39977925000000003,-4.18124,-3.90656,6.027699999999999,72.0
1774822142.4758327,0.004130840301513672,2026-03-29T22:09:02.475,2026-03-29T18:09:02.475,-32671.664999999997,-48710.07,-84479.04,-49860.54,-14487.84,-19742.445,5232.51,-63859.32,-0.8609000938213419,-2.6690406481250397,-9.246016767318348,-13.536580997466517,-5.680781641460487,-3.922982729208433,-0.45341571441771805,-1.3416870183059795,-0.287047605,-0.8870826900000001,0.3967275,-0.82404,-4.3338399999999995,4.31858,72.0
1774822142.4758432,1.049041748046875e-05,2026-03-29T22:09:02.475,2026-03-29T18:09:02.475,-32662.844999999998,-48698.235,-84468.78,-49869.945,-14491.8,-19741.86,5222.429999999999,-63856.305,-1.7073728065679372,-3.0497620466504114,-3.972499780427282,-6.485946072238261,-2.5212351092925043,-3.6182401251129424,1.882624663736822,-0.43024868890010093,-0.287047605,-0.8870826900000001,0.3967275,-0.82404,-4.3338399999999995,4.31858,72.0
1774822142.4832635,0.00742030143737793,2026-03-29T22:09:02.483,2026-03-29T18:09:02.483,-32668.605,-48697.74,-84460.815,-49860.27,-14483.25,-19731.285,5227.785,-63864.54,-1.493375709798693,-1.7166858750921188,3.3762658463739212,3.6343059263849917,1.5665208615089434,-1.8620616866566313,3.231752533963247,0.9267275804531264,-0.287047605,-0.8870826900000001,0.3967275,-0.82404,-4.3338399999999995,4.31858,72.0
1774822142.4832933,2.9802322387695312e-05,2026-03-29T22:09:02.483,2026-03-29T18:09:02.483,-32663.745,-48697.92,-84458.295,-49848.119999999995,-14474.744999999999,-19730.969999999998,5234.8949999999995,-63852.704999999994,-0.47721173708028314,0.5348376597507175,9.065608379768527,12.314150427843968,4.999114613488446,0.7624881162508576,3.2463754340142033,1.8795941646917862,-0.287047605,-0.8870826900000001,0.3967275,-0.82404,-4.3338399999999995,4.31858,72.0
1774822142.4833186,2.5272369384765625e-05,2026-03-29T22:09:02.483,2026-03-29T18:09:02.483,-32652.27,-48686.895,-84445.965,-49842.63,-14475.015,-19735.515,5250.96,-63840.329999999994,0.6620642809807662,2.4219258093020426,10.171724554673998,15.61689665284731,6.4671017671481055,3.2635820640244195,2.1182352605755974,1.7573042919512123,-0.287047605,-0.8870826900000001,0.3967275,-0.82404,-4.3338399999999995,4.31858,72.0
1774822142.483329,1.049041748046875e-05,2026-03-29T22:09:02.483,2026-03-29T18:09:02.483,-32661.09,-48691.979999999996,-84447.98999999999,-49846.365,-14478.93,-19737.09,5275.755,-63847.17,1.2333395736901562,2.8822424880457342,6.078111737958652,11.962812435052301,5.413032299363301,4.600726405464794,0.39858549160558043,0.48481274954426895,-0.287047605,-0.8870826900000001,0.3967275,-0.82404,-4.3338399999999995,4.31858,72.0
1774822142.4877272,0.0043981075286865234,2026-03-29T22:09:02.487,2026-03-29T18:09:02.487,-32676.074999999997,-48706.244999999995,-84469.995,-49850.82,-14478.84,-19728.495,5261.625,-63863.009999999995,0.9264683544377798,1.6564719461109103,-1.1861187679118739,2.8770607875184875,2.2339030102589206,4.116958947526077,-1.266709279080718,-1.3235297429176966,-0.287047605,-0.8870826900000001,0.3967275,-0.82404,-4.3338399999999995,4.31858,72.0
1774822142.4877577,3.0517578125e-05,2026-03-29T22:09:02.487,2026-03-29T18:09:02.487,-32680.844999999998,-48717.63,-84499.73999999999,-49859.325,-14480.369999999999,-19725.885,5215.545,-63867.375,-0.02558605177873586,-0.568767442433911,-7.949775596668123,-7.648930866632045,-1.859960994022993,1.8643271675603064,-2.361378427043607,-2.664371758392486,-0.287047605,-0.8870826900000001,0.3967275,-0.82404,-4.3338399999999995,4.31858,72.0
1774822142.4925144,0.0047566890716552734,2026-03-29T22:09:02.492,2026-03-29T18:09:02.492,-32668.515,-48705.93,-84481.605,-49855.32,-14473.26,-19721.925,5218.11,-63854.325,-0.9980525751326633,-2.5351413337047712,-10.749422800376179,-14.914959226613652,-5.284797108301221,-1.3396843911906424,-2.61599657463515,-2.690849085663539,-0.287047605,-0.8870826900000001,0.3967275,-0.82404,-4.3338399999999995,4.31858,72.0
1774822142.49255,3.552436828613281e-05,2026-03-29T22:09:02.492,2026-03-29T18:09:02.492,-32666.265,-48702.33,-84466.485,-49861.755,-14472.9,-19723.184999999998,5242.815,-63848.384999999995,-1.3477895005037446,-3.103504460970339,-8.095158150157888,-15.614090885552907,-6.675156024868535,-4.189253999413921,-2.0232518903707906,-1.2104473687874124,-0.287047605,-0.8870826900000001,0.3967275,-0.82404,-4.3338399999999995,4.31858,72.0
1774822142.497783,0.005233049392700195,2026-03-29T22:09:02.497,2026-03-29T18:09:02.497,-32675.579999999998,-48708.945,-84455.86499999999,-49863.869999999995,-14477.58,-19728.899999999998,5262.345,-63852.93,-0.7965736711807408,-1.889222066621511,-1.2546355551484725,-9.338967074982868,-5.419183212795554,-5.41908087707058,-0.7958623527558553,1.1457422941971982,-0.28674243,-0.882138855,0.40002339,1.5412599999999999,-3.1283,1.3734,72.0
1774822142.497808,2.5033950805664062e-05,2026-03-29T22:09:02.497,2026-03-29T18:09:02.497,-32675.579999999998,-48709.755,-84452.355,-49862.159999999996,-14483.699999999999,-19733.985,5258.565,-63853.11,0.391903051074299,0.5040545174683723,6.354070208227295,1.193900025248125,-1.9330166976086318,-4.373050011584803,0.6941734056329911,3.1969971874165393,-0.28674243,-0.882138855,0.40002339,1.5412599999999999,-3.1283,1.3734,72.0
1774822142.4978316,2.3603439331054688e-05,2026-03-29T22:09:02.497,2026-03-29T18:09:02.497,-32668.245,-48703.634999999995,-84445.69499999999,-49842.09,-14479.425,-19732.14,5248.9349999999995,-63847.485,1.5434038033051836,2.7863504069758123,10.869178998751392,11.3215894775964,2.451403671374584,-1.3540700560399774,1.988522311503689,3.8086463601455094,-0.28674243,-0.882138855,0.40002339,1.5412599999999999,-3.1283,1.3734,72.0
1774822142.4978416,1.0013580322265625e-05,2026-03-29T22:09:02.497,2026-03-29T18:09:02.497,-32663.34,-48696.299999999996,-84432.95999999999,-49830.03,-14472.404999999999,-19727.73,5240.7,-63840.284999999996,1.9451471014692487,3.667083945056965,9.939345956740052,16.50435028730782,5.973207050571643,2.431270883114843,2.6444239865172663,2.5070142365838137,-0.28674243,-0.882138855,0.40002339,1.5412599999999999,-3.1283,1.3734,72.0
1774822142.505262,0.00742030143737793,2026-03-29T22:09:02.505,2026-03-29T18:09:02.505,-32664.059999999998,-48698.369999999995,-84441.465,-49839.975,-14476.14,-19731.42,5239.035,-63837.72,1.2567573073409204,2.5633562303977473,3.9381968091420685,14.367750494082658,7.139841761019599,5.34816497160997,2.3719434997517035,-0.21528070819337605,-0.28674243,-0.882138855,0.40002339,1.5412599999999999,-3.1283,1.3734,72.0
1774822142.5052898,2.7894973754882812e-05,2026-03-29T22:09:02.505,2026-03-29T18:09:02.505,-32660.864999999998,-48698.055,-84451.36499999999,-49845.869999999995,-14477.22,-19731.329999999998,5251.95,-63836.595,-0.2673411619323952,-0.05044477286063184,-4.184530359182551,5.796205739043944,5.364645851847464,6.046010897540583,1.1731716085813064,-3.0846187162877485,-0.28674243,-0.882138855,0.40002339,1.5412599999999999,-3.1283,1.3734,72.0
1774822142.5074334,0.0021436214447021484,2026-03-29T22:09:02.507,2026-03-29T18:09:02.507,-32661.809999999998,-48694.725,-84444.56999999999,-49835.97,-14467.095,-19722.96,5252.3099999999995,-63841.905,-1.8745921298615775,-2.85047189332015,-10.356617048042374,-5.42862171776849,1.2698628545336743,4.094522075831446,-0.5881527210738984,-4.652876649729996,-0.28674243,-0.882138855,0.40002339,1.5412599999999999,-3.1283,1.3734,72.0
1774822142.5074525,1.9073486328125e-05,2026-03-29T22:09:02.507,2026-03-29T18:09:02.507,-32659.92,-48699.63,-84452.76,-49845.33,-14477.625,-19734.84,5239.755,-63836.595,-2.6912582597716854,-4.335574561934799,-11.423451140866073,-14.300302581947228,-3.5048199748937643,0.23907188247146655,-2.257796799812772,-4.031379647111248,-0.28674243,-0.882138855,0.40002339,1.5412599999999999,-3.1283,1.3734,72.0
1774822142.5128405,0.005388021469116211,2026-03-29T22:09:02.512,2026-03-29T18:09:02.512,-32657.715,-48700.439999999995,-84455.81999999999,-49849.155,-14483.385,-19741.725,5233.635,-63833.805,-2.188494712399672,-3.621609967708957,-6.752544306546102,-16.830939591668464,-6.94739589624191,-3.8724766357354476,-3.1197694971071237,-1.3787160866789578,-0.28674243,-0.882138855,0.40002339,1.5412599999999999,-3.1283,1.3734,72.0
1774822142.5128562,1.5735626220703125e-05,2026-03-29T22:09:02.512,2026-03-29T18:09:02.512,-32674.05,-48711.284999999996,-84459.42,-49833.27,-14471.1,-19731.735,5237.01,-63852.57,-0.49196902737826764,-0.9413565820729797,1.4109411278935455,-11.856280850305051,-7.525519763709833,-6.398519027441408,-2.7116848585474114,2.1200429469873705,-0.28674243,-0.882138855,0.40002339,1.5412599999999999,-3.1283,1.3734,72.0
1774822142.5153832,0.002526998519897461,2026-03-29T22:09:02.515,2026-03-29T18:09:02.515,-32686.829999999998,-48717.99,-84462.705,-49814.325,-14458.005,-19720.665,5246.235,-63865.755,1.636594256450059,2.4237677027025692,9.030941668453288,-1.579810312111388,-4.882664341426627,-6.141406243883601,-1.0840534097394297,4.794651311004407,-0.28137135,-0.875669145,0.401060985,-4.18124,-2.8383599999999998,0.85456,72.0
1774822142.5153913,8.106231689453125e-06,2026-03-29T22:09:02.515,2026-03-29T18:09:02.515,-32663.835,-48699.81,-84453.12,-49823.1,-14467.59,-19725.39,5244.165,-63835.74,3.151601379719014,4.764387944870823,12.279907082955537,9.40310841244154,-0.055167943188198926,-3.1271110849360793,1.144699822962631,5.298527471467876,-0.28137135,-0.875669145,0.401060985,-4.18124,-2.8383599999999998,0.85456,72.0
1774822142.5210145,0.0056231021881103516,2026-03-29T22:09:02.521,2026-03-29T18:09:02.521,-32663.295,-48691.755,-84447.94499999999,-49822.74,-14461.695,-19721.204999999998,5245.11,-63843.795,3.2418285476955524,4.811949591570757,9.458172202301547,16.170326253476674,4.920163326557839,1.3589959205374298,3.0061729514847317,3.2881519377170085,-0.28137135,-0.875669145,0.401060985,-4.18124,-2.8383599999999998,0.85456,72.0
1774822142.5210435,2.9087066650390625e-05,2026-03-29T22:09:02.521,2026-03-29T18:09:02.521,-32671.89,-48699.18,-84449.43,-49810.814999999995,-14443.38,-19708.155,5249.25,-63853.829999999994,1.7557612871713613,2.4136552164394884,1.871587622962491,15.69556016129939,7.868025555738687,5.321714869830933,3.6068232018396045,-0.370694134559326,-0.28137135,-0.875669145,0.401060985,-4.18124,-2.8383599999999998,0.85456,72.0
1774822142.5252385,0.004194974899291992,2026-03-29T22:09:02.525,2026-03-29T18:09:02.525,-32677.739999999998,-48715.47,-84476.47499999999,-49820.31,-14440.32,-19700.055,5257.035,-63857.34,-0.6858392717537012,-1.3409201793099692,-6.781472714855009,8.21744483157981,7.4403753516938105,6.955682958062958,2.5716141549521034,-3.9858621704465995,-0.28137135,-0.875669145,0.401060985,-4.18124,-2.8383599999999998,0.85456,72.0
1774822142.52525,1.1444091796875e-05,2026-03-29T22:09:02.525,2026-03-29T18:09:02.525,-32664.555,-48708.854999999996,-84475.62,-49834.53,-14455.439999999999,-19707.84,5265.045,-63842.985,-2.9583665183012178,-4.62409536584412,-12.221791951291996,-2.8722702209450017,3.7498652250741573,5.48379960902575,0.2803411445934952,-5.836443729782112,-0.28137135,-0.875669145,0.401060985,-4.18124,-2.8383599999999998,0.85456,72.0
1774822142.5280066,0.0027565956115722656,2026-03-29T22:09:02.528,2026-03-29T18:09:02.528,-32675.265,-48709.35,-84465.675,-49841.865,-14466.689999999999,-19723.23,5225.264999999999,-63853.2,-3.961841322632115,-5.767387715551027,-11.70796157007863,-12.573340591848483,-1.634903795539349,1.5376228136941534,-2.250075020295391,-5.002071300013002,-0.28137135,-0.875669145,0.401060985,-4.18124,-2.8383599999999998,0.85456,72.0
1774822142.5280282,2.1696090698242188e-05,2026-03-29T22:09:02.528,2026-03-29T18:09:02.528,-32671.44,-48701.34,-84460.05,-49869.045,-14482.17,-19732.995,5215.455,-63845.369999999995,-3.156275613779211,-4.107939625232721,-5.411491898468869,-16.549121552167676,-6.356380153437689,-3.111327687429674,-3.8154635214297477,-1.8195717713973794,-0.28137135,-0.875669145,0.401060985,-4.18124,-2.8383599999999998,0.85456,72.0
1774822142.5319169,0.0038886070251464844,2026-03-29T22:09:02.531,2026-03-29T18:09:02.531,-32650.695,-48690.09,-84446.055,-49888.665,-14498.46,-19744.649999999998,5243.13,-63820.17,-0.8420318720121874,-0.35522888620440574,3.6390965767157093,-13.085965192834372,-8.313919593422735,-6.3566325030058115,-3.6082292774809255,2.2593976381186462,-0.28137135,-0.875669145,0.401060985,-4.18124,-2.8383599999999998,0.85456,72.0
1774822142.5319364,1.9550323486328125e-05,2026-03-29T22:09:02.531,2026-03-29T18:09:02.531,-32641.829999999998,-48697.965,-84456.09,-49897.619999999995,-14517.449999999999,-19758.42,5235.75,-63803.88,1.956719575224083,3.7186095613690293,11.026738796205512,-3.844531528271739,-6.617764343862964,-6.728127728818686,-1.6474348580993796,5.345876714631481,-0.28137135,-0.875669145,0.401060985,-4.18124,-2.8383599999999998,0.85456,72.0
1774822142.5396736,0.007737159729003906,2026-03-29T22:09:02.539,2026-03-29T18:09:02.539,-32649.75,-48681.27,-84412.215,-49841.595,-14492.654999999999,-19740.42,5214.195,-63819.765,3.9569104580933385,6.126191151183508,13.109245384645423,6.933497136770211,-2.0082762250640025,-4.073601702784111,1.1782987882407379,6.002783188523356,-0.27685476,-0.8760963900000001,0.4040517,-4.303319999999999,-0.9308599999999999,3.3571999999999997,72.0
1774822142.5397005,2.6941299438476562e-05,2026-03-29T22:09:02.539,2026-03-29T18:09:02.539,-32652.135,-48680.729999999996,-84411.98999999999,-49786.244999999995,-14461.38,-19731.69,5216.715,-63831.015,4.213168891838207,5.639996281421901,8.814260555108408,14.386284365537774,3.4642790557804086,0.3725236413489999,3.506300426551433,3.9204329670378053,-0.27685476,-0.8760963900000001,0.4040517,-4.303319999999999,-0.9308599999999999,3.3571999999999997,72.0
1774822142.5397215,2.09808349609375e-05,2026-03-29T22:09:02.539,2026-03-29T18:09:02.539,-32657.805,-48720.104999999996,-84502.845,-49796.009999999995,-14457.914999999999,-19731.465,5233.41,-63834.479999999996,2.564931242751918,2.414408022100568,0.18113995038829558,15.247737720291363,7.3626722207952175,4.5680552521192475,4.161013991434652,0.057861355494489494,-0.27685476,-0.8760963900000001,0.4040517,-4.303319999999999,-0.9308599999999999,3.3571999999999997,72.0
1774822142.539728,6.4373016357421875e-06,2026-03-29T22:09:02.539,2026-03-29T18:09:02.539,-32677.695,-48733.424999999996,-84519.54,-49815.225,-14465.07,-19723.005,5257.485,-63857.97,-0.27737114160116333,-2.05881175984156,-8.619932227201039,9.297664004620543,7.9675410291032245,6.615922316869557,2.757933814136717,-3.8122994776167545,-0.27685476,-0.8760963900000001,0.4040517,-4.303319999999999,-0.9308599999999999,3.3571999999999997,72.0
1774822142.5436568,0.0039288997650146484,2026-03-29T22:09:02.543,2026-03-29T18:09:02.543,-32676.074999999997,-48726.45,-84480.03,-49839.84,-14474.519999999999,-19718.19,5271.525,-63851.085,-3.048848747680294,-5.650598737223332,-13.31385073531893,-0.6074046050202732,5.053670996589631,5.639651035216238,-0.06397402893451735,-5.933089425078444,-0.27685476,-0.8760963900000001,0.4040517,-4.303319999999999,-0.9308599999999999,3.3571999999999997,72.0
1774822142.5436797,2.288818359375e-05,2026-03-29T22:09:02.543,2026-03-29T18:09:02.543,-32684.445,-48714.479999999996,-84448.395,-49879.665,-14479.289999999999,-19715.445,5263.335,-63866.07,-4.503094283426241,-6.616841687576389,-11.60186635980678,-9.909527339670493,-0.02179873499783502,2.1690087452881444,-2.921965241410191,-5.371235266428875,-0.27685476,-0.8760963900000001,0.4040517,-4.303319999999999,-0.9308599999999999,3.3571999999999997,72.0
1774822142.5494986,0.005818843841552734,2026-03-29T22:09:02.549,2026-03-29T18:09:02.549,-32689.98,-48696.345,-84420.09,-49877.955,-14465.34,-19711.305,5248.304999999999,-63872.729999999996,-3.9773258495332557,-4.448135754411402,-4.282711661105293,-14.46699397664751,-4.956911611168903,-2.1393783683552017,-4.364104240360509,-2.4274179781355514,-0.27685476,-0.8760963900000001,0.4040517,-4.303319999999999,-0.9308599999999999,3.3571999999999997,72.0
1774822142.5495236,2.5033950805664062e-05,2026-03-29T22:09:02.549,2026-03-29T18:09:02.549,-32676.975,-48671.505,-84392.685,-49844.61,-14465.475,-19714.86,5246.325,-63859.68,-1.6916588028476585,-0.13211182103757235,5.13118297666148,-12.420934099817089,-7.566008127570418,-5.302040180656056,-3.6101454738399585,1.5310603691316111,-0.27685476,-0.8760963900000001,0.4040517,-4.303319999999999,-0.9308599999999999,3.3571999999999997,72.0
1774822142.5527043,0.0031807422637939453,2026-03-29T22:09:02.552,2026-03-29T18:09:02.552,-32653.844999999998,-48647.7,-84359.47499999999,-49804.695,-14465.97,-19725.255,5243.264999999999,-63846.494999999995,1.350877256730751,4.303967236625054,12.112604560490938,-4.958454760978382,-6.766947554133984,-5.938834615816886,-0.9788863456546087,4.71996006675177,-0.27685476,-0.8760963900000001,0.4040517,-4.303319999999999,-0.9308599999999999,3.3571999999999997,72.0
1774822142.5527196,1.52587890625e-05,2026-03-29T22:09:02.552,2026-03-29T18:09:02.552,-32650.649999999998,-48650.805,-84356.19,-49790.43,-14458.365,-19722.555,5244.705,-63840.015,3.8138932900804954,6.754620718770093,13.305643384840764,4.344371155542459,-3.0389083151074945,-3.8891311062480938,2.2334114721613254,5.754571292653284,-0.27685476,-0.8760963900000001,0.4040517,-4.303319999999999,-0.9308599999999999,3.3571999999999997,72.0
1774822142.5571704,0.004450798034667969,2026-03-29T22:09:02.557,2026-03-29T18:09:02.557,-32659.379999999997,-48667.814999999995,-84383.64,-49809.104999999996,-14462.73,-19724.13,5246.01,-63846.494999999995,4.620723529971666,6.041523805821758,8.139227543747381,11.246975035609818,1.8479107519731643,-0.23189245513135268,4.384623538982636,4.253522137428524,-0.276549585,-0.879697455,0.404356875,3.7386999999999997,1.2207999999999999,-0.2289,72.0
1774822142.5571916,2.1219253540039062e-05,2026-03-29T22:09:02.557,2026-03-29T18:09:02.557,-32658.12,-48671.235,-84394.75499999999,-49811.354999999996,-14463.99,-19725.075,5251.86,-63846.27,3.4252503376285004,2.480449418119522,-0.9077704332671315,12.799530363217034,5.683598051080422,3.2778212469099373,4.322665032575505,0.96571554878909,-0.276549585,-0.879697455,0.404356875,3.7386999999999997,1.2207999999999999,-0.2289,72.0
1774822142.559645,0.002453327178955078,2026-03-29T22:09:02.559,2026-03-29T18:09:02.559,-32655.87,-48670.02,-84397.05,-49811.58,-14462.144999999999,-19722.195,5259.33,-63843.84,0.7551344775656521,-2.262635806734621,-9.508839417389332,8.616657335226195,6.836247618118339,5.063231324685438,2.000635380225538,-2.612660934743746,-0.276549585,-0.879697455,0.404356875,3.7386999999999997,1.2207999999999999,-0.2289,72.0
1774822142.559658,1.3113021850585938e-05,2026-03-29T22:09:02.559,2026-03-29T18:09:02.559,-32652.315,-48665.924999999996,-84390.705,-49806.854999999996,-14461.56,-19722.78,5246.82,-63840.915,-2.2284756976988316,-5.958293694459779,-13.570444708183786,0.9125795578453512,4.958378969455546,4.449701092214342,-1.4568020056296531,-4.93117064944765,-0.276549585,-0.879697455,0.404356875,3.7386999999999997,1.2207999999999999,-0.2289,72.0
1774822142.5648413,0.005183219909667969,2026-03-29T22:09:02.564,2026-03-29T18:09:02.564,-32652.36,-48672.0,-84399.56999999999,-49803.345,-14464.394999999999,-19729.89,5239.485,-63837.99,-4.24162843218375,-6.868222574542089,-11.18515140215093,-6.656638139538576,1.0698305009914477,1.9182581915837955,-4.291907772776117,-5.0613807094628,-0.276549585,-0.879697455,0.404356875,3.7386999999999997,1.2207999999999999,-0.2289,72.0
1774822142.5648663,2.5033950805664062e-05,2026-03-29T22:09:02.564,2026-03-29T18:09:02.564,-32652.629999999997,-48681.99,-84414.19499999999,-49804.965,-14467.14,-19731.645,5233.724999999999,-63833.174999999996,-4.4315170732628655,-4.566190432516878,-3.5233353821010636,-10.743511952199498,-2.988282498882863,-1.2063652213735312,-5.001355577226567,-3.0594429844190207,-0.276549585,-0.879697455,0.404356875,3.7386999999999997,1.2207999999999999,-0.2289,72.0
1774822142.569416,0.004549741744995117,2026-03-29T22:09:02.569,2026-03-29T18:09:02.569,-32652.765,-48698.909999999996,-84438.495,-49824.27,-14479.064999999999,-19735.38,5231.61,-63824.04,-2.7346819834415395,-0.13669368237889326,5.751183592111426,-9.80674975732383,-5.438716629861798,-3.447666120838889,-3.125883626883099,0.12077634063953638,-0.276549585,-0.879697455,0.404356875,3.7386999999999997,1.2207999999999999,-0.2289,72.0
1774822142.5694408,2.47955322265625e-05,2026-03-29T22:09:02.569,2026-03-29T18:09:02.569,-32646.96,-48702.195,-84446.73,-49850.865,-14493.33,-19741.454999999998,5247.54,-63812.34,0.1086334600978353,4.340234607481376,12.245414764277228,-4.677297896621144,-5.3603379055996,-3.888190089831624,0.47071160715878696,3.0915434054322697,-0.276549585,-0.879697455,0.404356875,3.7386999999999997,1.2207999999999999,-0.2289,72.0
1774822142.571958,0.002517223358154297,2026-03-29T22:09:02.571,2026-03-29T18:09:02.571,-32638.949999999997,-48680.505,-84427.605,-49851.854999999996,-14486.58,-19737.405,5243.085,-63813.375,2.881564874633445,6.7711637191695875,12.92635881092004,2.0071668522256787,-3.0271579100328134,-2.5509596285476586,3.9965858795407625,4.642172681718507,-0.276549585,-0.879697455,0.404356875,3.7386999999999997,1.2207999999999999,-0.2289,72.0
1774822142.5719776,1.9550323486328125e-05,2026-03-29T22:09:02.571,2026-03-29T18:09:02.571,-32675.265,-48670.2,-84398.08499999999,-49825.17,-14463.404999999999,-19715.94,5250.51,-63873.18,4.412720072913471,6.032369937212387,7.537962820825284,7.15403709031016,0.3269542029036173,-0.28944588515599534,5.621299781941229,4.225617459849471,-0.276549585,-0.879697455,0.404356875,3.7386999999999997,1.2207999999999999,-0.2289,72.0
1774822142.5785677,0.006590127944946289,2026-03-29T22:09:02.578,2026-03-29T18:09:02.578,-32673.824999999997,-48662.189999999995,-84380.58,-49797.765,-14449.5,-19708.245,5248.485,-63877.454999999994,4.069254031198335,2.4908365817551927,-1.3159649262319686,8.66224259862956,3.1584548828063364,1.7189208477500344,4.4184534949980065,2.1295446910831837,-0.27807546,-0.881284365,0.405699645,5.82932,1.31236,-2.85362,72.0
1774822142.5785863,1.8596649169921875e-05,2026-03-29T22:09:02.578,2026-03-29T18:09:02.578,-32662.53,-48666.195,-84388.68,-49792.409999999996,-14442.345,-19698.434999999998,5238.179999999999,-63856.17,2.0151229964209016,-2.178529792970818,-9.440608517985117,6.27908545738728,4.3370380928653045,2.5874086190924905,0.8778336413597094,-0.7067374670658432,-0.27807546,-0.881284365,0.405699645,5.82932,1.31236,-2.85362,72.0
1774822142.5808425,0.002256155014038086,2026-03-29T22:09:02.580,2026-03-29T18:09:02.580,-32664.015,-48675.33,-84404.205,-49804.604999999996,-14452.785,-19705.274999999998,5230.08,-63853.155,-0.86849429027838,-5.787885430461211,-13.047898664788752,1.51800375443811,3.5964675937022066,2.1210762011547026,-3.2909987191465446,-3.118181436105459,-0.27807546,-0.881284365,0.405699645,5.82932,1.31236,-2.85362,72.0
1774822142.5808568,1.430511474609375e-05,2026-03-29T22:09:02.580,2026-03-29T18:09:02.580,-32669.235,-48684.509999999995,-84411.495,-49813.064999999995,-14462.775,-19716.39,5227.245,-63853.29,-3.361349094321925,-6.665053934171664,-10.52738300731573,-3.23454236426042,1.5333653903574576,0.8179603228474622,-5.986767505725951,-4.187264921339877,-0.27807546,-0.881284365,0.405699645,5.82932,1.31236,-2.85362,72.0
1774822142.583418,0.0025610923767089844,2026-03-29T22:09:02.583,2026-03-29T18:09:02.583,-32674.77,-48693.375,-84421.89,-49816.619999999995,-14465.97,-19718.415,5249.835,-63852.75,-4.418979049485997,-4.430966644476143,-3.1605782339417425,-5.917838546093293,-0.7890746939575872,-0.4915832713988265,-5.7733018824327464,-3.5758202523940517,-0.27807546,-0.881284365,0.405699645,5.82932,1.31236,-2.85362,72.0
1774822142.5834286,1.0728836059570312e-05,2026-03-29T22:09:02.583,2026-03-29T18:09:02.583,-32673.375,-48692.61,-84418.29,-49804.155,-14457.914999999999,-19712.43,5240.61,-63851.985,-3.6086138455671897,-0.1637581895798679,5.535419792738071,-5.697373998502099,-2.390950573456729,-1.1394259886669695,-2.63337910780101,-1.606416698471515,-0.27807546,-0.881284365,0.405699645,5.82932,1.31236,-2.85362,72.0
1774822142.5876193,0.004190683364868164,2026-03-29T22:09:02.587,2026-03-29T18:09:02.587,-32672.745,-48692.43,-84418.605,-49799.564999999995,-14451.57,-19706.04,5239.304999999999,-63852.615,-1.2857912221848868,4.121275767306481,11.497202146118017,-3.1696523767213467,-2.7934659721380477,-0.9648287623807091,1.9728437884151873,0.9074273061421257,-0.27807546,-0.881284365,0.405699645,5.82932,1.31236,-2.85362,72.0
1774822142.5876539,3.457069396972656e-05,2026-03-29T22:09:02.587,2026-03-29T18:09:02.587,-32668.11,-48694.095,-84427.83,-49821.795,-14467.769999999999,-19715.985,5251.41,-63845.729999999996,1.5599139473782249,6.425035994871284,12.021681467018244,0.14190547330714876,-2.1239999826159037,-0.329957948273028,5.794474512820663,2.9928727283767436,-0.27807546,-0.881284365,0.405699645,5.82932,1.31236,-2.85362,72.0
1774822142.592141,0.004487037658691406,2026-03-29T22:09:02.592,2026-03-29T18:09:02.592,-32655.239999999998,-48689.505,-84424.635,-49840.47,-14485.68,-19731.015,5247.63,-63830.61,3.7242362150968447,5.699835189579962,6.992297272181318,2.660011889168366,-0.9122418586910777,0.17650585845813216,6.8950832558497535,3.8788669162076777,-0.27807546,-0.881284365,0.405699645,5.82932,1.31236,-2.85362,72.0
1774822142.5921607,1.9788742065429688e-05,2026-03-29T22:09:02.592,2026-03-29T18:09:02.592,-32639.805,-48685.77,-84431.205,-49863.689999999995,-14504.58,-19748.475,5228.595,-63812.924999999996,4.296755450482175,2.3282171426509013,-1.1313406747531034,3.510268887855929,0.26002102190730125,0.15067388174677077,4.63076881191063,3.2623679385948376,-0.27807546,-0.881284365,0.405699645,5.82932,1.31236,-2.85362,72.0
1774822142.596164,0.004003286361694336,2026-03-29T22:09:02.596,2026-03-29T18:09:02.596,-32639.355,-48679.38,-84420.495,-49848.255,-14495.535,-19748.385,5206.005,-63821.655,3.0451317316522197,-2.074197005469704,-8.522893260424382,2.7955244051127996,1.0420808194206734,-0.35721052710543894,0.00734268894838524,1.3998511285189295,-0.27868581,-0.877256055,0.403624455,2.22796,-0.27468,-3.3419399999999997,72.0
1774822142.5961947,3.075599670410156e-05,2026-03-29T22:09:02.596,2026-03-29T18:09:02.596,-32644.17,-48661.74,-84392.325,-49821.119999999995,-14477.49,-19735.739999999998,5210.775,-63838.53,0.5125752182121457,-5.431878117111668,-11.800673343509743,1.3195804326538882,1.3905563712715752,-0.8809071164066873,-4.775593111226529,-0.995515377901065,-0.27868581,-0.877256055,0.403624455,2.22796,-0.27468,-3.3419399999999997,72.0
1774822142.5998008,0.003606081008911133,2026-03-29T22:09:02.599,2026-03-29T18:09:02.599,-32650.245,-48662.055,-84385.125,-49809.555,-14476.635,-19738.755,5213.34,-63847.619999999995,-2.2141919450649277,-6.189152512891315,-9.579852589597452,-0.0051992691276790065,1.4424503583859822,-0.8607523447437085,-7.382789363172282,-3.01217834782042,-0.27868581,-0.877256055,0.403624455,2.22796,-0.27468,-3.3419399999999997,72.0
1774822142.5998278,2.6941299438476562e-05,2026-03-29T22:09:02.599,2026-03-29T18:09:02.599,-32662.844999999998,-48678.57,-84402.18,-49823.369999999995,-14493.33,-19755.225,5183.01,-63857.295,-3.969723840497848,-4.0338224921762995,-3.0511492013357033,-0.68798264446207,1.3127430454247344,-0.0514608311887161,-6.4892300361957185,-3.8698205518607027,-0.27868581,-0.877256055,0.403624455,2.22796,-0.27468,-3.3419399999999997,72.0
1774822142.6059856,0.006157875061035156,2026-03-29T22:09:02.605,2026-03-29T18:09:02.605,-32665.905,-48661.65,-84377.565,-49793.13,-14452.064999999999,-19709.505,5261.625,-63861.884999999995,-4.009968124576674,-0.027054260941959642,4.6522003982267135,-0.8301717134865444,0.9762201059534781,1.2444217439628058,-2.4483903722046,-3.211942522294952,-0.27868581,-0.877256055,0.403624455,2.22796,-0.27468,-3.3419399999999997,72.0
1774822142.6060145,2.8848648071289062e-05,2026-03-29T22:09:02.606,2026-03-29T18:09:02.606,-32685.344999999998,-48681.09,-84398.04,-49806.225,-14458.949999999999,-19711.17,5288.3099999999995,-63872.595,-2.3324763988798543,3.915123544001164,9.965261443818825,-0.8837420172293765,0.3193595115268617,2.283007881225618,2.8527977676128033,-1.2573717063142253,-0.27868581,-0.877256055,0.403624455,2.22796,-0.27468,-3.3419399999999997,72.0
