unix_time_s,dt_s,UTC,LOCAL,EMG1_Raw,EMG2_Raw,EMG3_Raw,EMG4_Raw,EMG5_Raw,EMG6_Raw,EMG7_Raw,EMG8_Raw,EMG1_Filtered,EMG2_Filtered,EMG3_Filtered,EMG4_Filtered,EMG5_Filtered,EMG6_Filtered,EMG7_Filtered,EMG8_Filtered,Accel1_Raw,Accel2_Raw,Accel3_Raw,Gyro1_Raw,Gyro2_Raw,Gyro3_Raw,Battery
1774822720.561758,,2026-03-29T22:18:40.561,2026-03-29T18:18:40.561,-34038.63,-46265.715,-85441.23,-50465.97,-12660.885,-17895.645,6605.28,-63804.06,0.16915310053723787,1.5950378691182312,2.4884270384369835,0.5376601250321443,0.04682744957458017,0.5017391877599798,-0.00872895123483658,0.07897864871356955,-0.134460105,-0.96825924,0.218444265,-13.53562,10.31576,-5.63094,70.0
1774822720.5617745,1.6450881958007812e-05,2026-03-29T22:18:40.561,2026-03-29T18:18:40.561,-34048.53,-46276.155,-85454.09999999999,-50468.67,-12664.08,-17901.495,6600.195,-63813.78,0.11074163488960029,7.913472160813371,12.870888451310295,0.6974876216592093,0.7864156483058673,2.8190493511998085,3.0595454190819487,0.2196109096066719,-0.134460105,-0.96825924,0.218444265,-13.53562,10.31576,-5.63094,70.0
1774822720.5654764,0.003701925277709961,2026-03-29T22:18:40.565,2026-03-29T18:18:40.565,-34047.27,-46276.064999999995,-85453.965,-50461.335,-12656.43,-17896.41,6598.98,-63815.04,0.16216924472980088,10.668072345256892,17.428254982237974,0.8257924649695809,1.2800363038533638,3.796917227367318,4.685558049191349,0.3785557321494194,-0.134460105,-0.96825924,0.218444265,-13.53562,10.31576,-5.63094,70.0
1774822720.5655031,2.6702880859375e-05,2026-03-29T22:18:40.565,2026-03-29T18:18:40.565,-34046.055,-46276.335,-85448.83499999999,-50454.54,-12653.01,-17894.655,6599.745,-63811.305,0.28057696663603815,8.471872629976035,13.825643597076446,0.8447530958878879,1.3018123575051348,2.980550173887971,4.100660036331981,0.49359202316612893,-0.134460105,-0.96825924,0.218444265,-13.53562,10.31576,-5.63094,70.0
1774822720.568268,0.0027649402618408203,2026-03-29T22:18:40.568,2026-03-29T18:18:40.568,-34042.994999999995,-46274.13,-85441.995,-50447.88,-12649.994999999999,-17895.69,6595.38,-63809.685,0.31933892336116415,2.254706827164632,3.5747371192377213,0.6038110375782813,0.794340643685015,0.7739618375410205,1.588826126940135,0.45717851719189107,-0.134460105,-0.96825924,0.218444265,-13.53562,10.31576,-5.63094,70.0
1774822720.568286,1.7881393432617188e-05,2026-03-29T22:18:40.568,2026-03-29T18:18:40.568,-34038.45,-46286.325,-85461.705,-50457.06,-12659.039999999999,-17910.045,6584.085,-63810.0,0.1434280245492866,-5.126073223225157,-8.594160155779571,0.011725577180431438,-0.08309832903070494,-1.7568820120104514,-1.649964126505566,0.19424266957639225,-0.134460105,-0.96825924,0.218444265,-13.53562,10.31576,-5.63094,70.0
1774822720.5727444,0.004458427429199219,2026-03-29T22:18:40.572,2026-03-29T18:18:40.572,-34019.505,-46298.564999999995,-85486.72499999999,-50467.005,-12669.57,-17923.995,6574.679999999999,-63796.095,-0.24742958809829413,-10.207615724848889,-16.928548223420073,-0.8302367602617453,-0.9958203471862123,-3.401944936028454,-4.076386625425217,-0.2562062139382233,-0.134460105,-0.96825924,0.218444265,-13.53562,10.31576,-5.63094,70.0
1774822720.5727675,2.3126602172851562e-05,2026-03-29T22:18:40.572,2026-03-29T18:18:40.572,-34013.205,-46316.564999999995,-85505.805,-50468.174999999996,-12677.49,-17936.73,6569.505,-63782.595,-0.6768187329174586,-10.560921622199894,-17.392725781990414,-1.597523642559407,-1.5597441573672872,-3.393167208495182,-4.549749352411785,-0.7177947297398922,-0.134460105,-0.96825924,0.218444265,-13.53562,10.31576,-5.63094,70.0
1774822720.5887697,0.016002178192138672,2026-03-29T22:18:40.588,2026-03-29T18:18:40.588,-34072.244999999995,-46336.59,-85513.5,-50460.615,-12659.625,-17910.945,6583.005,-63830.204999999994,-0.8722387065073841,-5.964778245230938,-9.63607354551383,-1.863799718281202,-1.5056755574352465,-1.771651610593524,-2.8706387148588384,-0.9437431134055728,-0.134460105,-0.96825924,0.218444265,-13.53562,10.31576,-5.63094,70.0
1774822720.588792,2.2411346435546875e-05,2026-03-29T22:18:40.588,2026-03-29T18:18:40.588,-34120.125,-46310.939999999995,-85482.58499999999,-50441.625,-12641.4,-17888.805,6596.009999999999,-63880.604999999996,-0.6310258149141902,1.4590907152955839,2.776130828639531,-1.3311143528441538,-0.810247268373437,0.6432701770972767,0.13268638143856928,-0.7499248266734034,-0.134460105,-0.96825924,0.218444265,-13.53562,10.31576,-5.63094,70.0
1774822720.5888166,2.4557113647460938e-05,2026-03-29T22:18:40.588,2026-03-29T18:18:40.588,-34074.27,-46290.24,-85476.87,-50475.555,-12676.68,-17919.27,6587.325,-63845.729999999996,0.02683841757285147,8.230805268409725,14.011508200479286,-0.04625787357641547,0.2713915974343674,2.6654890607622135,3.0126826297122773,-0.14174129783341183,-0.13574184,-0.96789303,0.215392515,-13.33724,9.14074,-6.683879999999999,70.0
1774822720.5888228,6.198883056640625e-06,2026-03-29T22:18:40.588,2026-03-29T18:18:40.588,-34041.869999999995,-46274.58,-85445.955,-50477.445,-12661.47,-17902.395,6589.575,-63815.759999999995,0.8212734950036643,11.157853397996016,18.732195872207573,1.5332621340920394,1.2965760116146545,3.328318764558512,4.4041616795569976,0.6460784452253663,-0.13574184,-0.96789303,0.215392515,-13.33724,9.14074,-6.683879999999999,70.0
1774822720.5888298,6.9141387939453125e-06,2026-03-29T22:18:40.588,2026-03-29T18:18:40.588,-34046.235,-46272.78,-85438.89,-50472.0,-12646.439999999999,-17887.364999999998,6602.804999999999,-63815.31,1.3316616699561163,8.856708317978917,14.651924934099474,2.693579648410045,1.8189611035346052,2.3541449358249005,3.6772249071269365,1.2368319133970784,-0.13574184,-0.96789303,0.215392515,-13.33724,9.14074,-6.683879999999999,70.0
1774822720.5888357,5.9604644775390625e-06,2026-03-29T22:18:40.588,2026-03-29T18:18:40.588,-34049.295,-46256.49,-85424.355,-50442.57,-12640.32,-17888.76,6605.19,-63822.149999999994,1.2222962256417826,2.4175065590273626,3.653495086797295,2.791886643466487,1.5874895470992358,0.2761531456067338,1.226660097115411,1.2957644501386434,-0.13574184,-0.96789303,0.215392515,-13.33724,9.14074,-6.683879999999999,70.0
1774822720.588842,6.198883056640625e-06,2026-03-29T22:18:40.588,2026-03-29T18:18:40.588,-34050.555,-46267.155,-85459.14,-50444.145,-12645.945,-17891.505,6596.28,-63827.235,0.45166554423573685,-5.112835540658662,-9.084774131980089,1.6039920168069175,0.6694415225019597,-1.843975128965696,-1.7369739660291454,0.7188376783666536,-0.13574184,-0.96789303,0.215392515,-13.33724,9.14074,-6.683879999999999,70.0
1774822720.5888474,5.4836273193359375e-06,2026-03-29T22:18:40.588,2026-03-29T18:18:40.588,-34053.885,-46272.509999999995,-85460.31,-50442.795,-12642.57,-17887.95,6587.6849999999995,-63834.345,-0.660783407725858,-10.184145563771846,-17.546650771026407,-0.49363231328436497,-0.5640126369382642,-2.9561034725469275,-3.7857594626103306,-0.2797959786385371,-0.13574184,-0.96789303,0.215392515,-13.33724,9.14074,-6.683879999999999,70.0
1774822720.5946927,0.005845308303833008,2026-03-29T22:18:40.594,2026-03-29T18:18:40.594,-34063.695,-46286.415,-85473.98999999999,-50456.34,-12647.025,-17895.42,6586.785,-63839.07,-1.5663075497704686,-10.434453072578721,-17.744371221356246,-2.627022794882084,-1.590415071421629,-2.545444570757649,-3.966064779520702,-1.242563656011029,-0.13574184,-0.96789303,0.215392515,-13.33724,9.14074,-6.683879999999999,70.0
1774822720.5947113,1.8596649169921875e-05,2026-03-29T22:18:40.594,2026-03-29T18:18:40.594,-34049.115,-46274.04,-85450.23,-50469.975,-12653.369999999999,-17895.87,6592.455,-63828.0,-1.7631624089633435,-5.805099721861118,-9.616249708773651,-3.7948239103265626,-1.9627880593779465,-0.8772790958004374,-2.246710570582496,-1.6822249761689638,-0.13574184,-0.96789303,0.215392515,-13.33724,9.14074,-6.683879999999999,70.0
1774822720.5967376,0.0020263195037841797,2026-03-29T22:18:40.596,2026-03-29T18:18:40.596,-34040.25,-46272.24,-85451.4,-50489.505,-12661.47,-17902.26,6600.509999999999,-63820.755,-1.0757195935732573,1.4544203292496054,2.9566471180099505,-3.345082093425462,-1.5093417368587252,1.156546823753436,0.4887875109065744,-1.3325516457878972,-0.13574184,-0.96789303,0.215392515,-13.33724,9.14074,-6.683879999999999,70.0
1774822720.596754,1.6450881958007812e-05,2026-03-29T22:18:40.596,2026-03-29T18:18:40.596,-34038.54,-46268.145,-85432.23,-50465.43,-12656.97,-17899.29,6603.075,-63817.965,0.21935930205003557,7.886130823219421,14.0185304540062,-1.3278812834955545,-0.41421893800297144,2.505584229353698,2.892594543568502,-0.3049859965984081,-0.13574184,-0.96789303,0.215392515,-13.33724,9.14074,-6.683879999999999,70.0
1774822720.605055,0.008301019668579102,2026-03-29T22:18:40.605,2026-03-29T18:18:40.605,-34042.725,-46270.89,-85426.875,-50445.674999999996,-12652.425,-17889.795,6597.945,-63823.409999999996,1.5024537154653284,10.48734950227587,18.386005343908526,1.463832081492893,0.8596586948916367,2.5006525811030147,3.8170577196815354,0.9391964011192926,-0.14025843,-0.965634735,0.213683535,-13.67296,5.7835399999999995,-7.309539999999999,70.0
1774822720.605079,2.384185791015625e-05,2026-03-29T22:18:40.605,2026-03-29T18:18:40.605,-34039.395,-46273.409999999996,-85442.04,-50452.064999999995,-12649.635,-17892.225,6590.429999999999,-63824.04,2.113799052774795,8.130254525517733,14.101098082324292,3.810538882075221,1.7722583536619112,1.188985828401462,2.865297669175025,1.7996077481509625,-0.14025843,-0.965634735,0.213683535,-13.67296,5.7835399999999995,-7.309539999999999,70.0
1774822720.6051004,2.1457672119140625e-05,2026-03-29T22:18:40.605,2026-03-29T18:18:40.605,-34030.619999999995,-46275.57,-85453.83,-50459.67,-12654.99,-17901.09,6591.87,-63814.545,1.698614002456163,2.057335990268155,3.3173903891519396,4.610348595976005,1.941780798163497,-0.7045409360654886,0.5625484487647763,1.8320023088268584,-0.14025843,-0.965634735,0.213683535,-13.67296,5.7835399999999995,-7.309539999999999,70.0
1774822720.60511,9.5367431640625e-06,2026-03-29T22:18:40.605,2026-03-29T18:18:40.605,-34034.445,-46279.439999999995,-85459.14,-50460.479999999996,-12653.055,-17898.75,6591.195,-63820.935,0.4112426678675324,-4.768829795995175,-8.78664125794155,3.4020249326600536,1.3077178418340483,-2.165880454729821,-1.9259923926311866,0.9800477373460271,-0.14025843,-0.965634735,0.213683535,-13.67296,5.7835399999999995,-7.309539999999999,70.0
1774822720.6082819,0.0031719207763671875,2026-03-29T22:18:40.608,2026-03-29T18:18:40.608,-34057.89,-46280.7,-85450.68,-50447.205,-12638.654999999999,-17885.295,6596.865,-63849.24,-1.138484711541954,-9.123331192470188,-16.517412172726416,0.6151378961307704,0.14995972465881427,-2.4258294321104485,-3.3817414378845463,-0.3784401222391423,-0.14025843,-0.965634735,0.213683535,-13.67296,5.7835399999999995,-7.309539999999999,70.0
1774822720.608302,2.0265579223632812e-05,2026-03-29T22:18:40.608,2026-03-29T18:18:40.608,-34053.255,-46278.314999999995,-85450.00499999999,-50446.89,-12640.814999999999,-17888.13,6595.11,-63841.634999999995,-2.1803895029550273,-9.061195146032967,-16.372300566495937,-2.5838973884043948,-1.0407559714134091,-1.3614378486453034,-3.1293126352241214,-1.602059533465275,-0.14025843,-0.965634735,0.213683535,-13.67296,5.7835399999999995,-7.309539999999999,70.0
1774822720.6133833,0.0050811767578125,2026-03-29T22:18:40.613,2026-03-29T18:18:40.613,-34044.39,-46274.58,-85449.825,-50445.854999999996,-12640.05,-17889.39,6591.87,-63835.74,-2.174556073149195,-4.797484584102405,-8.64240185804072,-4.793028525801682,-1.7784311008065246,0.4434981089125917,-1.3509010865692488,-2.094331305475382,-0.14025843,-0.965634735,0.213683535,-13.67296,5.7835399999999995,-7.309539999999999,70.0
1774822720.6133983,1.5020370483398438e-05,2026-03-29T22:18:40.613,2026-03-29T18:18:40.613,-34048.305,-46282.14,-85460.12999999999,-50456.744999999995,-12648.869999999999,-17898.84,6588.09,-63837.99,-1.0954745600972031,1.4792755442354337,2.8298366643850006,-5.000416204491318,-1.7848237887543044,2.009601089923964,1.0282632745184905,-1.5987284085655842,-0.14025843,-0.965634735,0.213683535,-13.67296,5.7835399999999995,-7.309539999999999,70.0
1774822720.6202645,0.0068662166595458984,2026-03-29T22:18:40.620,2026-03-29T18:18:40.620,-34036.695,-46279.395,-85463.73,-50461.29,-12653.414999999999,-17903.16,6588.495,-63826.29,0.5419133951446284,6.73336053243118,12.574379200055338,-3.049274701432257,-1.0922898327464947,2.481905919811172,2.8160335531820686,-0.3321451510436895,-0.14025843,-0.965634735,0.213683535,-13.67296,5.7835399999999995,-7.309539999999999,70.0
1774822720.6202824,1.7881393432617188e-05,2026-03-29T22:18:40.620,2026-03-29T18:18:40.620,-34023.69,-46274.805,-85463.055,-50455.17,-12648.689999999999,-17903.79,6583.23,-63815.805,1.9336771099281214,8.567028877964884,16.129888036277027,0.2732745541677966,-0.009222821798983531,1.5864658911516836,3.1477358094607815,1.1125147962748299,-0.14025843,-0.965634735,0.213683535,-13.67296,5.7835399999999995,-7.309539999999999,70.0
1774822720.6202981,1.5735626220703125e-05,2026-03-29T22:18:40.620,2026-03-29T18:18:40.620,-34031.744999999995,-46278.18,-85456.035,-50440.185,-12633.75,-17898.704999999998,6578.28,-63826.515,2.3901863028364083,6.330002620968821,12.10883085634596,3.5671965303835655,1.0255096566812854,-0.21683804651950211,1.9033832172023686,2.0492347797405066,-0.14074671,-0.9680151,0.214538025,-15.26,4.54748,-6.80596,70.0
1774822720.620304,5.9604644775390625e-06,2026-03-29T22:18:40.620,2026-03-29T18:18:40.620,-34056.225,-46277.82,-85435.29,-50417.28,-12616.335,-17889.84,6576.75,-63854.729999999996,1.684667687540745,1.3318718150369864,2.724044669630399,5.423531505324514,1.626702195275302,-1.9684881621851007,-0.2532769149970317,2.0292958591577,-0.14074671,-0.9680151,0.214538025,-15.26,4.54748,-6.80596,70.0
1774822720.6246977,0.004393577575683594,2026-03-29T22:18:40.624,2026-03-29T18:18:40.624,-34061.985,-46300.095,-85482.45,-50448.42,-12645.539999999999,-17906.94,6586.785,-63851.04,0.16742898873389353,-3.901585497784261,-7.415387241394741,5.0329881792655495,1.604615322779754,-2.7119184305182786,-2.223692980658318,1.0575573983294615,-0.14074671,-0.9680151,0.214538025,-15.26,4.54748,-6.80596,70.0
1774822720.6247182,2.0503997802734375e-05,2026-03-29T22:18:40.624,2026-03-29T18:18:40.624,-34064.549999999996,-46323.045,-85524.97499999999,-50473.89,-12667.14,-17915.76,6593.355,-63852.479999999996,-1.4126761105976984,-6.914785930479131,-13.589790067144126,2.5326417746988272,1.0125669861413291,-2.003955373944524,-3.029711047330964,-0.410299868759173,-0.14074671,-0.9680151,0.214538025,-15.26,4.54748,-6.80596,70.0
1774822720.63195,0.007231712341308594,2026-03-29T22:18:40.631,2026-03-29T18:18:40.631,-34063.155,-46314.72,-85491.0,-50439.509999999995,-12625.92,-17875.934999999998,6596.235,-63859.68,-2.286419897149094,-6.491854106900501,-13.1929041782288,-1.0550646690856829,0.09655096493077545,-0.16478569976811855,-2.2958724498256435,-1.6865087286008824,-0.14074671,-0.9680151,0.214538025,-15.26,4.54748,-6.80596,70.0
1774822720.6319745,2.4557113647460938e-05,2026-03-29T22:18:40.631,2026-03-29T18:18:40.631,-34064.415,-46295.415,-85462.875,-50455.034999999996,-12631.949999999999,-17874.27,6588.134999999999,-63860.759999999995,-2.046850142617309,-3.1436251652306275,-6.833080026156204,-4.256083006606416,-0.8153116039770598,1.868985746539921,-0.42209616860028026,-2.1780524929941865,-0.14074671,-0.9680151,0.214538025,-15.26,4.54748,-6.80596,70.0
1774822720.631998,2.3603439331054688e-05,2026-03-29T22:18:40.631,2026-03-29T18:18:40.631,-34067.475,-46273.68,-85448.205,-50470.29,-12656.34,-17892.09,6583.905,-63864.494999999995,-0.8418975051652519,1.2817686968250115,2.1548205885760106,-5.75843939168939,-1.4295140378209124,3.0197962795924864,1.6316803055081357,-1.6636583431747818,-0.14074671,-0.9680151,0.214538025,-15.26,4.54748,-6.80596,70.0
1774822720.6320095,1.1444091796875e-05,2026-03-29T22:18:40.632,2026-03-29T18:18:40.632,-34049.744999999995,-46266.255,-85418.28,-50422.14,-12639.06,-17889.795,6598.44,-63850.185,0.7160055716280743,4.609881864602274,9.460034602478256,-4.945444650052008,-1.5682244868645805,2.632145422863449,2.8338958416247335,-0.39070734982058825,-0.14074671,-0.9680151,0.214538025,-15.26,4.54748,-6.80596,70.0
1774822720.6364987,0.00448918342590332,2026-03-29T22:18:40.636,2026-03-29T18:18:40.636,-34047.63,-46278.45,-85440.915,-50458.049999999996,-12650.355,-17892.855,6606.224999999999,-63843.615,1.8688194036698464,5.423416792641728,11.889706719694878,-2.133830015934027,-1.2004891172043897,0.8316992708193428,2.59539893242646,1.0487326661818124,-0.14074671,-0.9680151,0.214538025,-15.26,4.54748,-6.80596,70.0
1774822720.6365244,2.574920654296875e-05,2026-03-29T22:18:40.636,2026-03-29T18:18:40.636,-34052.445,-46283.759999999995,-85461.3,-50483.7,-12670.965,-17902.079999999998,6600.554999999999,-63849.645,2.090790915908877,3.6713536722746607,8.776812429543897,1.5666421704991311,-0.4337201940362286,-1.5115164201351539,1.0543130740136941,1.99794884141783,-0.14074671,-0.9680151,0.214538025,-15.26,4.54748,-6.80596,70.0
1774822720.6417344,0.005209922790527344,2026-03-29T22:18:40.641,2026-03-29T18:18:40.641,-34039.89,-46267.064999999995,-85452.12,-50459.985,-12664.395,-17902.755,6588.36,-63847.935,1.332401700624226,0.5383642027311817,2.0746552788811177,4.7004341486212455,0.516634513695074,-3.2073127023260093,-1.0045955346035114,2.0364760402764532,-0.141173955,-0.97753656,0.21588079500000001,-10.804079999999999,4.07442,-5.5699,70.0
1774822720.6417496,1.52587890625e-05,2026-03-29T22:18:40.641,2026-03-29T18:18:40.641,-34020.225,-46269.765,-85477.00499999999,-50466.104999999996,-12662.64,-17915.895,6590.565,-63827.235,0.014702727423920812,-2.2916287988213138,-4.804762030434505,6.034240127001487,1.3699105583235276,-3.3484238878468817,-2.549180336403802,1.1630321262954133,-0.141173955,-0.97753656,0.21588079500000001,-10.804079999999999,4.07442,-5.5699,70.0
1774822720.6442573,0.0025076866149902344,2026-03-29T22:18:40.644,2026-03-29T18:18:40.644,-34025.13,-46283.354999999996,-85491.765,-50486.67,-12672.63,-17930.655,6596.054999999999,-63820.71,-1.208120975253391,-3.541737802968032,-8.74087682022884,5.026073066009523,1.8388199155587628,-1.7872379825083409,-2.8147133601154177,-0.21724820546548407,-0.141173955,-0.97753656,0.21588079500000001,-10.804079999999999,4.07442,-5.5699,70.0
1774822720.6442692,1.1920928955078125e-05,2026-03-29T22:18:40.644,2026-03-29T18:18:40.644,-34049.115,-46276.11,-85463.73,-50475.33,-12657.285,-17895.465,6599.969999999999,-63851.265,-1.7829223309101712,-2.9302578614650305,-8.340160263596175,2.026291838273332,1.7088784806206163,0.7613486062425401,-1.6782300998171755,-1.4859771032023856,-0.141173955,-0.97753656,0.21588079500000001,-10.804079999999999,4.07442,-5.5699,70.0
1774822720.6486573,0.004388093948364258,2026-03-29T22:18:40.648,2026-03-29T18:18:40.648,-34042.049999999996,-46268.1,-85448.34,-50466.33,-12648.33,-17876.655,6600.96,-63848.43,-1.513340050881778,-1.1634580985958216,-4.3868468423573255,-1.8525714400447295,0.9285133963299608,3.0532507186468476,0.28937001847709043,-2.0899390990110183,-0.141173955,-0.97753656,0.21588079500000001,-10.804079999999999,4.07442,-5.5699,70.0
1774822720.6486752,1.7881393432617188e-05,2026-03-29T22:18:40.648,2026-03-29T18:18:40.648,-34029.63,-46268.145,-85448.06999999999,-50464.979999999996,-12656.52,-17897.13,6592.995,-63839.024999999994,-0.6156491780638144,0.5995429167948373,0.8109571000721217,-5.142187165998818,-0.32405981246221477,3.92658306083113,2.1132605452935285,-1.7782868347460408,-0.141173955,-0.97753656,0.21588079500000001,-10.804079999999999,4.07442,-5.5699,70.0
1774822720.6554947,0.006819486618041992,2026-03-29T22:18:40.655,2026-03-29T18:18:40.655,-34038.99,-46275.705,-85456.53,-50464.215,-12655.98,-17898.84,6597.719999999999,-63848.34,0.4336016166092973,1.4589570707464625,4.734546378293576,-6.555181655309673,-1.644387766322608,2.888810442081519,2.8982104977418763,-0.6988928493847171,-0.141173955,-0.97753656,0.21588079500000001,-10.804079999999999,4.07442,-5.5699,70.0
1774822720.6555195,2.47955322265625e-05,2026-03-29T22:18:40.655,2026-03-29T18:18:40.655,-34046.729999999996,-46279.034999999996,-85460.67,-50464.35,-12656.34,-17899.02,6599.25,-63859.59,1.158235570317348,1.2431672106646967,5.893604900211432,-5.466899944565044,-2.508436347670506,0.3834745315878405,2.2654398329376932,0.6781681244995,-0.141173955,-0.97753656,0.21588079500000001,-10.804079999999999,4.07442,-5.5699,70.0
1774822720.6555407,2.1219253540039062e-05,2026-03-29T22:18:40.655,2026-03-29T18:18:40.655,-34047.494999999995,-46279.08,-85457.655,-50455.71,-12646.845,-17892.315,6601.005,-63856.755,1.3058405780804851,0.485967030727431,4.373239929368317,-2.1748737526477897,-2.4703288451262844,-2.404260356446192,0.5303826231201199,1.7672636601836553,-0.141173955,-0.97753656,0.21588079500000001,-10.804079999999999,4.07442,-5.5699,70.0
1774822720.6555529,1.2159347534179688e-05,2026-03-29T22:18:40.655,2026-03-29T18:18:40.655,-34040.385,-46278.09,-85452.705,-50451.705,-12647.16,-17895.69,6589.485,-63847.53,0.925073456193277,-0.03087015528774936,1.498936408664157,2.1631962205080852,-1.3825174465600623,-4.11556068112916,-1.4601268134228427,2.111624322962382,-0.141173955,-0.97753656,0.21588079500000001,-10.804079999999999,4.07442,-5.5699,70.0
1774822720.6606853,0.005132436752319336,2026-03-29T22:18:40.660,2026-03-29T18:18:40.660,-34054.604999999996,-46280.115,-85442.895,-50443.604999999996,-12645.404999999999,-17896.005,6585.48,-63859.185,0.27984637090988285,0.1449313247081469,-1.083226984256103,5.911099734195402,0.4667430231127005,-3.883964441004206,-2.7452251098929863,1.5658572272458373,-0.146789175,-0.986386635,0.21740667,-7.79786,2.79258,-8.36248,70.0
1774822720.660715,2.9802322387695312e-05,2026-03-29T22:18:40.660,2026-03-29T18:18:40.660,-34044.479999999996,-46285.064999999995,-85461.165,-50456.25,-12655.395,-17905.815,6584.759999999999,-63846.854999999996,-0.32582470556175175,0.8145461009011147,-2.333134708665496,7.544394047812938,2.391447402964584,-1.7713484248406208,-2.7144831157864906,0.34896893448738286,-0.146789175,-0.986386635,0.21740667,-7.79786,2.79258,-8.36248,70.0
1774822720.6659777,0.005262613296508789,2026-03-29T22:18:40.665,2026-03-29T18:18:40.665,-34032.645,-46283.445,-85475.11499999999,-50464.799999999996,-12660.57,-17911.215,6579.9,-63837.314999999995,-0.7001563322220037,1.270393176505787,-2.2352202780056736,6.252194591586767,3.5465445391716193,1.2446183741996568,-1.3944247668920102,-1.045926090900727,-0.146789175,-0.986386635,0.21740667,-7.79786,2.79258,-8.36248,70.0
1774822720.6660016,2.384185791015625e-05,2026-03-29T22:18:40.666,2026-03-29T18:18:40.666,-34053.479999999996,-46284.57,-85477.905,-50458.68,-12646.529999999999,-17899.38,6577.695,-63869.174999999996,-0.8123831077634825,0.8150351473911733,-1.5406719287583643,2.3233254304285342,3.2936937374973767,3.7310969101357063,0.5761346058662726,-2.0460204676409135,-0.146789175,-0.986386635,0.21740667,-7.79786,2.79258,-8.36248,70.0
1774822720.6687105,0.002708911895751953,2026-03-29T22:18:40.668,2026-03-29T18:18:40.668,-34046.865,-46276.515,-85469.175,-50464.755,-12653.91,-17901.315,6588.585,-63864.18,-0.7333637597122074,-0.676656844816954,-1.0790354547402945,-2.860805084936619,1.5383764004292764,4.488077807999649,2.261851875388457,-2.223480156777429,-0.146789175,-0.986386635,0.21740667,-7.79786,2.79258,-8.36248,70.0
1774822720.6687307,2.0265579223632812e-05,2026-03-29T22:18:40.668,2026-03-29T18:18:40.668,-34050.78,-46266.03,-85429.62,-50445.18,-12647.34,-17896.32,6595.514999999999,-63867.509999999995,-0.5336113290329436,-2.531233117177936,-1.1242997032648607,-7.275632560015497,-1.1345139702214395,3.13017042991417,2.8789246944284463,-1.4683898218976623,-0.146789175,-0.986386635,0.21740667,-7.79786,2.79258,-8.36248,70.0
1774822720.673068,0.004337310791015625,2026-03-29T22:18:40.673,2026-03-29T18:18:40.673,-34044.57,-46276.29,-85452.39,-50461.74,-12662.279999999999,-17910.989999999998,6596.73,-63858.96,-0.2244223076422152,-3.5761316339821763,-1.2330792509223845,-9.020984756906962,-3.6297805229332836,0.27888023672817785,2.1588748534592734,-0.046004283526005135,-0.146789175,-0.986386635,0.21740667,-7.79786,2.79258,-8.36248,70.0
1774822720.6730895,2.1457672119140625e-05,2026-03-29T22:18:40.673,2026-03-29T18:18:40.673,-34056.135,-46288.979999999996,-85461.97499999999,-50463.27,-12652.695,-17892.945,6607.035,-63867.825,0.21305037635648588,-2.8341249579781684,-0.6494236309365162,-7.129193756139044,-4.7833974945408,-2.729104816389227,0.4592781776705595,1.4877995577591345,-0.146789175,-0.986386635,0.21740667,-7.79786,2.79258,-8.36248,70.0
1774822720.6780033,0.004913806915283203,2026-03-29T22:18:40.678,2026-03-29T18:18:40.678,-34064.595,-46300.365,-85468.00499999999,-50452.47,-12636.18,-17879.85,6600.6449999999995,-63872.1,0.7385369299917429,-0.21712677631893473,1.0068826750881632,-2.0751638258196965,-3.9024187289370516,-4.47740198797026,-1.4211312601015111,2.4909540683002525,-0.146789175,-0.986386635,0.21740667,-7.79786,2.79258,-8.36248,70.0
1774822720.6780272,2.384185791015625e-05,2026-03-29T22:18:40.678,2026-03-29T18:18:40.678,-34067.655,-46305.27,-85476.465,-50453.189999999995,-12652.154999999999,-17893.62,6594.344999999999,-63873.225,1.1848684668700198,3.221332687996201,3.251686513948162,4.27212003196725,-1.1540299751803296,-4.143128681486557,-2.6247152378230805,2.4920223820125185,-0.146789175,-0.986386635,0.21740667,-7.79786,2.79258,-8.36248,70.0
1774822720.6832774,0.005250215530395508,2026-03-29T22:18:40.683,2026-03-29T18:18:40.683,-34058.07,-46289.7,-85479.66,-50445.405,-12664.439999999999,-17907.885,6594.48,-63867.104999999996,1.2890614379333254,5.696900867483693,4.8259752446793245,9.308751937429836,2.406229141356954,-1.8850346181926716,-2.6285089742885344,1.4036679748014578,-0.149718855,-0.993100485,0.21997014,-5.15788,2.25848,-7.95046,70.0
1774822720.683296,1.8596649169921875e-05,2026-03-29T22:18:40.683,2026-03-29T18:18:40.683,-34053.21,-46281.555,-85476.105,-50425.47,-12647.699999999999,-17900.19,6594.48,-63865.71,0.8350206644959693,5.616174504468526,4.386999700043988,10.75222714351079,5.2272020680028035,1.2368908874766285,-1.4672283761730782,-0.3998829508592428,-0.149718855,-0.993100485,0.21997014,-5.15788,2.25848,-7.95046,70.0
1774822720.6833134,1.7404556274414062e-05,2026-03-29T22:18:40.683,2026-03-29T18:18:40.683,-34047.54,-46272.465,-85456.845,-50443.965,-12638.295,-17884.98,6600.285,-63864.72,-0.16549524689557815,2.5345279096680544,1.4269089097330492,7.673181842597804,5.936941562869533,3.767584318720365,0.3073032582700078,-2.192919764056778,-0.149718855,-0.993100485,0.21997014,-5.15788,2.25848,-7.95046,70.0
1774822720.68332,6.67572021484375e-06,2026-03-29T22:18:40.683,2026-03-29T18:18:40.683,-34039.979999999996,-46266.255,-85449.015,-50494.365,-12664.215,-17891.82,6606.495,-63860.579999999994,-1.3769405431215234,-2.4031920415076193,-3.152188850369977,1.0370710240416647,4.006556384847721,4.543336113938981,1.8967029839448484,-3.1758640740393504,-0.149718855,-0.993100485,0.21997014,-5.15788,2.25848,-7.95046,70.0
1774822720.6883435,0.005023479461669922,2026-03-29T22:18:40.688,2026-03-29T18:18:40.688,-34029.405,-46267.92,-85445.28,-50480.685,-12662.775,-17896.184999999998,6606.495,-63850.32,-2.2256873852547705,-6.85911149694304,-7.237908583950371,-6.54371634471314,0.08279845348712415,3.2309515271038163,2.6203625205770393,-2.822866444931271,-0.149718855,-0.993100485,0.21997014,-5.15788,2.25848,-7.95046,70.0
1774822720.68836,1.6450881958007812e-05,2026-03-29T22:18:40.688,2026-03-29T18:18:40.688,-34034.13,-46285.064999999995,-85465.215,-50460.659999999996,-12648.33,-17893.665,6601.995,-63852.884999999995,-2.1654697082737147,-8.416578032156659,-8.492507719172105,-11.820294634050635,-4.203778622959833,0.46802825936969966,2.204791609030938,-1.153030465305011,-0.149718855,-0.993100485,0.21997014,-5.15788,2.25848,-7.95046,70.0
1774822720.6924837,0.004123687744140625,2026-03-29T22:18:40.692,2026-03-29T18:18:40.692,-34043.445,-46295.189999999995,-85462.73999999999,-50458.229999999996,-12654.9,-17900.82,6595.065,-63857.564999999995,-1.002578203963054,-5.877460594606969,-5.658654269556481,-12.299808802062092,-6.913845196974135,-2.4531087413040957,0.8760232477814918,1.210956383300195,-0.149718855,-0.993100485,0.21997014,-5.15788,2.25848,-7.95046,70.0
1774822720.6925004,1.6689300537109375e-05,2026-03-29T22:18:40.692,2026-03-29T18:18:40.692,-34050.869999999995,-46277.415,-85451.355,-50477.85,-12681.765,-17927.19,6588.8099999999995,-63861.615,0.9044594727247108,-0.05079101221212206,0.5317651809829658,-7.423353253083986,-6.67955915379196,-4.19850516721663,-0.7691651840679898,3.2558905789782737,-0.149718855,-0.993100485,0.21997014,-5.15788,2.25848,-7.95046,70.0
1774822720.6965525,0.004052162170410156,2026-03-29T22:18:40.696,2026-03-29T18:18:40.696,-34047.45,-46257.39,-85442.12999999999,-50473.755,-12683.115,-17934.434999999998,6585.255,-63861.704999999994,2.7185255362703957,6.448736682057344,7.426706982832166,1.0281690058928872,-3.3889850351124595,-4.007995169054126,-2.0384053597196226,4.002106457262011,-0.149718855,-0.993100485,0.21997014,-5.15788,2.25848,-7.95046,70.0
1774822720.6965683,1.5735626220703125e-05,2026-03-29T22:18:40.696,2026-03-29T18:18:40.696,-34042.095,-46264.905,-85445.685,-50457.33,-12662.414999999999,-17908.605,6589.8,-63859.454999999994,3.484573238903282,10.3821246549727,11.59637274812635,9.553930011521482,1.6660179996226083,-2.0261915503040053,-2.4349959479106214,2.966787395280994,-0.149718855,-0.993100485,0.21997014,-5.15788,2.25848,-7.95046,70.0
1774822720.707595,0.011026859283447266,2026-03-29T22:18:40.707,2026-03-29T18:18:40.707,-34052.58,-46277.235,-85450.455,-50440.095,-12635.73,-17877.329999999998,6596.82,-63869.939999999995,2.625589274820792,9.509559956611662,10.55363993632829,14.381131125289263,6.289605835769937,0.7948559447624193,-1.8428011645206648,0.44994132506100887,-0.147399525,-0.99047598,0.22277775,-2.4415999999999998,2.76206,-8.57612,70.0
1774822720.7076151,2.002716064453125e-05,2026-03-29T22:18:40.707,2026-03-29T18:18:40.707,-34043.805,-46280.88,-85455.72,-50440.814999999995,-12645.494999999999,-17898.344999999998,6590.07,-63860.085,0.31847190841027007,3.8375699037686934,4.182824617259783,13.143812965494932,8.34026474406973,3.1600223317572773,-0.541616660273957,-2.5183006010707207,-0.147399525,-0.99047598,0.22277775,-2.4415999999999998,2.76206,-8.57612,70.0
1774822720.7076335,1.8358230590820312e-05,2026-03-29T22:18:40.707,2026-03-29T18:18:40.707,-34044.93,-46295.82,-85482.36,-50456.43,-12665.654999999999,-17914.95,6584.49,-63852.884999999995,-2.4783713898734896,-4.19440017142104,-4.924542513491377,6.040977843608355,6.727297972337112,4.032990658780926,0.9328420087203586,-4.586792201740635,-0.147399525,-0.99047598,0.22277775,-2.4415999999999998,2.76206,-8.57612,70.0
1774822720.7076404,6.9141387939453125e-06,2026-03-29T22:18:40.707,2026-03-29T18:18:40.707,-34062.84,-46312.56,-85510.17,-50479.604999999996,-12683.295,-17920.934999999998,6580.304999999999,-63869.579999999994,-4.413612729130219,-10.766331110133995,-12.517602754524207,-4.093224423416598,1.9793552610754097,3.092672044352092,2.0109827905843702,-4.693870683166454,-0.147399525,-0.99047598,0.22277775,-2.4415999999999998,2.76206,-8.57612,70.0
1774822720.7076483,7.867813110351562e-06,2026-03-29T22:18:40.707,2026-03-29T18:18:40.707,-34077.015,-46318.59,-85516.37999999999,-50476.455,-12660.795,-17899.2,6589.71,-63881.415,-4.395797598946321,-12.513466080001198,-14.697401601777154,-12.91180120113881,-3.907622995382501,0.8421953088325034,2.300548941153719,-2.605612231956528,-0.147399525,-0.99047598,0.22277775,-2.4415999999999998,2.76206,-8.57612,70.0
1774822720.7076547,6.4373016357421875e-06,2026-03-29T22:18:40.707,2026-03-29T18:18:40.707,-34046.865,-46301.49,-85508.775,-50495.445,-12664.305,-17898.795,6595.83,-63851.805,-2.1945484568147156,-8.254208447829246,-9.926929156325576,-16.430441532480696,-8.312731248180176,-1.6607499598709148,1.7139345025971602,0.8889173803208187,-0.147399525,-0.99047598,0.22277775,-2.4415999999999998,2.76206,-8.57612,70.0
1774822720.714426,0.0067713260650634766,2026-03-29T22:18:40.714,2026-03-29T18:18:40.714,-34053.75,-46277.369999999995,-85472.19,-50504.805,-12670.785,-17897.489999999998,6602.58,-63868.409999999996,1.3362531786652856,0.28012379909941326,8.89374865100005e-05,-12.8420607903142,-9.165805755646339,-3.3077132133169833,0.48037226072744915,4.257760105771257,-0.147399525,-0.99047598,0.22277775,-2.4415999999999998,2.76206,-8.57612,70.0
1774822720.7144487,2.2649765014648438e-05,2026-03-29T22:18:40.714,2026-03-29T18:18:40.714,-34046.82,-46255.68,-85421.87999999999,-50465.295,-12665.88,-17902.125,6591.509999999999,-63875.384999999995,4.574664452266585,9.142513002446698,10.607238858635323,-3.436989198455556,-5.924857806745766,-3.4345512754717844,-0.9461626062272135,5.893498616706344,-0.147399525,-0.99047598,0.22277775,-2.4415999999999998,2.76206,-8.57612,70.0
1774822720.7176776,0.003228902816772461,2026-03-29T22:18:40.717,2026-03-29T18:18:40.717,-34029.765,-46246.005,-85398.705,-50412.6,-12637.664999999999,-17892.495,6592.905,-63863.189999999995,5.878415630001049,14.017432129815099,16.78138880923599,7.837638594925449,0.10876639695288012,-2.0848470779421966,-2.0447495975578116,4.879640872608782,-0.147399525,-0.99047598,0.22277775,-2.4415999999999998,2.76206,-8.57612,70.0
1774822720.7177143,3.6716461181640625e-05,2026-03-29T22:18:40.717,2026-03-29T18:18:40.717,-34033.545,-46258.244999999995,-85427.86499999999,-50427.09,-12642.84,-17898.57,6603.03,-63860.13,4.417954844976964,12.343069593571277,15.268014678950308,16.042824754690123,6.3122807674779,0.06015072450704418,-2.4017945628481026,1.4903860473632762,-0.147399525,-0.99047598,0.22277775,-2.4415999999999998,2.76206,-8.57612,70.0
1774822720.7209013,0.003186941146850586,2026-03-29T22:18:40.720,2026-03-29T18:18:40.720,-34040.25,-46269.225,-85440.015,-50441.805,-12652.605,-17902.215,6610.41,-63862.74,0.671326049296422,4.6551295995210955,6.383999670450305,17.431106480551456,9.891712533925821,2.028056623803596,-1.8536798993378287,-2.844362921842033,-0.142272585,-0.993222555,0.22265568,-0.9919,3.52506,-6.867,70.0
1774822720.720923,2.1696090698242188e-05,2026-03-29T22:18:40.720,2026-03-29T18:18:40.720,-34039.215,-46275.93,-85449.51,-50454.585,-12657.105,-17897.895,6602.355,-63867.149999999994,-3.703821095693793,-5.552231490739967,-5.952659866157878,11.17391848107781,9.151340910728534,3.001116649948597,-0.5569928989984895,-6.136964248772362,-0.142272585,-0.993222555,0.22265568,-0.9919,3.52506,-6.867,70.0
1774822720.7284515,0.007528543472290039,2026-03-29T22:18:40.728,2026-03-29T18:18:40.728,-34039.665,-46285.29,-85465.53,-50452.65,-12649.32,-17890.065,6594.75,-63867.645,-6.60678003740709,-13.434428882603216,-15.97220366782268,-0.17094391247136984,4.300228776355206,2.654740998748143,1.0414122656053195,-6.756255842946897,-0.142272585,-0.993222555,0.22265568,-0.9919,3.52506,-6.867,70.0
1774822720.7284808,2.9325485229492188e-05,2026-03-29T22:18:40.728,2026-03-29T18:18:40.728,-34052.31,-46294.244999999995,-85466.79,-50447.34,-12646.619999999999,-17892.0,6591.285,-63875.655,-6.510087809120549,-15.123824204408697,-18.78962891695393,-11.707271618579053,-2.5897337614035894,1.2495985207629645,2.339649586110386,-4.236077187399243,-0.142272585,-0.993222555,0.22265568,-0.9919,3.52506,-6.867,70.0
1774822720.7285092,2.8371810913085938e-05,2026-03-29T22:18:40.728,2026-03-29T18:18:40.728,-34052.04,-46296.81,-85475.925,-50455.845,-12664.08,-17914.95,6589.844999999999,-63872.189999999995,-3.2597990969529,-9.64517834145307,-12.81255483225634,-18.333933795294154,-8.477916846381428,-0.5380618672286613,2.7928501129598007,0.42361297932951875,-0.142272585,-0.993222555,0.22265568,-0.9919,3.52506,-6.867,70.0
1774822720.7285218,1.2636184692382812e-05,2026-03-29T22:18:40.728,2026-03-29T18:18:40.728,-34027.02,-46275.345,-85454.595,-50451.884999999995,-12671.55,-17919.63,6585.615,-63846.765,1.7590228551320666,0.5377214135158802,-0.6217490481084554,-17.02495585431278,-10.711187267011546,-1.9452449563205394,2.1365554412827614,5.144168736195255,-0.142272585,-0.993222555,0.22265568,-0.9919,3.52506,-6.867,70.0
1774822720.733379,0.004857063293457031,2026-03-29T22:18:40.733,2026-03-29T18:18:40.733,-34020.9,-46249.02,-85425.56999999999,-50427.72,-12648.734999999999,-17895.69,6584.985,-63843.93,6.214047454798004,10.644918342110754,12.155180229229707,-8.225581658254528,-8.230629496474512,-2.449011425789329,0.5329845610917596,7.7000069121936585,-0.142272585,-0.993222555,0.22265568,-0.9919,3.52506,-6.867,70.0
1774822720.7334137,3.4809112548828125e-05,2026-03-29T22:18:40.733,2026-03-29T18:18:40.733,-34036.2,-46264.77,-85447.305,-50429.205,-12645.945,-17896.32,6588.8099999999995,-63861.119999999995,7.92127926476588,15.853749021137983,19.479006703714035,4.28678885199577,-2.0743708374168888,-1.950965298588001,-1.4381604093297586,6.775025783937976,-0.142272585,-0.993222555,0.22265568,-0.9919,3.52506,-6.867,70.0
1774822720.7378068,0.004393100738525391,2026-03-29T22:18:40.737,2026-03-29T18:18:40.737,-34046.82,-46261.53,-85425.25499999999,-50421.42,-12632.895,-17885.79,6596.594999999999,-63881.685,5.924004335155236,13.627701265069113,17.791190335706265,15.041374172539475,5.063234053572214,-0.7602728928749374,-2.971465050205584,2.6385022178190645,-0.142272585,-0.993222555,0.22265568,-0.9919,3.52506,-6.867,70.0
1774822720.7378256,1.8835067749023438e-05,2026-03-29T22:18:40.737,2026-03-29T18:18:40.737,-34039.215,-46263.869999999995,-85431.87,-50436.225,-12644.279999999999,-17896.995,6597.045,-63874.89,1.0176167900943671,4.963188715151822,7.760643217345685,19.293983228637437,10.026154504243548,0.5876108190475574,-3.3582538861966205,-2.9067570855394544,-0.142272585,-0.993222555,0.22265568,-0.9919,3.52506,-6.867,70.0
1774822720.7421987,0.004373073577880859,2026-03-29T22:18:40.742,2026-03-29T18:18:40.742,-34045.244999999995,-46294.83,-85481.055,-50453.865,-12654.765,-17900.954999999998,6598.349999999999,-63872.505,-4.564048487934182,-6.063997769002997,-5.980261629664712,15.14486627320381,10.608340031702241,1.5740985199042195,-2.3147114206730843,-7.314474009272674,-0.140075325,-0.9948705,0.22277775,1.05294,3.3571999999999997,-5.93614,70.0
1774822720.7422135,1.4781951904296875e-05,2026-03-29T22:18:40.742,2026-03-29T18:18:40.742,-34054.47,-46306.125,-85490.64,-50425.155,-12636.18,-17896.454999999998,6599.205,-63878.579999999994,-8.179133483604101,-14.242508361009573,-17.00629506132845,4.397102960019959,6.543349258143073,1.8912167235552106,-0.1634784492700772,-8.475190948764729,-0.140075325,-0.9948705,0.22277775,1.05294,3.3571999999999997,-5.93614,70.0
1774822720.7486243,0.006410837173461914,2026-03-29T22:18:40.748,2026-03-29T18:18:40.748,-34046.415,-46299.555,-85486.59,-50444.64,-12661.064999999999,-17922.555,6599.205,-63869.715,-8.043106227582548,-15.72019357197466,-20.144476907636026,-8.237512575147584,-0.3766890212936988,1.5169756336180737,2.2399534293745353,-5.734310138970356,-0.140075325,-0.9948705,0.22277775,1.05294,3.3571999999999997,-5.93614,70.0
1774822720.7486408,1.6450881958007812e-05,2026-03-29T22:18:40.748,2026-03-29T18:18:40.748,-34054.47,-46276.064999999995,-85470.3,-50477.4,-12668.67,-17908.469999999998,6600.87,-63879.704999999994,-4.115595245051616,-9.84077552648647,-13.93153155836675,-17.23120626406842,-7.105156373040375,0.6681796425844526,3.8386125275733005,-0.2520966610780849,-0.140075325,-0.9948705,0.22277775,1.05294,3.3571999999999997,-5.93614,70.0
1774822720.7486587,1.7881393432617188e-05,2026-03-29T22:18:40.748,2026-03-29T18:18:40.748,-34054.604999999996,-46275.345,-85477.23,-50512.229999999996,-12677.984999999999,-17892.27,6604.469999999999,-63878.67,1.835342011989998,0.5636110632916825,-1.3023653025398712,-18.690016802579635,-10.701184023011578,-0.32097820460898563,3.840342034817725,5.489689588534431,-0.140075325,-0.9948705,0.22277775,1.05294,3.3571999999999997,-5.93614,70.0
1774822720.7486694,1.0728836059570312e-05,2026-03-29T22:18:40.748,2026-03-29T18:18:40.748,-34042.86,-46276.83,-85463.055,-50493.24,-12685.005,-17904.015,6596.73,-63868.634999999995,7.042044868250474,10.55488557138305,11.816795924173512,-12.060324581631484,-9.62989824452704,-1.1283246565102625,2.1128318655531126,8.824134386948073,-0.140075325,-0.9948705,0.22277775,1.05294,3.3571999999999997,-5.93614,70.0
1774822720.752689,0.004019498825073242,2026-03-29T22:18:40.752,2026-03-29T18:18:40.752,-34037.775,-46279.935,-85453.92,-50473.619999999995,-12680.145,-17915.94,6591.509999999999,-63859.814999999995,9.042989957984293,15.4634843617886,19.32640975586157,-0.33396319245621403,-4.4203982162103514,-1.5323507445910822,-0.6908651246787134,8.15213453587726,-0.140075325,-0.9948705,0.22277775,1.05294,3.3571999999999997,-5.93614,70.0
1774822720.752705,1.621246337890625e-05,2026-03-29T22:18:40.752,2026-03-29T18:18:40.752,-34038.045,-46283.805,-85460.535,-50450.22,-12665.34,-17914.59,6580.53,-63863.685,6.860447873677072,13.09903453256345,17.825422816944723,11.322217461831483,2.602550469138243,-1.4462884629785508,-3.366545391108618,3.7163252725698506,-0.140075325,-0.9948705,0.22277775,1.05294,3.3571999999999997,-5.93614,70.0
1774822720.7595062,0.006801128387451172,2026-03-29T22:18:40.759,2026-03-29T18:18:40.759,-34038.674999999996,-46290.915,-85488.25499999999,-50470.155,-12674.43,-17924.85,6580.844999999999,-63868.905,1.479699726652624,4.737618859794654,8.16821596779186,17.876227747220803,8.375044333590356,-0.9127786209263898,-4.676873644061844,-2.482413089881362,-0.140075325,-0.9948705,0.22277775,1.05294,3.3571999999999997,-5.93614,70.0
1774822720.7595203,1.4066696166992188e-05,2026-03-29T22:18:40.759,2026-03-29T18:18:40.759,-34050.555,-46288.395,-85472.28,-50461.875,-12655.664999999999,-17913.645,6587.594999999999,-63887.399999999994,-4.606254532438998,-5.563980569433385,-5.013468946024198,16.63252349792436,10.45009624239398,-0.0822190590525604,-3.930388186176777,-7.5999629655413985,-0.140075325,-0.9948705,0.22277775,1.05294,3.3571999999999997,-5.93614,70.0
1774822720.7595315,1.1205673217773438e-05,2026-03-29T22:18:40.759,2026-03-29T18:18:40.759,-34061.174999999996,-46295.955,-85479.03,-50478.299999999996,-12656.43,-17896.32,6607.035,-63891.405,-8.571221099286973,-12.959780590342882,-15.558939297430506,8.347907268349037,8.043646269352244,0.8141605993021529,-1.3474021134634036,-9.27133572725493,-0.140807745,-0.993832905,0.22448673,5.32574,4.059159999999999,-6.4855,70.0
1774822720.7595365,5.0067901611328125e-06,2026-03-29T22:18:40.759,2026-03-29T18:18:40.759,-34053.03,-46304.415,-85489.33499999999,-50486.67,-12679.244999999999,-17896.815,6605.91,-63875.34,-8.586975992425165,-14.12388711169002,-18.6933803447897,-3.2046515004711296,2.3185732617261565,1.5030372708800928,1.9813699118660004,-6.717222598064302,-0.140807745,-0.993832905,0.22448673,5.32574,4.059159999999999,-6.4855,70.0
1774822720.7680223,0.008485794067382812,2026-03-29T22:18:40.768,2026-03-29T18:18:40.768,-34044.165,-46298.295,-85475.43,-50467.994999999995,-12677.445,-17905.77,6595.469999999999,-63868.32,-4.674986166794734,-8.763625371372257,-13.213676302114026,-12.982153859537734,-4.1897428099270515,1.732113594261114,4.5544036646743535,-1.1101954865486658,-0.140807745,-0.993832905,0.22448673,5.32574,4.059159999999999,-6.4855,70.0
1774822720.7680373,1.5020370483398438e-05,2026-03-29T22:18:40.768,2026-03-29T18:18:40.768,-34030.71,-46293.119999999995,-85479.56999999999,-50479.92,-12668.715,-17903.43,6584.985,-63860.265,1.3225523737709473,0.3600250058529309,-1.9337535648114108,-16.907743784922115,-8.717990444172885,1.3567784749749638,5.1445582514223185,4.9733235857326505,-0.140807745,-0.993832905,0.22448673,5.32574,4.059159999999999,-6.4855,70.0
1774822720.768051,1.3589859008789062e-05,2026-03-29T22:18:40.768,2026-03-29T18:18:40.768,-34008.75,-46270.215,-85458.78,-50481.494999999995,-12673.35,-17909.594999999998,6590.295,-63840.284999999996,6.627491863314163,8.859445023376592,9.765181040420572,-13.589093339593397,-9.462784617528541,0.423810049151342,3.393619807932393,8.754923125838534,-0.140807745,-0.993832905,0.22448673,5.32574,4.059159999999999,-6.4855,70.0
1774822720.768057,6.198883056640625e-06,2026-03-29T22:18:40.768,2026-03-29T18:18:40.768,-34026.84,-46257.119999999995,-85425.93,-50452.064999999995,-12668.715,-17910.899999999998,6604.469999999999,-63863.774999999994,8.833443509286962,12.855241780400691,16.5301838199218,-4.784963183088953,-6.293554489792385,-0.7938639295653128,0.023888305437042373,8.540787886809166,-0.140807745,-0.993832905,0.22448673,5.32574,4.059159999999999,-6.4855,70.0
1774822720.7726011,0.00454401969909668,2026-03-29T22:18:40.772,2026-03-29T18:18:40.772,-34047.315,-46270.259999999995,-85437.765,-50444.505,-12662.055,-17911.89,6603.84,-63886.814999999995,7.010924404572014,10.769224402667634,15.513137078126059,5.521710118213468,-0.7108259937098376,-1.8524098250382388,-3.4559217654821164,4.48863786294815,-0.140807745,-0.993832905,0.22448673,5.32574,4.059159999999999,-6.4855,70.0
1774822720.772621,1.9788742065429688e-05,2026-03-29T22:18:40.772,2026-03-29T18:18:40.772,-34047.09,-46273.365,-85444.37999999999,-50441.04,-12653.505,-17911.844999999998,6589.125,-63890.729999999996,2.0957258208132052,3.9366134845205636,7.570199383804348,12.958790454547476,4.882228183789515,-2.28848549023084,-5.433337605412075,-1.496541202665635,-0.140807745,-0.993832905,0.22448673,5.32574,4.059159999999999,-6.4855,70.0
1774822720.7787385,0.006117582321166992,2026-03-29T22:18:40.778,2026-03-29T18:18:40.778,-34047.945,-46284.165,-85450.455,-50433.075,-12655.664999999999,-17920.844999999998,6581.969999999999,-63890.369999999995,-3.599901166677613,-4.193436962207282,-3.320277648195849,14.648073319951314,8.234022358367126,-1.8211241668011975,-4.951294284539758,-6.673339735080085,-0.140807745,-0.993832905,0.22448673,5.32574,4.059159999999999,-6.4855,70.0
1774822720.7787516,1.3113021850585938e-05,2026-03-29T22:18:40.778,2026-03-29T18:18:40.778,-34053.479999999996,-46303.83,-85476.87,-50435.009999999995,-12663.539999999999,-17923.77,6582.87,-63888.345,-7.494660482898419,-9.808814277915497,-12.060827237625407,10.311365086806438,8.152228519920106,-0.5167788283319656,-2.180872157929197,-8.738891783054278,-0.140807745,-0.993832905,0.22448673,5.32574,4.059159999999999,-6.4855,70.0
1774822720.7814555,0.0027039051055908203,2026-03-29T22:18:40.781,2026-03-29T18:18:40.781,-34063.83,-46303.965,-85484.16,-50424.165,-12641.939999999999,-17897.805,6590.295,-63898.155,-7.92469248388511,-10.54390600113999,-14.845749861473458,2.1775066136017323,4.897584506140931,1.17405451129285,1.630191616484346,-6.865758248938703,-0.146484,-0.98901114,0.2233881,3.0977799999999998,2.9604399999999997,-8.36248,70.0
1774822720.781483,2.7418136596679688e-05,2026-03-29T22:18:40.781,2026-03-29T18:18:40.781,-34052.265,-46289.88,-85483.485,-50446.935,-12652.605,-17896.184999999998,6602.04,-63889.92,-4.855724473638089,-6.478907945737806,-10.828550544021494,-6.168512093839546,-0.04866398962907124,2.555648373667937,4.724355247019569,-2.0276041468163544,-0.146484,-0.98901114,0.2233881,3.0977799999999998,2.9604399999999997,-8.36248,70.0
1774822720.7846456,0.0031626224517822266,2026-03-29T22:18:40.784,2026-03-29T18:18:40.784,-34025.625,-46277.369999999995,-85491.405,-50503.725,-12680.369999999999,-17897.94,6610.995,-63869.04,0.18438259596122164,0.09400057301077139,-2.311169955995972,-11.39901236753662,-4.680178023438945,2.9687278805592063,5.656892116830543,3.511342262856986,-0.146484,-0.98901114,0.2233881,3.0977799999999998,2.9604399999999997,-8.36248,70.0
1774822720.7846649,1.9311904907226562e-05,2026-03-29T22:18:40.784,2026-03-29T18:18:40.784,-34010.1,-46263.015,-85461.84,-50521.59,-12708.494999999999,-17925.3,6604.5599999999995,-63858.645,4.878837413434031,5.935770908889001,6.53795419500243,-11.77808436090091,-7.287754056052997,2.103627915881019,3.983702670742562,7.2737180596933815,-0.146484,-0.98901114,0.2233881,3.0977799999999998,2.9604399999999997,-8.36248,70.0
1774822720.7930176,0.00835275650024414,2026-03-29T22:18:40.793,2026-03-29T18:18:40.793,-34017.479999999996,-46278.72,-85471.11,-50490.585,-12699.09,-17930.52,6592.32,-63863.865,7.204123317155775,8.46895698172789,11.736590084953741,-7.677035114221683,-7.06627869945426,0.19724661718153652,0.48074349897360247,7.692335415959155,-0.146484,-0.98901114,0.2233881,3.0977799999999998,2.9604399999999997,-8.36248,70.0
1774822720.793043,2.5272369384765625e-05,2026-03-29T22:18:40.793,2026-03-29T18:18:40.793,-34039.44,-46314.0,-85526.955,-50483.564999999995,-12675.914999999999,-17906.399999999998,6586.0199999999995,-63883.575,6.307490581646325,6.92566575230218,11.296105592845656,-1.153863355361434,-4.30360575888989,-2.001198008573075,-3.2169251384972006,4.762479229262834,-0.146484,-0.98901114,0.2233881,3.0977799999999998,2.9604399999999997,-8.36248,70.0
1774822720.7930665,2.3603439331054688e-05,2026-03-29T22:18:40.793,2026-03-29T18:18:40.793,-34054.83,-46321.65,-85521.59999999999,-50456.97,-12653.369999999999,-17896.32,6577.695,-63900.674999999996,2.7967883455907336,2.5190558309128126,5.956934785632273,5.094593295230478,-0.14857223345541934,-3.5143564629043387,-5.388190913497265,-0.048019756067385795,-0.146484,-0.98901114,0.2233881,3.0977799999999998,2.9604399999999997,-8.36248,70.0
1774822720.7930727,6.198883056640625e-06,2026-03-29T22:18:40.793,2026-03-29T18:18:40.793,-34056.494999999995,-46296.945,-85471.02,-50433.03,-12651.885,-17915.715,6563.5199999999995,-63904.365,-1.6412927464692777,-2.355766422942858,-1.404522660827181,8.869154636803982,3.88256377219436,-3.5689706295045904,-5.0410477269801115,-4.543835298440773,-0.146484,-0.98901114,0.2233881,3.0977799999999998,2.9604399999999997,-8.36248,70.0
1774822720.7972417,0.004168987274169922,2026-03-29T22:18:40.797,2026-03-29T18:18:40.797,-34044.255,-46260.134999999995,-85442.44499999999,-50433.345,-12658.05,-17917.245,6576.75,-63899.145,-5.065159235856818,-5.406822901140094,-7.30437263291606,9.203316860855992,6.440685501414827,-1.9866560645561295,-2.377297197213292,-6.819934707056847,-0.146484,-0.98901114,0.2233881,3.0977799999999998,2.9604399999999997,-8.36248,70.0
1774822720.7972631,2.1457672119140625e-05,2026-03-29T22:18:40.797,2026-03-29T18:18:40.797,-34030.44,-46267.604999999996,-85452.345,-50449.275,-12674.34,-17910.719999999998,6594.66,-63890.595,-6.135729752471438,-5.5333913589448676,-9.311201148904663,6.472263607333254,6.740440998379596,0.6618227071685646,1.3163119563368262,-6.072495837684638,-0.146484,-0.98901114,0.2233881,3.0977799999999998,2.9604399999999997,-8.36248,70.0
1774822720.8010511,0.003787994384765625,2026-03-29T22:18:40.801,2026-03-29T18:18:40.801,-34047.9,-46294.29,-85461.705,-50453.775,-12663.539999999999,-17891.145,6616.035,-63890.954999999994,-4.62487312410374,-3.196287003612852,-7.042505814163476,1.9734865094061158,4.736592865675839,3.243380891403176,4.294532039258661,-2.8558483192001427,-0.14990196,-0.9845555850000001,0.22351017,0.09156,0.8392999999999999,-5.2646999999999995,70.0
1774822720.801072,2.0742416381835938e-05,2026-03-29T22:18:40.801,2026-03-29T18:18:40.801,-34054.244999999995,-46312.695,-85484.655,-50500.89,-12654.494999999999,-17890.245,6620.219999999999,-63877.814999999995,-1.3910874168917007,0.03750654236745854,-2.0935536061291224,-2.7119047612872276,1.0871229859095044,4.541123139308958,5.190385185471862,1.2795617253255522,-0.14990196,-0.9845555850000001,0.22351017,0.09156,0.8392999999999999,-5.2646999999999995,70.0
1774822720.808686,0.0076141357421875,2026-03-29T22:18:40.808,2026-03-29T18:18:40.808,-34031.97,-46283.4,-85454.64,-50482.755,-12675.105,-17918.684999999998,6608.655,-63852.884999999995,2.102003023305115,2.4504080073654384,2.953596600178905,-6.254022507153102,-3.046142404527676,3.8262379578590564,3.6554893655222123,4.546644399846431,-0.14990196,-0.9845555850000001,0.22351017,0.09156,0.8392999999999999,-5.2646999999999995,70.0
1774822720.8087285,4.2438507080078125e-05,2026-03-29T22:18:40.808,2026-03-29T18:18:40.808,-34024.68,-46249.784999999996,-85417.605,-50413.095,-12680.414999999999,-17936.145,6597.36,-63852.57,4.456755436831584,3.0771376173632605,5.863955001502022,-7.834725270047041,-6.307345656934987,1.2560268294669583,0.49797307181624084,5.700896053315009,-0.14990196,-0.9845555850000001,0.22351017,0.09156,0.8392999999999999,-5.2646999999999995,70.0
1774822720.813782,0.005053520202636719,2026-03-29T22:18:40.813,2026-03-29T18:18:40.813,-34025.13,-46261.665,-85454.81999999999,-50441.58,-12698.55,-17937.899999999998,6595.11,-63852.84,4.890339426369393,2.0842335457153442,5.743227925134674,-7.164989885726573,-7.522715611409715,-2.114305385064153,-2.738210758086685,4.495964586442713,-0.14990196,-0.9845555850000001,0.22351017,0.09156,0.8392999999999999,-5.2646999999999995,70.0
1774822720.8137984,1.6450881958007812e-05,2026-03-29T22:18:40.813,2026-03-29T18:18:40.813,-34020.9,-46268.729999999996,-85479.705,-50476.365,-12691.439999999999,-17924.04,6600.105,-63852.299999999996,3.4520242260601592,0.48136545980301,3.2491201350188987,-4.411891022952032,-6.083637164424653,-4.752556459314212,-4.535121888732133,1.659645317708302,-0.14990196,-0.9845555850000001,0.22351017,0.09156,0.8392999999999999,-5.2646999999999995,70.0
1774822720.813815,1.6689300537109375e-05,2026-03-29T22:18:40.813,2026-03-29T18:18:40.813,-34016.895,-46279.305,-85502.43,-50511.915,-12692.43,-17928.36,6598.08,-63841.229999999996,0.8782773415367929,-0.6020914861486678,0.015320868798796086,-0.16632466861099374,-2.236615705182115,-5.3424150127876455,-4.124674623346067,-1.5313392889248996,-0.14990196,-0.9845555850000001,0.22351017,0.09156,0.8392999999999999,-5.2646999999999995,70.0
1774822720.813825,9.775161743164062e-06,2026-03-29T22:18:40.813,2026-03-29T18:18:40.813,-34026.03,-46281.015,-85484.43,-50498.685,-12696.48,-17938.079999999998,6596.82,-63853.29,-1.7865155190754736,-0.6194796703011514,-2.3210159178601333,4.5459434233714555,2.8519438603228364,-3.4375172395508096,-1.8238617779135244,-3.8346528882563766,-0.14990196,-0.9845555850000001,0.22351017,0.09156,0.8392999999999999,-5.2646999999999995,70.0
1774822720.8168292,0.003004312515258789,2026-03-29T22:18:40.816,2026-03-29T18:18:40.816,-34043.985,-46295.325,-85472.055,-50453.415,-12681.27,-17944.065,6585.884999999999,-63876.329999999994,-3.6072879644026714,0.12095239707121608,-2.940206259582586,8.334832150287378,7.362902239670995,0.2464335452831167,1.1684056932266553,-4.512795947213041,-0.14990196,-0.9845555850000001,0.22351017,0.09156,0.8392999999999999,-5.2646999999999995,70.0
1774822720.8168447,1.5497207641601562e-05,2026-03-29T22:18:40.816,2026-03-29T18:18:40.816,-34079.22,-46310.805,-85480.56,-50426.64,-12642.3,-17907.704999999998,6597.764999999999,-63914.49,-4.050693287283135,0.7476768342752862,-2.102198707385949,9.74157653342706,9.422351091568714,4.0784351001812675,3.3931467972758678,-3.5200017733531963,-0.14990196,-0.9845555850000001,0.22351017,0.09156,0.8392999999999999,-5.2646999999999995,70.0
1774822720.8209512,0.0041065216064453125,2026-03-29T22:18:40.820,2026-03-29T18:18:40.820,-34058.295,-46297.845,-85469.625,-50452.335,-12666.824999999999,-17919.495,6605.6849999999995,-63894.329999999994,-3.084686019111107,0.4747456518101337,-0.7832248878786061,7.777193130552235,7.866149126228719,6.226560707103221,3.8500427971357216,-1.392755531432405,-0.14831505,-0.98119866,0.22546329,0.57988,1.32762,-4.1202,70.0
1774822720.8209686,1.7404556274414062e-05,2026-03-29T22:18:40.820,2026-03-29T18:18:40.820,-34040.34,-46273.95,-85420.845,-50429.43,-12686.895,-17935.559999999998,6600.0599999999995,-63884.744999999995,-1.1106785447024314,-0.8081595897010623,0.03493864545167615,2.5180070159889607,2.8671168220527705,5.531618250205146,2.4555791515757743,1.0407200735831097,-0.14831505,-0.98119866,0.22546329,0.57988,1.32762,-4.1202,70.0
1774822720.824803,0.0038344860076904297,2026-03-29T22:18:40.824,2026-03-29T18:18:40.824,-34050.825,-46291.545,-85464.72,-50469.57,-12685.635,-17916.885,6600.735,-63884.7,1.2000145970947411,-2.3820540438425755,-0.020461234705415946,-4.5746301391550634,-3.9026156814788924,2.125080092998711,0.02682649679440137,2.9743088369740507,-0.14831505,-0.98119866,0.22546329,0.57988,1.32762,-4.1202,70.0
1774822720.8248181,1.5020370483398438e-05,2026-03-29T22:18:40.824,2026-03-29T18:18:40.824,-34052.94,-46303.064999999995,-85497.03,-50491.575,-12702.105,-17925.614999999998,6584.3099999999995,-63883.575,3.100612354710684,-3.096900026580425,-0.547382848708482,-10.912006316952512,-9.757915962232152,-2.5343860755232717,-2.1776319124334864,3.8468825825437656,-0.14831505,-0.98119866,0.22546329,0.57988,1.32762,-4.1202,70.0
1774822720.8288596,0.004041433334350586,2026-03-29T22:18:40.828,2026-03-29T18:18:40.828,-34056.09,-46281.42,-85478.175,-50514.119999999995,-12703.545,-17928.45,6585.255,-63904.32,3.9608760600832977,-2.1026694588019716,-0.7219900813620934,-13.676216305248058,-12.041280752282209,-6.27228144584126,-3.1081635393104996,3.442379731833158,-0.14831505,-0.98119866,0.22546329,0.57988,1.32762,-4.1202,70.0
1774822720.8288736,1.4066696166992188e-05,2026-03-29T22:18:40.828,2026-03-29T18:18:40.828,-34039.979999999996,-46263.465,-85456.395,-50526.045,-12690.855,-17921.204999999998,6592.455,-63892.979999999996,3.442274494069099,0.5204579679815179,0.06897116230345421,-11.073737432052042,-9.328665754865447,-7.2089153521067235,-2.430090671858473,1.8981706044490523,-0.14831505,-0.98119866,0.22546329,0.57988,1.32762,-4.1202,70.0
1774822720.8327675,0.0038938522338867188,2026-03-29T22:18:40.832,2026-03-29T18:18:40.832,-34033.005,-46265.58,-85442.895,-50473.665,-12675.689999999999,-17902.53,6604.83,-63878.67,1.630781665192593,3.6338532255622313,1.7187759219697725,-3.385688637740881,-2.25367020009742,-4.702163642126091,-0.6384477062315034,-0.3366733909559469,-0.14831505,-0.98119866,0.22546329,0.57988,1.32762,-4.1202,70.0
1774822720.8327787,1.1205673217773438e-05,2026-03-29T22:18:40.832,2026-03-29T18:18:40.832,-34024.77,-46266.165,-85445.28,-50452.92,-12661.785,-17887.59,6605.639999999999,-63872.145,-0.9244739489593686,5.545790986442065,3.3450069141787586,6.767734780589644,6.506772573401162,0.24897740182254643,1.2545810393132817,-2.583214015368905,-0.14831505,-0.98119866,0.22546329,0.57988,1.32762,-4.1202,70.0
1774822720.83681,0.00403141975402832,2026-03-29T22:18:40.836,2026-03-29T18:18:40.836,-34039.44,-46280.79,-85462.065,-50461.424999999996,-12669.119999999999,-17905.995,6604.065,-63879.615,-3.3247419941636234,4.919919194106595,3.7539388896101245,15.242073507056272,13.205679256197447,5.380783924057283,2.275589087685999,-4.076965878525434,-0.14831505,-0.98119866,0.22546329,0.57988,1.32762,-4.1202,70.0
1774822720.8368278,1.7642974853515625e-05,2026-03-29T22:18:40.836,2026-03-29T18:18:40.836,-34058.655,-46296.225,-85483.8,-50456.159999999996,-12671.73,-17920.305,6589.3949999999995,-63896.399999999994,-4.604119521322817,1.602673047164585,2.1818971015370434,18.055828735905553,14.627771799239685,8.19258543399953,1.9893124497505827,-4.190025016259194,-0.14831505,-0.98119866,0.22546329,0.57988,1.32762,-4.1202,70.0
1774822720.8471324,0.010304689407348633,2026-03-29T22:18:40.847,2026-03-29T18:18:40.847,-34054.92,-46286.729999999996,-85474.215,-50426.685,-12647.609999999999,-17908.605,6567.57,-63903.195,-4.114089654249288,-3.1114187260764345,-1.1115784514448332,13.265073137897833,9.636085581203302,7.163362311303547,0.6854842777214734,-2.6920686520000094,-0.14819298,-0.978452085,0.221007735,4.21176,1.11398,-3.02148,70.0
1774822720.847152,1.9550323486328125e-05,2026-03-29T22:18:40.847,2026-03-29T18:18:40.847,-34051.095,-46302.84,-85495.23,-50418.09,-12643.92,-17905.815,6575.759999999999,-63897.75,-1.8595449977608423,-6.985092834146327,-4.772989169785655,2.139585860795691,-0.08247846453203377,2.5663933928801135,-0.8276020668229388,0.056305776420993714,-0.14819298,-0.978452085,0.221007735,4.21176,1.11398,-3.02148,70.0
1774822720.8471708,1.8835067749023438e-05,2026-03-29T22:18:40.847,2026-03-29T18:18:40.847,-34050.06,-46360.305,-85567.545,-50461.064999999995,-12662.82,-17903.52,6600.195,-63879.93,1.3905034914478236,-7.915742051556261,-6.9154367381351065,-11.025519923641118,-10.520102486026408,-3.550821135762049,-1.6933003171174246,3.1097612613477934,-0.14819298,-0.978452085,0.221007735,4.21176,1.11398,-3.02148,70.0
1774822720.8471773,6.4373016357421875e-06,2026-03-29T22:18:40.847,2026-03-29T18:18:40.847,-34040.205,-46372.049999999996,-85557.06,-50487.57,-12686.58,-17921.295,6604.92,-63864.765,4.326554192203351,-5.058460106357658,-6.074277947364679,-20.545817079639896,-16.99275141537148,-8.267797270494986,-1.4770134449415335,5.219271915813353,-0.14819298,-0.978452085,0.221007735,4.21176,1.11398,-3.02148,70.0
1774822720.8517556,0.004578351974487305,2026-03-29T22:18:40.851,2026-03-29T18:18:40.851,-34030.395,-46349.145,-85524.48,-50501.564999999995,-12738.195,-17965.26,6609.105,-63849.104999999996,5.617656081108187,0.5986205676235224,-2.079076166972115,-21.819314596999373,-16.256808150876797,-9.182838417041104,-0.38351167685017223,5.333644896056187,-0.14819298,-0.978452085,0.221007735,4.21176,1.11398,-3.02148,70.0
1774822720.8517861,3.0517578125e-05,2026-03-29T22:18:40.851,2026-03-29T18:18:40.851,-34062.03,-46308.33,-85536.58499999999,-50505.165,-12711.734999999999,-17959.184999999998,6591.554999999999,-63873.854999999996,4.525113974569812,6.555829374235952,3.6411983776230046,-13.549995218923009,-8.134334596946633,-5.633399203473689,0.8872313897751248,3.1255945522989816,-0.14819298,-0.978452085,0.221007735,4.21176,1.11398,-3.02148,70.0
1774822720.8518133,2.7179718017578125e-05,2026-03-29T22:18:40.851,2026-03-29T18:18:40.851,-34040.88,-46271.205,-85533.39,-50490.854999999996,-12691.529999999999,-17949.015,6587.235,-63873.314999999995,1.3230341305624105,9.925970047806343,8.551068834885927,1.3527752862872797,4.16831826393655,0.8741693462477753,1.5552455921728559,-0.7217226571230405,-0.14819298,-0.978452085,0.221007735,4.21176,1.11398,-3.02148,70.0
1774822720.8518243,1.0967254638671875e-05,2026-03-29T22:18:40.851,2026-03-29T18:18:40.851,-34027.155,-46272.104999999996,-85527.45,-50497.335,-12701.789999999999,-17940.645,6577.605,-63874.439999999995,-2.711934756153425,8.845314358483524,10.137153632581585,16.744755298316033,15.306056241862528,7.288129501546696,1.211000040530779,-4.667072681216515,-0.14819298,-0.978452085,0.221007735,4.21176,1.11398,-3.02148,70.0
1774822720.8594525,0.007628202438354492,2026-03-29T22:18:40.859,2026-03-29T18:18:40.859,-34048.17,-46286.235,-85517.145,-50491.89,-12686.58,-17915.489999999998,6590.835,-63892.395,-5.795889977578438,3.476416980718955,7.16692299214819,25.79308799144896,20.13292296708187,10.439457740285151,0.050223204639873745,-6.911612506562012,-0.14819298,-0.978452085,0.221007735,4.21176,1.11398,-3.02148,70.0
1774822720.8594823,2.9802322387695312e-05,2026-03-29T22:18:40.859,2026-03-29T18:18:40.859,-34036.515,-46264.814999999995,-85479.705,-50503.32,-12696.93,-17927.594999999998,6592.094999999999,-63879.255,-6.433728393818998,-3.926884231013381,0.4572533383260886,24.035903271428047,16.10263120706058,8.607919137763101,-1.236318125239838,-6.223183755965372,-0.14819298,-0.978452085,0.221007735,4.21176,1.11398,-3.02148,70.0
1774822720.8595092,2.6941299438476562e-05,2026-03-29T22:18:40.859,2026-03-29T18:18:40.859,-34057.485,-46264.14,-85455.72,-50519.61,-12683.835,-17908.2,6608.25,-63894.509999999995,-4.1571137197295105,-9.98030290083499,-7.280489784499158,11.571720708286055,4.60084799747964,2.451670529707632,-1.8565731622206236,-2.60476976566055,-0.152892675,-0.985288005,0.22387638,7.98098,2.24322,-3.44876,70.0
1774822720.8595214,1.2159347534179688e-05,2026-03-29T22:18:40.859,2026-03-29T18:18:40.859,-34048.44,-46255.545,-85411.62,-50505.075,-12684.015,-17899.29,6628.634999999999,-63884.7,0.16551609187318408,-11.737729034176292,-12.534923794511895,-6.6936323006965965,-9.484883808388133,-5.198581191720924,-1.3761311377239782,2.55212884200603,-0.152892675,-0.985288005,0.22387638,7.98098,2.24322,-3.44876,70.0
1774822720.8648612,0.005339860916137695,2026-03-29T22:18:40.864,2026-03-29T18:18:40.864,-34026.03,-46238.985,-85369.095,-50443.2,-12684.869999999999,-17909.774999999998,6612.84,-63868.5,4.640024176327905,-8.130108192259096,-12.586507900020592,-22.97830837923956,-19.853938913196256,-10.637758988225901,0.014023287572832485,6.976388719088461,-0.152892675,-0.985288005,0.22387638,7.98098,2.24322,-3.44876,70.0
1774822720.8648927,3.147125244140625e-05,2026-03-29T22:18:40.864,2026-03-29T18:18:40.864,-34011.405,-46231.695,-85378.5,-50425.56,-12677.939999999999,-17912.024999999998,6611.355,-63860.445,7.179464571049963,-0.5693538434878995,-6.875650958545756,-29.972663285694203,-21.642408926670665,-11.08383477639086,1.5754504368851334,8.517720332813155,-0.152892675,-0.985288005,0.22387638,7.98098,2.24322,-3.44876,70.0
1774822720.86896,0.004067182540893555,2026-03-29T22:18:40.868,2026-03-29T18:18:40.868,-34015.005,-46245.015,-85420.98,-50456.475,-12687.615,-17930.969999999998,6617.16,-63859.229999999996,6.490985228851093,7.6087792458266135,2.5266459645055,-24.147014421812397,-13.729926291049258,-6.100863351078997,2.412889093621664,6.197798671427368,-0.152892675,-0.985288005,0.22387638,7.98098,2.24322,-3.44876,70.0
1774822720.8689852,2.5272369384765625e-05,2026-03-29T22:18:40.868,2026-03-29T18:18:40.868,-34033.95,-46264.68,-85447.395,-50472.45,-12691.529999999999,-17939.745,6601.5,-63878.265,2.743686245698066,12.639066810110569,11.645891665363976,-7.5081561973327515,0.6030784476759411,2.081116658640473,1.9717139197157985,0.7953968907164495,-0.152892675,-0.985288005,0.22387638,7.98098,2.24322,-3.44876,70.0
1774822720.8743281,0.005342960357666016,2026-03-29T22:18:40.874,2026-03-29T18:18:40.874,-34038.225,-46270.08,-85455.36,-50492.97,-12696.795,-17924.085,6605.594999999999,-63882.494999999995,-2.4311436094515386,12.077537076794192,16.28545636511423,13.062432307066835,15.040004483505346,9.559320612071973,0.37163009254975,-5.371626673649027,-0.152892675,-0.985288005,0.22387638,7.98098,2.24322,-3.44876,70.0
1774822720.8743443,1.621246337890625e-05,2026-03-29T22:18:40.874,2026-03-29T18:18:40.874,-34043.04,-46283.625,-85471.785,-50472.99,-12713.49,-17938.35,6597.045,-63884.43,-6.648279188345403,5.986474012663489,13.950507659860778,28.685724643398324,23.0458642193906,12.625727187074036,-1.6137300985537664,-9.435689390282612,-0.152892675,-0.985288005,0.22387638,7.98098,2.24322,-3.44876,70.0
1774822720.876703,0.002358675003051758,2026-03-29T22:18:40.876,2026-03-29T18:18:40.876,-34036.29,-46304.505,-85526.955,-50478.705,-12731.625,-17961.39,6590.61,-63868.68,-7.878513012415474,-3.0198181618844884,5.1358745228536575,32.35850797354723,20.865310148837185,9.612632556350315,-2.936407975875234,-9.320440108277054,-0.152892675,-0.985288005,0.22387638,7.98098,2.24322,-3.44876,70.0
1774822720.8767176,1.4543533325195312e-05,2026-03-29T22:18:40.876,2026-03-29T18:18:40.876,-34022.295,-46299.42,-85527.855,-50477.715,-12707.595,-17943.66,6582.554999999999,-63856.305,-5.438512665469915,-10.916399475562285,-6.668310279934449,22.11244352353294,9.306126062308623,1.793829018767743,-2.824379792367723,-4.802372178848899,-0.152892675,-0.985288005,0.22387638,7.98098,2.24322,-3.44876,70.0
1774822720.8809097,0.0041921138763427734,2026-03-29T22:18:40.880,2026-03-29T18:18:40.880,-34039.53,-46308.33,-85527.62999999999,-50488.47,-12709.125,-17942.805,6571.8,-63885.915,-0.37171598185522814,-14.087698665867844,-16.349611178765812,2.0226637156047733,-6.550345577545868,-7.144202388979484,-1.2148716420206913,2.2502292652688256,-0.15161094,-0.98583732,0.22155705,5.20366,1.84646,-1.46496,70.0
1774822720.8809252,1.5497207641601562e-05,2026-03-29T22:18:40.880,2026-03-29T18:18:40.880,-34053.165,-46307.34,-85538.87999999999,-50559.39,-12752.64,-17971.245,6583.365,-63905.67,4.991555160969534,-10.993017216412392,-19.389625987142388,-19.43699119441442,-19.615021476429217,-12.848405754563231,1.1662228592972483,8.638339057041966,-0.15161094,-0.98583732,0.22155705,5.20366,1.84646,-1.46496,70.0
1774822720.88724,0.006314754486083984,2026-03-29T22:18:40.887,2026-03-29T18:18:40.887,-34038.405,-46295.505,-85536.98999999999,-50594.49,-12749.805,-17975.204999999998,6592.32,-63886.77,8.112337607686952,-2.905977958944733,-13.962596094475758,-33.015113748413704,-24.00833946140971,-12.432484979108748,3.137905381018352,11.289423962435537,-0.15161094,-0.98583732,0.22155705,5.20366,1.84646,-1.46496,70.0
1774822720.887257,1.71661376953125e-05,2026-03-29T22:18:40.887,2026-03-29T18:18:40.887,-34021.665,-46260.54,-85457.025,-50511.825,-12707.279999999999,-17935.335,6596.82,-63876.329999999994,7.457126397064962,6.622827095680712,-1.9457788355295003,-32.70887947624404,-17.74602291135597,-5.945614135646531,3.654509908329819,8.743738629017026,-0.15161094,-0.98583732,0.22155705,5.20366,1.84646,-1.46496,70.0
1774822720.887276,1.8835067749023438e-05,2026-03-29T22:18:40.887,2026-03-29T18:18:40.887,-34023.195,-46246.77,-85409.45999999999,-50457.465,-12677.58,-17897.67,6612.66,-63870.884999999995,3.261384188250773,13.345589310751784,11.691515343224316,-18.423267716549038,-3.6464797461505847,3.5755256188913283,2.356046188095213,1.9463808594153242,-0.15161094,-0.98583732,0.22155705,5.20366,1.84646,-1.46496,70.0
1774822720.887286,1.0013580322265625e-05,2026-03-29T22:18:40.887,2026-03-29T18:18:40.887,-34038.765,-46271.655,-85439.83499999999,-50457.645,-12685.185,-17919.315,6610.1849999999995,-63868.545,-2.5418364788779475,14.226398401063452,20.94321612402503,3.919165267208603,11.962247426758243,11.536112974862311,-0.20935360043395335,-6.0802524745566755,-0.15161094,-0.98583732,0.22155705,5.20366,1.84646,-1.46496,70.0
1774822720.8926508,0.005364894866943359,2026-03-29T22:18:40.892,2026-03-29T18:18:40.892,-34056.315,-46297.439999999995,-85461.84,-50420.43,-12670.335,-17935.469999999998,6607.035,-63876.015,-7.215160832430685,8.814766664745004,21.41698569550052,24.882202178043308,22.13277290112779,14.018766736512026,-2.819830095931987,-11.584276119887202,-0.15161094,-0.98583732,0.22155705,5.20366,1.84646,-1.46496,70.0
1774822720.8926759,2.5033950805664062e-05,2026-03-29T22:18:40.892,2026-03-29T18:18:40.892,-34086.645,-46311.84,-85467.555,-50383.665,-12638.744999999999,-17912.34,6598.304999999999,-63910.665,-8.517363246239286,-0.5383950485582453,12.408305254725834,35.5501617266571,22.4426419610941,9.729670979905638,-4.169257437917939,-11.849231199121519,-0.15161094,-0.98583732,0.22155705,5.20366,1.84646,-1.46496,70.0
1774822720.897074,0.0043981075286865234,2026-03-29T22:18:40.897,2026-03-29T18:18:40.897,-34068.735,-46318.005,-85484.47499999999,-50363.189999999995,-12633.119999999999,-17902.665,6577.469999999999,-63898.604999999996,-5.788372772870012,-9.719809163905454,-2.57756997037229,31.34233953873448,12.943991349842117,0.679516328207692,-3.52424334331765,-6.540120017094244,-0.15161094,-0.98583732,0.22155705,5.20366,1.84646,-1.46496,70.0
1774822720.8971024,2.8371810913085938e-05,2026-03-29T22:18:40.897,2026-03-29T18:18:40.897,-34046.955,-46316.744999999995,-85518.045,-50405.715,-12670.244999999999,-17912.25,6591.735,-63879.884999999995,-0.2887819904711598,-14.679865010022464,-17.177835347792104,13.96305006633192,-1.9556665548499068,-8.76313665790475,-1.1169407753356704,2.039391304356664,-0.15161094,-0.98583732,0.22155705,5.20366,1.84646,-1.46496,70.0
1774822720.9036205,0.006518125534057617,2026-03-29T22:18:40.903,2026-03-29T18:18:40.903,-34029.0,-46307.52,-85547.655,-50510.97,-12721.455,-17925.434999999998,6603.929999999999,-63863.729999999996,5.382392874245027,-13.227255530497011,-24.884031630110215,-9.33591288886579,-15.581522772735887,-14.000181054354751,1.934343797915882,9.947521548371407,-0.144469845,-0.9856542150000001,0.22137394500000002,6.302379999999999,-3.4640199999999997,0.8392999999999999,70.0
1774822720.9036365,1.5974044799804688e-05,2026-03-29T22:18:40.903,2026-03-29T18:18:40.903,-34031.295,-46304.729999999996,-85545.22499999999,-50565.689999999995,-12772.035,-17944.515,6598.755,-63863.28,8.522203079303978,-5.993662805479551,-21.953850781731767,-28.837516301854386,-22.040984276469157,-12.469154318328972,4.15189118602091,13.427700479492318,-0.144469845,-0.9856542150000001,0.22137394500000002,6.302379999999999,-3.4640199999999997,0.8392999999999999,70.0
1774822720.90365,1.3589859008789062e-05,2026-03-29T22:18:40.903,2026-03-29T18:18:40.903,-34059.104999999996,-46317.42,-85560.345,-50481.314999999995,-12721.814999999999,-17928.719999999998,6595.065,-63878.49,7.620556492194118,3.8538026985000924,-9.215038245887706,-36.447412957501086,-18.813316447659627,-4.917592693332508,4.4213902785638926,10.705047783371112,-0.144469845,-0.9856542150000001,0.22137394500000002,6.302379999999999,-3.4640199999999997,0.8392999999999999,70.0
1774822720.9036548,4.76837158203125e-06,2026-03-29T22:18:40.903,2026-03-29T18:18:40.903,-34042.545,-46311.39,-85566.015,-50491.08,-12683.475,-17903.34,6608.025,-63862.02,3.092802918427945,12.015189453759913,8.104724103401656,-29.048567562303607,-7.719676444702296,4.957386266900509,2.55437676298766,2.8907080470635393,-0.144469845,-0.9856542150000001,0.22137394500000002,6.302379999999999,-3.4640199999999997,0.8392999999999999,70.0
1774822720.9107287,0.007073879241943359,2026-03-29T22:18:40.910,2026-03-29T18:18:40.910,-34034.94,-46284.255,-85512.06,-50541.299999999996,-12662.234999999999,-17893.62,6612.929999999999,-63849.869999999995,-2.9100965809132138,14.946962294470161,22.531035329071084,-9.733617502431501,6.094181976601058,12.334207750150663,-0.5944346738948018,-6.467065562596666,-0.144469845,-0.9856542150000001,0.22137394500000002,6.302379999999999,-3.4640199999999997,0.8392999999999999,70.0
1774822720.9107628,3.409385681152344e-05,2026-03-29T22:18:40.910,2026-03-29T18:18:40.910,-34037.145,-46249.02,-85438.34999999999,-50559.165,-12689.279999999999,-17904.87,6609.735,-63858.78,-7.527357689360813,11.403132735417309,27.58957436376011,13.548972928502312,16.60091917581179,13.650380242695698,-3.523528153542662,-13.006479401619929,-0.144469845,-0.9856542150000001,0.22137394500000002,6.302379999999999,-3.4640199999999997,0.8392999999999999,70.0
1774822720.9211383,0.010375499725341797,2026-03-29T22:18:40.921,2026-03-29T18:18:40.921,-34026.615,-46237.455,-85397.625,-50542.064999999995,-12699.72,-17911.575,6617.025,-63854.055,-8.558431942069715,2.957669608680581,20.72635213286025,31.312139232727766,19.575866637161003,8.35371848053457,-4.8085896276050875,-13.60150890943008,-0.144469845,-0.9856542150000001,0.22137394500000002,6.302379999999999,-3.4640199999999997,0.8392999999999999,70.0
1774822720.921162,2.3603439331054688e-05,2026-03-29T22:18:40.921,2026-03-29T18:18:40.921,-34017.84,-46228.59,-85347.54,-50432.4,-12676.095,-17910.989999999998,6614.505,-63844.424999999996,-5.517551950496037,-6.706751799497775,4.576199595143519,36.40151963107492,14.299987921114838,-0.8538732005901861,-3.8017136140746266,-7.866067701573109,-0.144469845,-0.9856542150000001,0.22137394500000002,6.302379999999999,-3.4640199999999997,0.8392999999999999,70.0
1774822720.9245205,0.003358602523803711,2026-03-29T22:18:40.924,2026-03-29T18:18:40.924,-34004.295,-46228.59,-85367.16,-50406.299999999996,-12661.289999999999,-17904.69,6612.075,-63829.439999999995,0.13547819659580876,-13.416918234193751,-14.045174521850482,26.836805559859584,3.590928009317429,-9.395786762941475,-0.9599463327749546,1.6159288920033419,-0.144469845,-0.9856542150000001,0.22137394500000002,6.302379999999999,-3.4640199999999997,0.8392999999999999,70.0
1774822720.92454,1.9550323486328125e-05,2026-03-29T22:18:40.924,2026-03-29T18:18:40.924,-34009.29,-46249.965,-85417.33499999999,-50436.854999999996,-12662.595,-17899.785,6613.2,-63824.625,5.698612785277726,-14.31811015822648,-27.04290057112064,6.515445234372426,-7.713332919903481,-13.120010288963869,2.364064607644977,10.465745233203544,-0.144469845,-0.9856542150000001,0.22137394500000002,6.302379999999999,-3.4640199999999997,0.8392999999999999,70.0
1774822720.9245577,1.7642974853515625e-05,2026-03-29T22:18:40.924,2026-03-29T18:18:40.924,-34027.875,-46271.295,-85444.73999999999,-50457.284999999996,-12678.029999999999,-17913.96,6600.195,-63841.68,8.524516545828138,-9.087429728558185,-28.591483801667522,-16.431735726329112,-15.00040350828972,-10.353671375387066,4.572609775579065,14.550698984769799,-0.140807745,-0.9856542150000001,0.210143505,4.63904,-1.4802199999999999,1.84646,70.0
1774822720.9245636,5.9604644775390625e-06,2026-03-29T22:18:40.924,2026-03-29T18:18:40.924,-34040.97,-46287.225,-85475.11499999999,-50488.74,-12696.975,-17928.719999999998,6586.695,-63856.619999999995,7.285595412344765,-0.03695988349283405,-17.759916344723393,-32.909481832644985,-15.788520966085798,-2.6803137557947725,4.599030895956025,11.930522110352495,-0.140807745,-0.9856542150000001,0.210143505,4.63904,-1.4802199999999999,1.84646,70.0
1774822720.9245706,6.9141387939453125e-06,2026-03-29T22:18:40.924,2026-03-29T18:18:40.924,-34039.395,-46278.36,-85469.67,-50491.799999999996,-12695.13,-17920.44,6596.37,-63857.204999999994,2.599833079266733,8.918429076148133,0.9781165840225338,-36.4272659114316,-10.490256816588698,5.93475151030231,2.4291032912729227,3.784366513994999,-0.140807745,-0.9856542150000001,0.210143505,4.63904,-1.4802199999999999,1.84646,70.0
1774822720.924576,5.4836273193359375e-06,2026-03-29T22:18:40.924,2026-03-29T18:18:40.924,-34038.765,-46272.375,-85457.385,-50488.965,-12707.505,-17931.465,6584.849999999999,-63864.314999999995,-3.278654205823536,13.96380404885339,19.61597535414416,-25.586152073493135,-1.8485269735747976,11.200546626589231,-0.8896694131559989,-6.1276003901868075,-0.140807745,-0.9856542150000001,0.210143505,4.63904,-1.4802199999999999,1.84646,70.0
1774822720.929402,0.004826068878173828,2026-03-29T22:18:40.929,2026-03-29T18:18:40.929,-34046.955,-46281.6,-85466.43,-50466.735,-12697.785,-17933.04,6573.96,-63874.485,-7.548691644542532,13.013400925740592,30.073665736178352,-4.569003660883483,6.514023002743583,10.670252283604574,-3.7572650852067455,-13.218946780212363,-0.140807745,-0.9856542150000001,0.210143505,4.63904,-1.4802199999999999,1.84646,70.0
1774822720.9294229,2.0742416381835938e-05,2026-03-29T22:18:40.929,2026-03-29T18:18:40.929,-34044.705,-46274.67,-85460.31,-50440.86,-12683.16,-17924.805,6578.415,-63878.265,-8.202066547927496,6.5693788795936126,27.731837270586563,18.497902242995277,11.655341582256016,4.914418993913545,-4.799982538302963,-14.220444673817308,-0.140807745,-0.9856542150000001,0.210143505,4.63904,-1.4802199999999999,1.84646,70.0
1774822720.9335673,0.004144430160522461,2026-03-29T22:18:40.933,2026-03-29T18:18:40.933,-34030.665,-46275.299999999996,-85501.62,-50558.445,-12762.765,-17969.489999999998,6603.57,-63856.619999999995,-4.970714654183264,-2.541497405117512,13.478363727601685,34.65411141414156,12.290048159476314,-2.881983703417482,-3.5368711712971157,-8.700399350573196,-0.140807745,-0.9856542150000001,0.210143505,4.63904,-1.4802199999999999,1.84646,70.0
1774822720.9336035,3.62396240234375e-05,2026-03-29T22:18:40.933,2026-03-29T18:18:40.933,-34014.24,-46271.97,-85500.315,-50584.994999999995,-12782.564999999999,-17994.015,6605.099999999999,-63831.465,0.5671434914043938,-10.416596808475443,-6.644135464389321,37.511357118730956,8.889961463260367,-8.653456639274578,-0.6070496717485124,0.7518177611901657,-0.140807745,-0.9856542150000001,0.210143505,4.63904,-1.4802199999999999,1.84646,70.0
1774822720.9519975,0.018393993377685547,2026-03-29T22:18:40.951,2026-03-29T18:18:40.951,-34029.72,-46301.13,-85508.81999999999,-50496.705,-12712.949999999999,-17965.44,6589.3949999999995,-63828.225,5.76174452022917,-13.75677527815982,-24.041932736955435,25.702694723521336,3.0883965358620413,-9.586726288679174,2.5519745052222533,9.756214153851365,-0.140807745,-0.9856542150000001,0.210143505,4.63904,-1.4802199999999999,1.84646,70.0
1774822720.9520204,2.288818359375e-05,2026-03-29T22:18:40.952,2026-03-29T18:18:40.952,-34055.82,-46310.715,-85491.855,-50439.915,-12662.279999999999,-17952.704999999998,6577.38,-63848.295,8.16524343819404,-11.25091569175669,-31.283181725757956,3.4786875300214484,-3.149186038654732,-5.529547721901857,4.413907965133444,14.195110505767717,-0.140807745,-0.9856542150000001,0.210143505,4.63904,-1.4802199999999999,1.84646,70.0
1774822720.9520383,1.7881393432617188e-05,2026-03-29T22:18:40.952,2026-03-29T18:18:40.952,-34074.45,-46299.689999999995,-85474.665,-50450.625,-12675.6,-17954.954999999998,6571.304999999999,-63881.505,6.689123596475331,-4.083875291795213,-25.294642621700714,-20.78404399723828,-8.149496710390494,1.045710560999177,4.109416851030119,12.115656634845877,-0.132873195,-0.97033443,0.21289008,5.35626,2.1516599999999997,-3.55558,70.0
1774822720.952047,8.821487426757812e-06,2026-03-29T22:18:40.952,2026-03-29T18:18:40.952,-34050.015,-46289.025,-85479.705,-50486.04,-12700.125,-17926.469999999998,6571.304999999999,-63868.5,2.096274111645889,4.625670258701075,-8.655054096188477,-37.656704162635236,-10.774104418203889,6.46768980470419,1.8403999388997248,4.593545517166465,-0.132873195,-0.97033443,0.21289008,5.35626,2.1516599999999997,-3.55558,70.0
1774822720.9520571,1.0013580322265625e-05,2026-03-29T22:18:40.952,2026-03-29T18:18:40.952,-34026.03,-46261.845,-85434.25499999999,-50416.604999999996,-12626.369999999999,-17849.204999999998,6577.155,-63869.715,-3.3943918441732555,11.190611976555942,11.555039697071164,-40.232127951690465,-10.403983846394688,7.8867423795871225,-1.238239201665094,-4.826659757071883,-0.132873195,-0.97033443,0.21289008,5.35626,2.1516599999999997,-3.55558,70.0
1774822720.9520657,8.58306884765625e-06,2026-03-29T22:18:40.952,2026-03-29T18:18:40.952,-34047.99,-46293.39,-85457.06999999999,-50386.275,-12614.265,-17872.605,6561.2699999999995,-63902.115,-7.185625939977849,12.923243503297076,26.816187362363866,-26.89447515607999,-6.926432841529317,4.79065889135848,-3.604727247044011,-11.822732968807786,-0.132873195,-0.97033443,0.21289008,5.35626,2.1516599999999997,-3.55558,70.0
1774822720.952076,1.0251998901367188e-05,2026-03-29T22:18:40.952,2026-03-29T18:18:40.952,-34068.104999999996,-46350.765,-85515.075,-50348.025,-12600.539999999999,-17905.23,6555.78,-63907.695,-7.535873232210752,9.236216874035708,30.796439660690144,-2.2061036279430097,-0.8814345658121863,-0.7967005239091852,-4.127966635202216,-13.301460291619717,-0.132873195,-0.97033443,0.21289008,5.35626,2.1516599999999997,-3.55558,70.0
1774822720.952084,8.106231689453125e-06,2026-03-29T22:18:40.952,2026-03-29T18:18:40.952,-34053.21,-46385.955,-85597.785,-50338.395,-12619.98,-17931.105,6592.679999999999,-63861.659999999996,-4.36068541304312,1.8254569213504386,21.979644495659322,24.539710597874514,6.328010881707957,-5.521089561407345,-2.617543119054706,-8.778269068330347,-0.132873195,-0.97033443,0.21289008,5.35626,2.1516599999999997,-3.55558,70.0
1774822720.9584,0.006315946578979492,2026-03-29T22:18:40.958,2026-03-29T18:18:40.958,-34046.369999999995,-46389.015,-85655.11499999999,-50416.38,-12651.84,-17934.795,6600.0599999999995,-63831.6,0.768101251371625,-6.113033465541149,4.2032396206708125,42.70618482596174,12.459526851654921,-6.625760560234797,0.10507072721811264,-0.5085385987517735,-0.132873195,-0.97033443,0.21289008,5.35626,2.1516599999999997,-3.55558,70.0
1774822720.9584668,6.67572021484375e-05,2026-03-29T22:18:40.958,2026-03-29T18:18:40.958,-34033.77,-46340.28,-85641.56999999999,-50610.555,-12775.814999999999,-17984.88,6624.179999999999,-63817.02,5.404786784606018,-11.270132244885255,-15.062468668163541,44.46818700400377,14.962880361601892,-3.523756567241519,2.6424212439981423,7.646750124515494,-0.132873195,-0.97033443,0.21289008,5.35626,2.1516599999999997,-3.55558,70.0
1774822720.9887252,0.0302584171295166,2026-03-29T22:18:40.988,2026-03-29T18:18:40.988,-34051.59,-46272.06,-85528.34999999999,-50640.075,-12788.91,-17960.13,6598.485,-63842.67,7.402678909032222,-11.609206912713244,-27.898922938831603,28.153999666956175,12.010850167432244,1.867426763400653,3.7370231162537695,12.04681186188356,-0.132873195,-0.97033443,0.21289008,5.35626,2.1516599999999997,-3.55558,70.0
1774822720.9887452,2.002716064453125e-05,2026-03-29T22:18:40.988,2026-03-29T18:18:40.988,-34004.655,-46200.509999999995,-85418.055,-50615.595,-12759.345,-17932.77,6583.23,-63824.939999999995,5.911933323356836,-7.1676369632326,-29.207698871685572,-0.6384295029911615,3.629499264512688,6.22625444025104,2.9014789415332007,10.914593618260445,-0.132873195,-0.97033443,0.21289008,5.35626,2.1516599999999997,-3.55558,70.0
1774822720.9887624,1.71661376953125e-05,2026-03-29T22:18:40.988,2026-03-29T18:18:40.988,-33994.845,-46191.915,-85364.64,-50513.534999999996,-12735.63,-17945.64,6590.429999999999,-63821.295,1.7365435794339672,0.040018909241385646,-18.706170369367968,-30.805128859296843,-7.71817831534526,6.757757281338646,0.644504976052065,5.047522574575404,-0.13281216,-0.95751708,0.20971626000000002,-1.0834599999999999,-2.31952,-7.67578,70.0
1774822720.988768,5.7220458984375e-06,2026-03-29T22:18:40.988,2026-03-29T18:18:40.988,-34036.02,-46254.869999999995,-85430.34,-50458.185,-12706.244999999999,-17933.805,6613.785,-63838.35,-3.0972236953414676,6.940287899923232,-0.8846047201938384,-49.91768145229419,-17.634458924432227,2.8705832579727586,-1.8161866768382882,-2.685092234591078,-0.13281216,-0.95751708,0.20971626000000002,-1.0834599999999999,-2.31952,-7.67578,70.0
1774822720.9887753,7.152557373046875e-06,2026-03-29T22:18:40.988,2026-03-29T18:18:40.988,-34072.695,-46297.034999999996,-85481.145,-50444.055,-12687.885,-17927.415,6595.605,-63867.735,-6.330566119087834,10.720707812240466,16.964802034825745,-49.30466241382475,-21.434215482492352,-3.367203379701218,-3.199509191832206,-8.759831953058773,-0.13281216,-0.95751708,0.20971626000000002,-1.0834599999999999,-2.31952,-7.67578,70.0
1774822720.9887807,5.4836273193359375e-06,2026-03-29T22:18:40.988,2026-03-29T18:18:40.988,-34080.21,-46319.85,-85538.925,-50495.715,-12698.955,-17941.905,6571.755,-63875.43,-6.533866015340558,9.98087187092703,27.757715245802814,-27.977353985269797,-16.353698350910328,-8.300589776723914,-2.827425475779647,-10.62557026948199,-0.13281216,-0.95751708,0.20971626000000002,-1.0834599999999999,-2.31952,-7.67578,70.0
1774822720.9887877,6.9141387939453125e-06,2026-03-29T22:18:40.988,2026-03-29T18:18:40.988,-34084.755,-46331.549999999996,-85553.055,-50526.225,-12730.32,-17978.04,6547.59,-63889.02,-3.7384012031420895,5.241285560621308,27.41051498770249,6.374164457957949,-3.280742315987435,-8.741785787871468,-0.9661339548757424,-7.778171807587778,-0.13281216,-0.95751708,0.20971626000000002,-1.0834599999999999,-2.31952,-7.67578,70.0
1774822720.9887927,5.0067901611328125e-06,2026-03-29T22:18:40.988,2026-03-29T18:18:40.988,-34068.555,-46325.205,-85519.305,-50369.4,-12682.935,-17969.13,6536.25,-63895.32,0.6409922333803115,-1.3703915477454236,16.324769062431294,40.00652717010476,13.000532587662537,-3.8810484218827908,1.3331287806242396,-1.8291950603352412,-0.13281216,-0.95751708,0.20971626000000002,-1.0834599999999999,-2.31952,-7.67578,70.0
1774822720.988799,6.4373016357421875e-06,2026-03-29T22:18:40.988,2026-03-29T18:18:40.988,-34025.445,-46328.534999999996,-85536.62999999999,-50197.409999999996,-12568.859999999999,-17940.96,6570.405,-63852.795,4.525115603539151,-7.0812856107866144,-0.9421603011305467,58.55942202152096,25.462400093603495,4.0434647440481575,2.8067259059912115,4.386847532850809,-0.13281216,-0.95751708,0.20971626000000002,-1.0834599999999999,-2.31952,-7.67578,70.0
1774822720.988804,5.0067901611328125e-06,2026-03-29T22:18:40.988,2026-03-29T18:18:40.988,-33993.045,-46381.185,-85650.75,-50265.494999999995,-12562.785,-17943.66,6614.775,-63791.595,6.164769498380892,-9.646235836030913,-17.587811255238446,53.187144416439004,27.87145364852153,10.77295649467564,2.660452976447825,8.179723409597624,-0.13281216,-0.95751708,0.20971626000000002,-1.0834599999999999,-2.31952,-7.67578,70.0
1774822720.98881,5.9604644775390625e-06,2026-03-29T22:18:40.988,2026-03-29T18:18:40.988,-34048.034999999996,-46432.89,-85730.265,-50451.165,-12628.664999999999,-17921.52,6603.4349999999995,-63821.744999999995,4.931433415022651,-8.231100785087385,-27.236668238301558,24.76877054914463,17.897102664708324,12.282483804581437,0.9977203032886485,8.178438629920603,-0.13281216,-0.95751708,0.20971626000000002,-1.0834599999999999,-2.31952,-7.67578,70.0
1774822720.988815,5.0067901611328125e-06,2026-03-29T22:18:40.988,2026-03-29T18:18:40.988,-34070.805,-46415.52,-85736.925,-50693.625,-12722.984999999999,-17886.015,6616.485,-63841.049999999996,1.545380316015965,-3.6580336277924266,-26.32738329793352,-15.805282442167453,-1.257248265412971,7.0808327120387045,-1.2363385401858864,4.795676575073827,-0.13281216,-0.95751708,0.20971626000000002,-1.0834599999999999,-2.31952,-7.67578,70.0
1774822720.988821,5.9604644775390625e-06,2026-03-29T22:18:40.988,2026-03-29T18:18:40.988,-34052.445,-46313.28,-85600.75499999999,-50827.725,-12836.97,-17951.219999999998,6634.304999999999,-63840.915,-2.3340307221089645,2.0452915390067288,-15.350967204193138,-51.705974253774365,-21.710859727534487,-2.7223970200072305,-2.7691930032539434,-0.15696758607434044,-0.13928187,-0.96020262,0.21093696,-1.0682,-7.08064,-13.291459999999999,70.0
1774822720.988826,5.0067901611328125e-06,2026-03-29T22:18:40.988,2026-03-29T18:18:40.988,-34036.47,-46211.805,-85442.58,-50758.604999999996,-12803.625,-17931.6,6627.509999999999,-63841.814999999995,-4.927360338751322,6.554721182103629,1.4457753643327738,-67.1308752721057,-34.13538231859154,-12.25918160507634,-2.7018390235875405,-4.432542563732386,-0.13928187,-0.96020262,0.21093696,-1.0682,-7.08064,-13.291459999999999,70.0
1774822720.9888318,5.7220458984375e-06,2026-03-29T22:18:40.988,2026-03-29T18:18:40.988,-34018.515,-46180.305,-85319.45999999999,-50525.955,-12688.92,-17889.885,6603.12,-63840.78,-5.1566531582251365,8.205235952969746,17.70645662786964,-54.288938819581226,-32.04188102604035,-16.326682224090614,-1.0189587259712087,-6.381269539927271,-0.13928187,-0.96020262,0.21093696,-1.0682,-7.08064,-13.291459999999999,70.0
1774822720.9888363,4.5299530029296875e-06,2026-03-29T22:18:40.988,2026-03-29T18:18:40.988,-34014.465,-46205.82,-85329.94499999999,-50462.46,-12693.195,-17916.165,6608.5199999999995,-63837.314999999995,-3.0876948410806397,6.595675336050283,27.319705193521106,-17.3048312414531,-15.13980956982315,-12.18178925198703,1.3747034220876964,-5.571488896011652,-0.13928187,-0.96020262,0.21093696,-1.0682,-7.08064,-13.291459999999999,70.0
1774822720.9888427,6.4373016357421875e-06,2026-03-29T22:18:40.988,2026-03-29T18:18:40.988,-34021.305,-46235.61,-85375.845,-50464.89,-12696.705,-17922.059999999998,6613.245,-63835.92,0.1853062834118374,2.6271082469135605,26.63695142820218,28.90271203328612,9.960480184675777,-1.220660840490285,3.1259444791397457,-2.7742137940900595,-0.13928187,-0.96020262,0.21093696,-1.0682,-7.08064,-13.291459999999999,70.0
1774822720.9888475,4.76837158203125e-06,2026-03-29T22:18:40.988,2026-03-29T18:18:40.988,-34048.755,-46263.33,-85407.3,-50373.72,-12639.375,-17898.57,6607.035,-63865.845,3.1171771113768623,-1.9833734550004374,15.79313794367373,64.59406952917753,32.287270008614,11.433354295829673,3.1722807999355167,0.5815299632707595,-0.13928187,-0.96020262,0.21093696,-1.0682,-7.08064,-13.291459999999999,70.0
1774822720.9932983,0.004450798034667969,2026-03-29T22:18:40.993,2026-03-29T18:18:40.993,-34041.104999999996,-46280.655,-85450.72499999999,-50335.875,-12623.039999999999,-17891.055,6598.71,-63848.295,4.447337478593344,-5.457574026371641,-1.3101753261070321,73.66722896384704,41.339459750410235,19.35008156405105,1.35414324475315,3.1401812198521495,-0.13928187,-0.96020262,0.21093696,-1.0682,-7.08064,-13.291459999999999,70.0
1774822720.9933195,2.1219253540039062e-05,2026-03-29T22:18:40.993,2026-03-29T18:18:40.993,-34033.86,-46279.439999999995,-85476.69,-50356.35,-12654.27,-17894.475,6596.37,-63835.74,3.740532336107016,-6.642112279884452,-18.356167655889614,50.966889006928824,32.06641728030844,18.06606005931315,-1.4414242058164324,4.162786460923596,-0.13928187,-0.96020262,0.21093696,-1.0682,-7.08064,-13.291459999999999,70.0
1774822720.997168,0.003848552703857422,2026-03-29T22:18:40.997,2026-03-29T18:18:40.997,-34026.435,-46282.14,-85516.69499999999,-50408.549999999996,-12670.38,-17942.535,6584.3099999999995,-63828.585,1.501532779669401,-5.359683074642627,-28.85827910772496,5.1068684674272955,7.6156029965470795,7.5409515366733775,-3.707605228111958,3.6666735480887156,-0.13928187,-0.96020262,0.21093696,-1.0682,-7.08064,-13.291459999999999,70.0
1774822720.9972007,3.266334533691406e-05,2026-03-29T22:18:40.997,2026-03-29T18:18:40.997,-34008.21,-46312.965,-85589.81999999999,-50503.545,-12706.695,-17998.695,6575.804999999999,-63809.954999999994,-1.1472413485037884,-2.336117626386454,-28.55079771274236,-44.701790235102166,-21.621653185002753,-7.534265266113832,-4.112340397228484,2.190378107105128,-0.13928187,-0.96020262,0.21093696,-1.0682,-7.08064,-13.291459999999999,70.0
1774822721.0018003,0.004599571228027344,2026-03-29T22:18:41.001,2026-03-29T18:18:41.001,-33980.94,-46332.18,-85571.64,-50594.354999999996,-12798.81,-18044.1,6583.905,-63772.56,-3.031472767902557,1.1976966537851963,-17.08801634827664,-76.7034686537219,-42.44851684835446,-19.855166655822792,-2.248041282309537,0.3993910963585105,-0.140441535,-0.96117918,0.205138635,3.15882,-6.821219999999999,-14.16128,70.0
1774822721.0018244,2.4080276489257812e-05,2026-03-29T22:18:41.001,2026-03-29T18:18:41.001,-34028.055,-46327.185,-85549.905,-50708.79,-12811.365,-17990.415,6628.95,-63805.454999999994,-3.447653803815151,4.014944125676351,1.6053979822711655,-76.15621727485016,-44.879610930972966,-23.079290469127795,1.0739125468422681,-1.2155827747052708,-0.140441535,-0.96117918,0.205138635,3.15882,-6.821219999999999,-14.16128,70.0
1774822721.006577,0.004752635955810547,2026-03-29T22:18:41.006,2026-03-29T18:18:41.006,-34086.735,-46278.134999999995,-85461.48,-50599.125,-12698.82,-17863.065,6647.67,-63868.365,-2.409135128406037,5.297667295034733,20.568192382315978,-42.17220844583777,-26.96571522324358,-15.092707880943786,4.171711692692817,-2.4100825365844933,-0.140441535,-0.96117918,0.205138635,3.15882,-6.821219999999999,-14.16128,70.0
1774822721.0065913,1.430511474609375e-05,2026-03-29T22:18:41.006,2026-03-29T18:18:41.006,-34050.015,-46249.02,-85412.43,-50484.555,-12652.695,-17844.93,6619.7699999999995,-63852.84,-0.5395591146303664,4.814453798575674,32.297491500292395,11.354795977621903,3.921459029623535,0.7164934405462348,5.337623896313086,-3.0666374958836697,-0.140441535,-0.96117918,0.205138635,3.15882,-6.821219999999999,-14.16128,70.0
1774822721.0192213,0.012629985809326172,2026-03-29T22:18:41.019,2026-03-29T18:18:41.019,-34032.33,-46261.979999999996,-85441.05,-50460.659999999996,-12656.16,-17878.32,6605.1449999999995,-63844.38,1.2877070924799652,2.872471492323201,31.666628585747752,61.40052457033347,34.119256575185574,16.910253121033413,3.7570143231056794,-3.049059337565988,-0.140441535,-0.96117918,0.205138635,3.15882,-6.821219999999999,-14.16128,70.0
1774822721.0192451,2.384185791015625e-05,2026-03-29T22:18:41.019,2026-03-29T18:18:41.019,-34007.4,-46274.04,-85478.175,-50438.43,-12635.279999999999,-17860.95,6613.29,-63824.399999999994,2.3609606135148193,0.13372775114787586,18.160725036211883,85.75858202274688,49.77625356419332,25.5491409174566,0.015376902344548795,-2.191268115492387,-0.140441535,-0.96117918,0.205138635,3.15882,-6.821219999999999,-14.16128,70.0
1774822721.019267,2.193450927734375e-05,2026-03-29T22:18:41.019,2026-03-29T18:18:41.019,-34020.045,-46302.57,-85513.95,-50450.265,-12640.14,-17863.245,6619.5,-63822.645,2.3970501006268328,-2.5978997825452828,-3.540696062216703,72.96907198765578,43.27432774630415,22.122604971046613,-4.103590405733237,-0.4593999941076564,-0.140441535,-0.96117918,0.205138635,3.15882,-6.821219999999999,-14.16128,70.0
1774822721.0192783,1.1205673217773438e-05,2026-03-29T22:18:41.019,2026-03-29T18:18:41.019,-34053.435,-46310.445,-85543.02,-50481.72,-12677.895,-17890.559999999998,6608.025,-63836.415,1.569748354707862,-4.556435241715439,-25.051775146034608,27.7555188263305,16.96227876687776,7.898501755083612,-6.468606943704723,1.829776047291946,-0.140441535,-0.96117918,0.205138635,3.15882,-6.821219999999999,-14.16128,70.0
1774822721.0192904,1.2159347534179688e-05,2026-03-29T22:18:41.019,2026-03-29T18:18:41.019,-34067.07,-46279.979999999996,-85544.28,-50520.24,-12728.97,-17930.295,6587.28,-63845.64,0.33634302330874316,-5.1574957416021,-37.446402852557114,-30.62834409337806,-17.64040356363892,-10.530660501280847,-5.6943155720597165,3.9319508048134684,-0.140441535,-0.96117918,0.205138635,3.15882,-6.821219999999999,-14.16128,70.0
1774822721.0193,9.5367431640625e-06,2026-03-29T22:18:41.019,2026-03-29T18:18:41.019,-34044.119999999995,-46269.27,-85513.815,-50503.14,-12721.32,-17948.07,6579.45,-63827.729999999996,-0.8115187542076403,-4.130142560427916,-34.95005527092434,-76.61712539189084,-44.93096719216046,-24.351505253678848,-1.9199872082262464,4.880249469215156,-0.140441535,-0.96117918,0.205138635,3.15882,-6.821219999999999,-14.16128,70.0
1774822721.0295107,0.010210752487182617,2026-03-29T22:18:41.029,2026-03-29T18:18:41.029,-34039.619999999995,-46276.064999999995,-85486.72499999999,-50502.15,-12660.975,-17926.469999999998,6587.46,-63825.975,-1.5384550086942144,-1.6372413979274918,-17.63952743971681,-89.60283208372613,-52.33496072711803,-26.80069447278085,3.152919836525379,3.9401444455992065,-0.138000135,-0.96081297,0.20947212,-2.33478,-4.7458599999999995,-10.57518,70.0
1774822721.029532,2.1219253540039062e-05,2026-03-29T22:18:41.029,2026-03-29T18:18:41.029,-34018.515,-46263.78,-85470.165,-50576.67,-12690.27,-17944.38,6616.08,-63807.479999999996,-1.7267089808741116,1.6674155846376393,8.114938734350591,-63.25466639212259,-36.165976725759805,-16.508487763640108,7.030001259112553,1.0958815885740139,-0.138000135,-0.96081297,0.20947212,-2.33478,-4.7458599999999995,-10.57518,70.0
1774822721.029556,2.4080276489257812e-05,2026-03-29T22:18:41.029,2026-03-29T18:18:41.029,-34008.525,-46247.265,-85409.145,-50543.189999999995,-12728.295,-17954.1,6614.6849999999995,-63802.665,-1.4253958696282536,4.728165325009681,31.884121684858446,-8.63711305353994,-3.473407026094965,1.7530434688933727,7.6513265470481935,-2.729793030842205,-0.138000135,-0.96081297,0.20947212,-2.33478,-4.7458599999999995,-10.57518,70.0
1774822721.0295625,6.4373016357421875e-06,2026-03-29T22:18:41.029,2026-03-29T18:18:41.029,-34014.6,-46244.52,-85367.47499999999,-50436.134999999995,-12683.34,-17902.844999999998,6597.36,-63819.18,-0.7623711586535137,6.374271964938448,43.37203947387266,50.421992131065515,31.052911802068063,19.31988357583915,4.472427160189026,-5.925888469118346,-0.138000135,-0.96081297,0.20947212,-2.33478,-4.7458599999999995,-10.57518,70.0
1774822721.029569,6.4373016357421875e-06,2026-03-29T22:18:41.029,2026-03-29T18:18:41.029,-34024.635,-46270.215,-85426.605,-50449.95,-12659.58,-17887.77,6586.83,-63829.439999999995,0.1087884484375007,5.759730841759755,36.900351678319474,87.7837941594324,51.752005932767105,27.806711894863273,-1.1635304402583277,-6.878405976538251,-0.138000135,-0.96081297,0.20947212,-2.33478,-4.7458599999999995,-10.57518,70.0
1774822721.029574,5.0067901611328125e-06,2026-03-29T22:18:41.029,2026-03-29T18:18:41.029,-34022.88,-46285.784999999996,-85473.81,-50453.28,-12656.295,-17897.355,6599.5199999999995,-63817.244999999995,1.0055358801763732,2.796321980269307,14.222380743508005,86.66151531746503,49.175697515876,23.164069807368456,-6.591721537743993,-4.795843392915269,-0.138000135,-0.96081297,0.20947212,-2.33478,-4.7458599999999995,-10.57518,70.0
1774822721.0346203,0.005046367645263672,2026-03-29T22:18:41.034,2026-03-29T18:18:41.034,-34028.369999999995,-46283.759999999995,-85486.14,-50455.17,-12683.205,-17936.954999999998,6575.804999999999,-63822.015,1.694934554585228,-1.6405251763023547,-15.73061036134276,47.2479958319997,24.455265783013708,7.63474753492953,-9.09241971360463,-0.24880096133300242,-0.138000135,-0.96081297,0.20947212,-2.33478,-4.7458599999999995,-10.57518,70.0
1774822721.0346427,2.2411346435546875e-05,2026-03-29T22:18:41.034,2026-03-29T18:18:41.034,-34032.915,-46283.22,-85499.955,-50441.13,-12694.635,-17959.094999999998,6565.995,-63829.619999999995,1.9155271217012648,-5.902725996399464,-40.30812035232601,-13.196600676447002,-11.191789344552761,-11.346807866794313,-7.253274002138759,4.912471454008529,-0.138000135,-0.96081297,0.20947212,-2.33478,-4.7458599999999995,-10.57518,70.0
1774822721.0375714,0.0029287338256835938,2026-03-29T22:18:41.037,2026-03-29T18:18:41.037,-34018.515,-46271.384999999995,-85480.56,-50433.03,-12708.494999999999,-17964.899999999998,6580.575,-63815.67,1.4734347560296244,-8.16363338355444,-48.49947256462121,-67.93186046709776,-41.60167095455366,-24.764780001157302,-1.7445712430475973,8.309680242153878,-0.138000135,-0.96081297,0.20947212,-2.33478,-4.7458599999999995,-10.57518,70.0
1774822721.0375905,1.9073486328125e-05,2026-03-29T22:18:41.037,2026-03-29T18:18:41.037,-34008.119999999995,-46289.79,-85521.69,-50528.52,-12756.105,-17972.19,6598.844999999999,-63787.86,0.37890625438859393,-7.212241931412283,-35.91809585685148,-92.65217081264232,-53.072927446194015,-26.36627362849491,4.910108976463413,8.152795224169527,-0.138000135,-0.96081297,0.20947212,-2.33478,-4.7458599999999995,-10.57518,70.0
1774822721.0502784,0.012687921524047852,2026-03-29T22:18:41.050,2026-03-29T18:18:41.050,-34002.81,-46314.18,-85598.64,-50714.549999999996,-12854.789999999999,-18020.204999999998,6613.92,-63781.335,-1.0641255222727004,-3.097551281454405,-7.132122372913256,-76.38211433132379,-40.61159032013377,-15.618615907973693,9.498448437367921,4.187814420570757,-0.139098765,-0.958310535,0.21276801,-13.82556,-4.79164,-8.49982,70.0
1774822721.0502996,2.1219253540039062e-05,2026-03-29T22:18:41.050,2026-03-29T18:18:41.050,-34033.86,-46347.345,-85610.925,-50691.645,-12854.475,-18036.27,6616.755,-63796.5,-2.3034170584295084,2.7178520169427314,25.889581568264237,-26.421091625218708,-10.133048141057271,2.1388489594516917,9.677903222232139,-2.0271803167231517,-0.139098765,-0.958310535,0.21276801,-13.82556,-4.79164,-8.49982,70.0
1774822721.0503168,1.71661376953125e-05,2026-03-29T22:18:41.050,2026-03-29T18:18:41.050,-34054.695,-46350.225,-85527.94499999999,-50480.729999999996,-12718.529999999999,-17971.02,6594.929999999999,-63809.685,-2.7431873806046108,7.847355100362823,48.7516409504836,34.924025137744756,24.36339738279948,18.37504859325877,5.16837250877824,-7.723271100278794,-0.139098765,-0.958310535,0.21276801,-13.82556,-4.79164,-8.49982,70.0
1774822721.0503228,5.9604644775390625e-06,2026-03-29T22:18:41.050,2026-03-29T18:18:41.050,-34045.065,-46285.604999999996,-85439.655,-50361.659999999996,-12586.095,-17887.41,6597.99,-63812.159999999996,-2.035941853466724,9.967870669498717,50.963717262579735,80.35972159414248,47.289472862049294,25.52224933115713,-2.027205937738736,-10.173445385685868,-0.139098765,-0.958310535,0.21276801,-13.82556,-4.79164,-8.49982,70.0
1774822721.0503294,6.67572021484375e-06,2026-03-29T22:18:41.050,2026-03-29T18:18:41.050,-34028.46,-46246.634999999995,-85452.20999999999,-50428.53,-12622.859999999999,-17874.405,6591.24,-63807.119999999995,-0.31570910294399723,7.8934516242351265,30.819515111224394,89.85057378860242,48.58898660011446,20.557009663851836,-8.51909206897222,-8.020839616517422,-0.139098765,-0.958310535,0.21276801,-13.82556,-4.79164,-8.49982,70.0
1774822721.0503345,5.0067901611328125e-06,2026-03-29T22:18:41.050,2026-03-29T18:18:41.050,-34026.345,-46246.905,-85448.87999999999,-50448.869999999995,-12656.654999999999,-17880.255,6598.304999999999,-63811.215,1.772256391864823,2.2293093550605376,-3.4754748413570304,59.54730978061436,28.195941733188164,6.287938499409889,-11.139784296264004,-2.025516394035604,-0.139098765,-0.958310535,0.21276801,-13.82556,-4.79164,-8.49982,70.0
1774822721.053272,0.0029375553131103516,2026-03-29T22:18:41.053,2026-03-29T18:18:41.053,-34061.22,-46273.32,-85460.805,-50481.18,-12639.06,-17859.329999999998,6630.03,-63838.845,3.303319212057085,-4.7508614324081835,-37.11877544255371,3.375634608763916,-4.169079363196527,-10.202518836144503,-8.496542380670446,5.17884421015527,-0.139098765,-0.958310535,0.21276801,-13.82556,-4.79164,-8.49982,70.0
1774822721.0532918,1.9788742065429688e-05,2026-03-29T22:18:41.053,2026-03-29T18:18:41.053,-34044.57,-46290.78,-85498.065,-50559.21,-12682.439999999999,-17900.01,6630.75,-63814.229999999996,3.4893718634868387,-10.01912854240993,-55.14634294823691,-53.38542345523586,-33.66589249809982,-21.109267356387324,-1.7031263618166912,10.256143718426037,-0.139098765,-0.958310535,0.21276801,-13.82556,-4.79164,-8.49982,70.0
1774822721.0583265,0.005034685134887695,2026-03-29T22:18:41.058,2026-03-29T18:18:41.058,-34032.015,-46298.61,-85480.515,-50514.57,-12691.619999999999,-17926.02,6614.73,-63802.439999999995,2.088241063350898,-11.13135217961429,-49.17007460861806,-85.56346099715925,-47.20833289017961,-21.652401659896828,6.090678384899983,10.738962746370161,-0.139098765,-0.958310535,0.21276801,-13.82556,-4.79164,-8.49982,70.0
1774822721.0583444,1.7881393432617188e-05,2026-03-29T22:18:41.058,2026-03-29T18:18:41.058,-34011.99,-46311.525,-85497.84,-50479.244999999995,-12696.164999999999,-17942.355,6596.505,-63779.445,-0.40790662764300795,-7.3862409593594025,-21.345865982485652,-79.35616308508085,-39.328245650982126,-12.197535163431732,11.172597520440586,6.247335493790408,-0.139098765,-0.958310535,0.21276801,-13.82556,-4.79164,-8.49982,70.0
1774822721.0612576,0.002913236618041992,2026-03-29T22:18:41.061,2026-03-29T18:18:41.061,-33997.905,-46311.93,-85567.455,-50496.345,-12704.984999999999,-17951.04,6567.12,-63764.009999999995,-2.9303454874452632,-0.24456264330844002,16.33440717510045,-38.31077258965191,-14.374280482522703,2.2043925042743906,11.049153466968237,-1.255376072108087,-0.145324335,-0.9588598500000001,0.21423285,-10.9872,-4.959499999999999,-8.78976,70.0
1774822721.06131,5.245208740234375e-05,2026-03-29T22:18:41.061,2026-03-29T18:18:41.061,-34003.305,-46295.64,-85568.355,-50488.56,-12689.73,-17938.575,6560.6849999999995,-63781.064999999995,-4.2964822961627345,7.2340646782239055,47.23919907965267,18.59998127672412,15.83341170712797,14.505247010613662,5.674011979872468,-8.328839817547177,-0.145324335,-0.9588598500000001,0.21423285,-10.9872,-4.959499999999999,-8.78976,70.0
1774822721.0654433,0.0041332244873046875,2026-03-29T22:18:41.065,2026-03-29T18:18:41.065,-34031.97,-46276.424999999996,-85500.0,-50456.564999999995,-12641.895,-17903.88,6593.94,-63830.52,-3.774228729605296,11.72357453896525,57.51785282825897,65.79504576258076,37.646369995219864,19.148745171401423,-2.4841011939701296,-11.657702298655288,-0.145324335,-0.9588598500000001,0.21423285,-10.9872,-4.959499999999999,-8.78976,70.0
1774822721.0654678,2.4557113647460938e-05,2026-03-29T22:18:41.065,2026-03-29T18:18:41.065,-34029.945,-46281.825,-85480.605,-50440.95,-12640.23,-17921.925,6613.5599999999995,-63821.159999999996,-1.4737573166944202,11.142360599572097,42.396939431871424,82.6741628545874,41.81328213397759,14.615210701689628,-9.586621438540622,-9.631336835819496,-0.145324335,-0.9588598500000001,0.21423285,-10.9872,-4.959499999999999,-8.78976,70.0
1774822721.0840244,0.018556594848632812,2026-03-29T22:18:41.084,2026-03-29T18:18:41.084,-34017.57,-46292.805,-85503.375,-50414.13,-12670.74,-17973.045,6578.505,-63798.57,1.6429791800737392,5.64143051017787,8.448225704103466,62.684934891910615,27.419805741082847,3.839700232986806,-12.247097216554346,-3.136614659518614,-0.145324335,-0.9588598500000001,0.21423285,-10.9872,-4.959499999999999,-8.78976,70.0
1774822721.084047,2.2649765014648438e-05,2026-03-29T22:18:41.084,2026-03-29T18:18:41.084,-34022.565,-46339.875,-85628.205,-50427.314999999995,-12693.15,-17995.545,6551.505,-63783.27,4.167653442205162,-2.4095766290487206,-29.272253697374644,15.840432970026853,1.8573463998367268,-7.558562337681974,-9.157899507097582,4.832256039915707,-0.145324335,-0.9588598500000001,0.21423285,-10.9872,-4.959499999999999,-8.78976,70.0
1774822721.0840652,1.811981201171875e-05,2026-03-29T22:18:41.084,2026-03-29T18:18:41.084,-33988.905,-46365.705,-85778.37,-50595.615,-12812.22,-18058.23,6547.634999999999,-63728.415,4.893087736772311,-9.458846767085545,-53.96663214501809,-36.266641007733355,-22.957467766297757,-14.210097706792533,-1.734718581512479,10.573746554521206,-0.145324335,-0.9588598500000001,0.21423285,-10.9872,-4.959499999999999,-8.78976,70.0
1774822721.0840728,7.62939453125e-06,2026-03-29T22:18:41.084,2026-03-29T18:18:41.084,-34035.795,-46360.89,-85799.97,-50767.695,-12853.215,-18027.36,6597.675,-63768.465,3.3994309892376156,-12.37013794008281,-54.66837923913495,-70.4790840631653,-36.182609905319694,-13.558314310191012,6.53982968802781,11.424446924138964,-0.145324335,-0.9588598500000001,0.21423285,-10.9872,-4.959499999999999,-8.78976,70.0
1774822721.0840812,8.344650268554688e-06,2026-03-29T22:18:41.084,2026-03-29T18:18:41.084,-34112.295,-46304.595,-85600.395,-50751.314999999995,-12745.619999999999,-17916.795,6641.91,-63870.435,0.2900036367112176,-9.848216251196131,-31.18754893181966,-72.4431887958545,-32.81641118986181,-6.812450801346732,11.765726174856566,7.014320332743787,-0.145324335,-0.9588598500000001,0.21423285,-10.9872,-4.959499999999999,-8.78976,70.0
1774822721.0840874,6.198883056640625e-06,2026-03-29T22:18:41.084,2026-03-29T18:18:41.084,-34078.59,-46248.03,-85408.37999999999,-50623.965,-12663.449999999999,-17856.09,6630.4349999999995,-63856.485,-3.0531283066710753,-3.029919098904032,5.837567480469714,-42.650104912192496,-15.520504291310877,2.047649088169389,11.479796046285836,-0.5689782240748293,-0.145324335,-0.9588598500000001,0.21423285,-10.9872,-4.959499999999999,-8.78976,70.0
1774822721.0840945,7.152557373046875e-06,2026-03-29T22:18:41.084,2026-03-29T18:18:41.084,-34009.2,-46196.865,-85268.87999999999,-50469.75,-12711.15,-17946.135,6610.094999999999,-63800.369999999995,-5.094074787006011,5.035525283478648,39.800106920486485,4.401496950967285,7.124310869860709,8.541848767476745,5.825677027856874,-7.7808721133853345,-0.15063438,-0.96630612,0.21227973,-6.07348,-7.858899999999999,-10.31576,70.0
1774822721.0841005,5.9604644775390625e-06,2026-03-29T22:18:41.084,2026-03-29T18:18:41.084,-33999.21,-46215.36,-85323.19499999999,-50447.79,-12744.63,-18002.43,6594.929999999999,-63782.82,-4.860381975377983,10.77542123021167,55.65560715934143,47.26337719159427,24.879563385389893,9.9677111050287,-2.520448922218991,-11.299454363284523,-0.15063438,-0.96630612,0.21227973,-6.07348,-7.858899999999999,-10.31576,70.0
1774822721.0935464,0.009445905685424805,2026-03-29T22:18:41.093,2026-03-29T18:18:41.093,-34056.945,-46264.905,-85421.655,-50474.159999999996,-12707.189999999999,-17955.855,6598.98,-63834.075,-2.4118713669843745,11.706710717201206,46.66915104227964,67.37490741614646,30.50706030182305,6.521793952071947,-9.629243538642415,-9.576808256104764,-0.15063438,-0.96630612,0.21227973,-6.07348,-7.858899999999999,-10.31576,70.0
1774822721.0935647,1.8358230590820312e-05,2026-03-29T22:18:41.093,2026-03-29T18:18:41.093,-34057.845,-46274.939999999995,-85448.745,-50474.115,-12680.189999999999,-17924.04,6609.195,-63834.39,1.1675467411610165,7.530255852965348,17.313054656632723,57.13729203403723,22.689875570490372,0.8009760947278063,-12.185319049920693,-3.52744138398874,-0.15063438,-0.96630612,0.21227973,-6.07348,-7.858899999999999,-10.31576,70.0
1774822721.0935793,1.4543533325195312e-05,2026-03-29T22:18:41.093,2026-03-29T18:18:41.093,-34007.67,-46279.845,-85501.125,-50518.845,-12717.27,-17944.29,6607.665,-63791.774999999994,4.258862614369547,0.21457527160325227,-18.949099780585573,22.694480839767184,6.054682771760611,-3.888150142812218,-9.046923593518553,3.9556006863726263,-0.15063438,-0.96630612,0.21227973,-6.07348,-7.858899999999999,-10.31576,70.0
1774822721.0935848,5.4836273193359375e-06,2026-03-29T22:18:41.093,2026-03-29T18:18:41.093,-33963.21,-46282.365,-85524.48,-50551.965,-12750.3,-17960.04,6597.2699999999995,-63747.63,5.452223606832263,-6.946021091225813,-45.89507274314542,-19.54534672729694,-11.442364955850007,-5.3875029019122715,-1.7581570326420386,9.40071050224359,-0.15063438,-0.96630612,0.21227973,-6.07348,-7.858899999999999,-10.31576,70.0
1774822721.0935917,6.9141387939453125e-06,2026-03-29T22:18:41.093,2026-03-29T18:18:41.093,-33965.729999999996,-46290.015,-85524.03,-50534.775,-12753.18,-17977.05,6589.259999999999,-63739.979999999996,4.198245277064569,-10.841091164498216,-51.87907519936232,-50.74445859537464,-22.330251303806584,-3.688133430968353,6.217114197862921,10.388003184101615,-0.15063438,-0.96630612,0.21227973,-6.07348,-7.858899999999999,-10.31576,70.0
1774822721.0935972,5.4836273193359375e-06,2026-03-29T22:18:41.093,2026-03-29T18:18:41.093,-34036.424999999996,-46302.93,-85498.73999999999,-50454.72,-12674.025,-17918.774999999998,6611.58,-63801.405,1.061479736729854,-9.916930021371885,-34.915104721551664,-58.07324707351918,-22.803251460970294,-0.6057363202829438,11.156715056021655,6.6346587146695875,-0.15063438,-0.96630612,0.21227973,-6.07348,-7.858899999999999,-10.31576,70.0
1774822721.0975077,0.003910541534423828,2026-03-29T22:18:41.097,2026-03-29T18:18:41.097,-34066.17,-46327.32,-85510.98,-50479.604999999996,-12655.395,-17887.95,6643.71,-63825.479999999996,-2.5408610476044484,-4.796267197342498,-3.266138995039768,-39.95317641986574,-13.918845157733124,1.558673356874063,10.832966237435553,0.04396469778470015,-0.15063438,-0.96630612,0.21227973,-6.07348,-7.858899999999999,-10.31576,70.0
1774822721.0975432,3.552436828613281e-05,2026-03-29T22:18:41.097,2026-03-29T18:18:41.097,-34040.025,-46337.49,-85513.31999999999,-50521.545,-12705.525,-17940.105,6632.955,-63794.07,-4.990075216489704,2.101685381487215,28.59112229071954,-5.9812450298019115,-0.5204785817552408,1.5076404830619492,5.524097442010781,-6.26485287483946,-0.15063438,-0.96630612,0.21227973,-6.07348,-7.858899999999999,-10.31576,70.0
1774822721.10198,0.0044367313385009766,2026-03-29T22:18:41.101,2026-03-29T18:18:41.101,-34033.14,-46285.29,-85451.535,-50442.84,-12707.685,-17971.155,6603.615,-63793.665,-5.202175035980175,7.720057420806235,46.647140650928975,28.06435503643438,11.340699707261654,-0.3117499911649293,-2.178092201769245,-9.448327190874505,-0.15258750000000001,-0.974912055,0.206847615,-1.6785999999999999,-15.656759999999998,-8.05728,70.0
1774822721.1020093,2.9325485229492188e-05,2026-03-29T22:18:41.102,2026-03-29T18:18:41.102,-34019.64,-46248.255,-85464.45,-50461.74,-12715.47,-17987.535,6568.335,-63800.369999999995,-3.1099188358800522,9.738908764720012,43.573721911599705,47.56741321949857,17.13374228442349,-2.125336017602166,-8.643436444549899,-8.230796845612186,-0.15258750000000001,-0.974912055,0.206847615,-1.6785999999999999,-15.656759999999998,-8.05728,70.0
1774822721.1052487,0.0032393932342529297,2026-03-29T22:18:41.105,2026-03-29T18:18:41.105,-34018.38,-46246.14,-85476.105,-50511.42,-12711.869999999999,-17989.649999999998,6560.19,-63806.715,0.3244068710852475,7.537713737288047,21.68990903982334,45.33868877467095,15.497988553720718,-2.108527678297711,-10.929413047822974,-3.404695243949135,-0.15258750000000001,-0.974912055,0.206847615,-1.6785999999999999,-15.656759999999998,-8.05728,70.0
1774822721.1052868,3.814697265625e-05,2026-03-29T22:18:41.105,2026-03-29T18:18:41.105,-34022.88,-46229.939999999995,-85457.295,-50528.295,-12697.74,-17952.93,6563.61,-63817.064999999995,3.5602551438394725,2.344618344403045,-8.514337678221704,24.123532449542353,8.262937315654158,0.29429707154170276,-8.130205215936005,2.6502067041662176,-0.15258750000000001,-0.974912055,0.206847615,-1.6785999999999999,-15.656759999999998,-8.05728,70.0
1774822721.1095848,0.004297971725463867,2026-03-29T22:18:41.109,2026-03-29T18:18:41.109,-34033.32,-46228.59,-85448.565,-50535.314999999995,-12706.83,-17905.14,6608.115,-63810.63,5.177830609902895,-3.434048253542789,-33.426809066051106,-5.437280257734994,-0.8851592040135812,3.8502629081389035,-1.7257044108556852,7.147865851005985,-0.15258750000000001,-0.974912055,0.206847615,-1.6785999999999999,-15.656759999999998,-8.05728,70.0
1774822721.1096044,1.9550323486328125e-05,2026-03-29T22:18:41.109,2026-03-29T18:18:41.109,-34042.455,-46258.38,-85474.665,-50529.195,-12718.484999999999,-17918.684999999998,6632.73,-63809.685,4.503582098454489,-7.34219008748691,-42.49198740014025,-30.098613616656724,-8.248308208627915,6.182405064076137,5.198014140381964,8.186874459130733,-0.15258750000000001,-0.974912055,0.206847615,-1.6785999999999999,-15.656759999999998,-8.05728,70.0
1774822721.113563,0.003958702087402344,2026-03-29T22:18:41.113,2026-03-29T18:18:41.113,-34051.455,-46277.189999999995,-85493.87999999999,-50506.784999999996,-12704.445,-17928.045,6621.974999999999,-63821.43,1.8857228299172846,-7.924246721453641,-32.69407916799421,-39.937597015225265,-11.561888954113021,5.236146358693991,9.446965906705069,5.548548035115615,-0.15258750000000001,-0.974912055,0.206847615,-1.6785999999999999,-15.656759999999998,-8.05728,70.0
1774822721.113587,2.384185791015625e-05,2026-03-29T22:18:41.113,2026-03-29T18:18:41.113,-34052.58,-46286.82,-85516.065,-50501.295,-12691.439999999999,-17923.95,6607.71,-63830.88,-1.4893895077944583,-5.2451915198348145,-9.436773074234317,-32.26753515886689,-10.504419498822594,0.7035536387808919,9.203490320915826,0.6709537758207307,-0.15258750000000001,-0.974912055,0.206847615,-1.6785999999999999,-15.656759999999998,-8.05728,70.0
1774822721.1177998,0.004212856292724609,2026-03-29T22:18:41.117,2026-03-29T18:18:41.117,-34040.43,-46276.92,-85508.055,-50509.35,-12699.404999999999,-17937.135,6591.0599999999995,-63826.29,-4.14104794823978,-0.708006687968504,16.356646457673957,-12.040432440921725,-6.29304502036182,-5.486339668862765,4.801649803779065,-4.12582869584868,-0.15258750000000001,-0.974912055,0.206847615,-1.6785999999999999,-15.656759999999998,-8.05728,70.0
1774822721.1178188,1.9073486328125e-05,2026-03-29T22:18:41.117,2026-03-29T18:18:41.117,-34047.765,-46295.415,-85531.545,-50544.765,-12726.18,-17967.239999999998,6588.719999999999,-63822.555,-4.9454951794279705,3.6751763857594617,33.39237212435565,11.063505796456829,-0.8081606721803317,-10.001998434198814,-1.5353432379951657,-6.748421602930947,-0.15258750000000001,-0.974912055,0.206847615,-1.6785999999999999,-15.656759999999998,-8.05728,70.0
1774822721.1300623,0.012243509292602539,2026-03-29T22:18:41.130,2026-03-29T18:18:41.130,-34048.08,-46295.865,-85514.805,-50520.24,-12730.095,-17978.67,6600.0599999999995,-63809.774999999994,-3.6076071736852713,6.180676601924048,34.96661768458088,27.234673885966682,4.212685722124707,-9.899651371139031,-6.820537562093426,-6.240011927886745,-0.145568475,-0.99914295,0.211730415,6.42446,-20.72308,-2.79258,70.0
1774822721.1300795,1.71661376953125e-05,2026-03-29T22:18:41.130,2026-03-29T18:18:41.130,-34042.185,-46285.695,-85483.8,-50500.71,-12711.555,-17947.395,6607.17,-63799.965,-0.7582076136149246,6.036287851709756,21.552340581103113,30.64898919592926,7.583669814019146,-4.40829673799026,-8.720200176617201,-3.0982274391723394,-0.145568475,-0.99914295,0.211730415,6.42446,-20.72308,-2.79258,70.0
1774822721.1301036,2.4080276489257812e-05,2026-03-29T22:18:41.130,2026-03-29T18:18:41.130,-34018.335,-46269.27,-85478.895,-50513.354999999996,-12694.77,-17922.78,6616.259999999999,-63784.215,2.3471022981467344,3.6034322424946263,0.04450318956701581,21.40052978260161,8.689908918171342,4.3280055815025245,-6.585817762619292,1.0839822967718205,-0.145568475,-0.99914295,0.211730415,6.42446,-20.72308,-2.79258,70.0
1774822721.1301084,4.76837158203125e-06,2026-03-29T22:18:41.130,2026-03-29T18:18:41.130,-34024.815,-46276.965,-85488.93,-50512.905,-12698.55,-17924.85,6605.054999999999,-63795.104999999996,4.381413415031851,0.07538812383358648,-19.742539163050026,4.712556028776918,7.3577076096097525,12.077514118837376,-1.644500639032736,4.423485610434609,-0.145568475,-0.99914295,0.211730415,6.42446,-20.72308,-2.79258,70.0
1774822721.1301143,5.9604644775390625e-06,2026-03-29T22:18:41.130,2026-03-29T18:18:41.130,-34036.515,-46278.674999999996,-85498.37999999999,-50504.985,-12705.885,-17940.195,6590.5199999999995,-63813.555,4.50814499706256,-3.1054073417880033,-29.55934357816694,-11.871359982589931,3.819104531053953,14.6022628917759,3.687021147643769,5.591295839665362,-0.145568475,-0.99914295,0.211730415,6.42446,-20.72308,-2.79258,70.0
