unix_time_s,dt_s,UTC,LOCAL,EMG1_Raw,EMG2_Raw,EMG3_Raw,EMG4_Raw,EMG5_Raw,EMG6_Raw,EMG7_Raw,EMG8_Raw,EMG1_Filtered,EMG2_Filtered,EMG3_Filtered,EMG4_Filtered,EMG5_Filtered,EMG6_Filtered,EMG7_Filtered,EMG8_Filtered,Accel1_Raw,Accel2_Raw,Accel3_Raw,Gyro1_Raw,Gyro2_Raw,Gyro3_Raw,Battery
1774822377.399996,,2026-03-29T22:12:57.399,2026-03-29T18:12:57.399,-33620.895,-47369.34,-84586.455,-49551.705,-13975.199999999999,-18667.395,6172.29,-64018.439999999995,0.615690943276484,1.3723331739746945,1.9206260543613713,1.807307450443107,1.5988348679181612,1.7589457198919063,-1.0645423228614332,0.1369152179884592,-0.031188885,-0.99621327,0.09802221,0.24416,12.31482,-14.497,71.0
1774822377.4000146,1.8596649169921875e-05,2026-03-29T22:12:57.400,2026-03-29T18:12:57.400,-33636.915,-47383.424999999996,-84599.64,-49564.215,-13985.82,-18674.774999999998,6208.469999999999,-64035.99,8.069158524213455,12.264015014059334,15.323298474472516,15.327498404733785,14.086342858687715,13.298019219749344,7.606218798100553,4.1667741069704745,-0.031188885,-0.99621327,0.09802221,0.24416,12.31482,-14.497,71.0
1774822377.4000304,1.5735626220703125e-05,2026-03-29T22:12:57.400,2026-03-29T18:12:57.400,-33656.445,-47382.345,-84585.23999999999,-49549.905,-13972.275,-18661.995,6222.195,-64047.645,12.005295625605887,17.6226966759614,21.797075073151102,21.97176019065349,20.168282762286534,18.841605058584797,13.889953678115951,6.811171149482141,-0.031188885,-0.99621327,0.09802221,0.24416,12.31482,-14.497,71.0
1774822377.400035,4.5299530029296875e-06,2026-03-29T22:12:57.400,2026-03-29T18:12:57.400,-33621.075,-47345.625,-84543.97499999999,-49515.03,-13945.32,-18639.675,6189.66,-64010.61,10.587705044433902,14.912157585166765,18.26229931120223,18.594666823521976,16.922711426933237,15.686846504312008,15.13825160502392,6.92864008979173,-0.031188885,-0.99621327,0.09802221,0.24416,12.31482,-14.497,71.0
1774822377.4047105,0.004675626754760742,2026-03-29T22:12:57.404,2026-03-29T18:12:57.404,-33583.86,-47320.83,-84523.545,-49490.549999999996,-13918.14,-18613.215,6202.98,-63961.2,4.385594076687765,5.325048043960439,6.278660846914201,6.659029264292288,5.773181506030736,5.1716940616442555,10.403469676913488,4.267846901432239,-0.031188885,-0.99621327,0.09802221,0.24416,12.31482,-14.497,71.0
1774822377.4047365,2.5987625122070312e-05,2026-03-29T22:12:57.404,2026-03-29T18:12:57.404,-33615.63,-47361.915,-84572.01,-49521.78,-13936.545,-18635.085,6234.165,-63975.645,-3.8528753573470294,-6.745451764744112,-8.647855406649315,-8.398193670057976,-8.137630787062282,-7.890412552473133,1.0333732165803131,-0.3317824331612216,-0.031188885,-0.99621327,0.09802221,0.24416,12.31482,-14.497,71.0
1774822377.4085526,0.0038161277770996094,2026-03-29T22:12:57.408,2026-03-29T18:12:57.408,-33658.11,-47403.72,-84613.00499999999,-49554.36,-13963.725,-18668.07,6223.455,-64014.03,-10.426833643605095,-15.736749049453646,-19.618173037615353,-19.660878709992197,-18.336491848840453,-17.426683894452133,-9.573094350299087,-5.15367720822713,-0.032409585,-0.995175675,0.099670155,-1.51074,11.155059999999999,-16.89282,71.0
1774822377.4085696,1.6927719116210938e-05,2026-03-29T22:12:57.408,2026-03-29T18:12:57.408,-33681.915,-47428.47,-84641.715,-49601.744999999995,-14018.939999999999,-18703.44,6176.5199999999995,-64039.77,-12.357282890224035,-17.503071953759044,-21.55843773672875,-21.93623090181731,-20.053028626186304,-18.94542839880292,-17.10956008699895,-8.212418982022585,-0.032409585,-0.995175675,0.099670155,-1.51074,11.155059999999999,-16.89282,71.0
1774822377.416727,0.008157491683959961,2026-03-29T22:12:57.416,2026-03-29T18:12:57.416,-33673.14,-47413.485,-84625.37999999999,-49599.72,-14023.755,-18690.03,6172.245,-64047.24,-8.746833916422485,-11.243880827168057,-13.58849211471929,-14.170207191735894,-12.466718673628025,-11.664281361868044,-18.07637995964678,-8.06078564219034,-0.032409585,-0.995175675,0.099670155,-1.51074,11.155059999999999,-16.89282,71.0
1774822377.4167569,2.9802322387695312e-05,2026-03-29T22:12:57.416,2026-03-29T18:12:57.416,-33669.45,-47411.64,-84628.305,-49596.75,-14021.82,-18701.145,6144.974999999999,-64051.38,-1.1998220452117792,0.12999222148139322,0.574861367897228,0.05708200414804113,0.897872399266256,1.0877159738324325,-11.40352334929166,-4.473826470406287,-0.032409585,-0.995175675,0.099670155,-1.51074,11.155059999999999,-16.89282,71.0
1774822377.4167862,2.9325485229492188e-05,2026-03-29T22:12:57.416,2026-03-29T18:12:57.416,-33646.409999999996,-47388.104999999996,-84605.84999999999,-49570.83,-13993.154999999999,-18673.38,6151.545,-64031.22,6.894733543355381,11.36090052390542,14.365917750558797,14.19169320643121,13.818793042767023,13.399981620825947,0.7691943389477416,1.313083535528255,-0.032409585,-0.995175675,0.099670155,-1.51074,11.155059999999999,-16.89282,71.0
1774822377.416798,1.1920928955078125e-05,2026-03-29T22:12:57.416,2026-03-29T18:12:57.416,-33587.729999999996,-47325.78,-84534.56999999999,-49500.765,-13927.68,-18613.215,6200.28,-63976.994999999995,11.89454376613005,17.294353066798415,21.439980866415635,21.74704021094592,20.291751120896343,19.53503161511453,13.648374420615093,6.984143526018717,-0.032409585,-0.995175675,0.099670155,-1.51074,11.155059999999999,-16.89282,71.0
1774822377.423282,0.006483793258666992,2026-03-29T22:12:57.423,2026-03-29T18:12:57.423,-33579.72,-47318.13,-84522.87,-49491.99,-13926.689999999999,-18618.39,6231.105,-63965.295,11.553305027607053,15.263404872009549,18.61730404258745,19.30452610286786,17.337920878334952,16.616784830801404,21.62463368858336,10.053261640188694,-0.032409585,-0.995175675,0.099670155,-1.51074,11.155059999999999,-16.89282,71.0
1774822377.4232953,1.33514404296875e-05,2026-03-29T22:12:57.423,2026-03-29T18:12:57.423,-33620.805,-47359.08,-84566.06999999999,-49529.159999999996,-13959.404999999999,-18653.715,6234.525,-64000.439999999995,6.03649498359933,6.296001379624737,7.323620213285032,8.07475660953233,6.38340946518466,5.986188201674928,20.716899874249272,8.956494917476142,-0.032409585,-0.995175675,0.099670155,-1.51074,11.155059999999999,-16.89282,71.0
1774822377.4233117,1.6450881958007812e-05,2026-03-29T22:12:57.423,2026-03-29T18:12:57.423,-33635.205,-47373.615,-84585.51,-49548.465,-13978.215,-18679.77,6229.71,-64014.615,-2.158114102493309,-5.4046569019260815,-7.130002077222208,-6.699889097544217,-7.43189136520305,-7.417761556398594,10.558804117092478,3.8458873415860118,-0.032409585,-0.995175675,0.099670155,-1.51074,11.155059999999999,-16.89282,71.0
1774822377.4233165,4.76837158203125e-06,2026-03-29T22:12:57.423,2026-03-29T18:12:57.423,-33640.02,-47382.84,-84599.19,-49566.869999999995,-14004.225,-18696.239999999998,6210.719999999999,-64014.21,-9.336699798873136,-14.443345788231571,-18.063241015728376,-18.206844115509224,-17.6790722974565,-17.363925836744535,-5.06445913252721,-3.3172000040919944,-0.032409585,-0.995175675,0.099670155,-1.51074,11.155059999999999,-16.89282,71.0
1774822377.4302473,0.006930828094482422,2026-03-29T22:12:57.430,2026-03-29T18:12:57.430,-33652.215,-47396.744999999995,-84613.905,-49585.994999999995,-14043.285,-18701.91,6182.19,-64026.27,-12.282636899441895,-16.737155820341616,-20.53737159982211,-21.226219789496863,-19.647915876814302,-19.23948772802182,-19.551820417669983,-9.488973449252533,-0.035461335000000004,-0.9992650200000001,0.097961175,-0.7019599999999999,9.94952,-17.28958,71.0
1774822377.4302692,2.193450927734375e-05,2026-03-29T22:12:57.430,2026-03-29T18:12:57.430,-33653.52,-47393.685,-84605.67,-49570.155,-14006.88,-18675.945,6145.65,-64041.84,-9.705058115428354,-11.370682934632255,-13.601290823679125,-14.516493619203588,-12.522728453085405,-12.198924226227856,-26.268822479262482,-11.836100007580825,-0.035461335000000004,-0.9992650200000001,0.097961175,-0.7019599999999999,9.94952,-17.28958,71.0
1774822377.4441328,0.013863563537597656,2026-03-29T22:12:57.444,2026-03-29T18:12:57.444,-33620.085,-47356.695,-84571.965,-49532.49,-13933.035,-18639.585,6152.625,-64029.284999999996,-2.8075736048309774,-0.9546203228326312,-0.644740277591965,-1.3247791470626382,0.2834128679282285,0.4538689971300416,-21.608840799270585,-9.046199810484888,-0.035461335000000004,-0.9992650200000001,0.097961175,-0.7019599999999999,9.94952,-17.28958,71.0
1774822377.4441497,1.6927719116210938e-05,2026-03-29T22:12:57.444,2026-03-29T18:12:57.444,-33594.525,-47328.57,-84542.175,-49506.57,-13924.305,-18635.715,6203.474999999999,-63998.954999999994,5.274080643550064,9.647925116195388,12.264298819403793,12.187244987152358,12.770030728828916,12.822773468718522,-6.909851397683613,-2.0453423876878887,-0.035461335000000004,-0.9992650200000001,0.097961175,-0.7019599999999999,9.94952,-17.28958,71.0
1774822377.444163,1.33514404296875e-05,2026-03-29T22:12:57.444,2026-03-29T18:12:57.444,-33644.205,-47369.97,-84573.765,-49539.195,-13966.154999999999,-18654.75,6238.26,-64021.59,10.9018578076479,15.603226442225363,19.238677267136243,19.836552352237607,19.1729127388023,19.17813819064466,11.784878185950395,6.263673821220495,-0.035461335000000004,-0.9992650200000001,0.097961175,-0.7019599999999999,9.94952,-17.28958,71.0
1774822377.444168,5.0067901611328125e-06,2026-03-29T22:12:57.444,2026-03-29T18:12:57.444,-33667.695,-47402.325,-84608.595,-49567.77,-13992.074999999999,-18661.59,6227.1449999999995,-64035.854999999996,11.578539206907564,14.320470180896546,17.271949347078817,18.265193217714298,16.6351208062712,16.620579219743423,26.19076202550552,12.198461063352811,-0.035461335000000004,-0.9992650200000001,0.097961175,-0.7019599999999999,9.94952,-17.28958,71.0
1774822377.444174,5.9604644775390625e-06,2026-03-29T22:12:57.444,2026-03-29T18:12:57.444,-33644.655,-47390.985,-84611.205,-49566.465,-14008.859999999999,-18671.13,6207.255,-64020.015,7.059926642622029,6.5791294235135505,7.534130397234808,8.421776082066556,6.483079434833271,6.406996570821196,29.478249911939447,12.939714104343441,-0.035461335000000004,-0.9992650200000001,0.097961175,-0.7019599999999999,9.94952,-17.28958,71.0
1774822377.4441783,4.291534423828125e-06,2026-03-29T22:12:57.444,2026-03-29T18:12:57.444,-33617.97,-47358.99,-84575.655,-49537.485,-13984.83,-18658.98,6210.495,-63996.84,-0.5603699061881784,-3.9193271793555198,-5.293747817849174,-4.978382950830241,-6.46197707936823,-6.668625466535024,19.54073924002095,7.881691735841031,-0.035461335000000004,-0.9992650200000001,0.097961175,-0.7019599999999999,9.94952,-17.28958,71.0
1774822377.444184,5.7220458984375e-06,2026-03-29T22:12:57.444,2026-03-29T18:12:57.444,-33619.905,-47360.564999999995,-84578.48999999999,-49545.854999999996,-13953.33,-18640.44,6205.724999999999,-64001.024999999994,-7.820458089067126,-12.325071812295532,-15.27734462374695,-15.717276177830806,-16.180596731132397,-16.533170863596474,0.25633889241755314,-0.9614346980232092,-0.035461335000000004,-0.9992650200000001,0.097961175,-0.7019599999999999,9.94952,-17.28958,71.0
1774822377.444188,4.0531158447265625e-06,2026-03-29T22:12:57.444,2026-03-29T18:12:57.444,-33620.94,-47352.825,-84561.93,-49535.775,-13945.59,-18637.829999999998,6193.035,-64008.045,-11.464727052206669,-14.886294407768732,-17.98555889358756,-18.972054558673772,-18.261649333981264,-18.663390233954374,-19.982861479202242,-9.742502590838958,-0.035461335000000004,-0.9992650200000001,0.097961175,-0.7019599999999999,9.94952,-17.28958,71.0
1774822377.448808,0.0046198368072509766,2026-03-29T22:12:57.448,2026-03-29T18:12:57.448,-33636.15,-47367.854999999996,-84574.75499999999,-49563.765,-13997.564999999999,-18677.385,6164.28,-64023.57,-9.9065621885232,-10.624985565328483,-12.460119242142712,-13.49021940739986,-11.906581149964955,-12.164108361881615,-31.941326091931643,-14.462664940962313,-0.03527823,-1.006039905,0.096252195,3.0672599999999997,8.10306,-18.34252,71.0
1774822377.4488392,3.123283386230469e-05,2026-03-29T22:12:57.448,2026-03-29T18:12:57.448,-33655.229999999996,-47390.939999999995,-84609.765,-49566.825,-13991.445,-18670.95,6157.9349999999995,-64047.735,-3.9213735784885895,-1.693987034164527,-1.5223599469355633,-2.0573277799873244,-0.22036113724127493,-0.13922479136849225,-29.79653687379897,-12.808777203928054,-0.03527823,-1.006039905,0.096252195,3.0672599999999997,8.10306,-18.34252,71.0
1774822377.47644,0.027600765228271484,2026-03-29T22:12:57.476,2026-03-29T18:12:57.476,-33632.505,-47356.47,-84566.205,-49518.36,-13942.215,-18627.255,6184.575,-64038.284999999996,3.7330290089788805,7.704289579039547,9.659566146775722,9.908569281564143,11.306770713071458,11.794799920087769,-13.9998077027631,-5.294998649878367,-0.03527823,-1.006039905,0.096252195,3.0672599999999997,8.10306,-18.34252,71.0
1774822377.4764595,1.9550323486328125e-05,2026-03-29T22:12:57.476,2026-03-29T18:12:57.476,-33609.015,-47342.744999999995,-84555.315,-49510.665,-13937.445,-18621.27,6204.105,-64014.255,9.584664833455324,13.295733656378586,16.01717063043299,16.929352195000323,17.382797816434696,18.138531142732493,8.67594665543295,4.858295782735292,-0.03527823,-1.006039905,0.096252195,3.0672599999999997,8.10306,-18.34252,71.0
1774822377.476477,1.7404556274414062e-05,2026-03-29T22:12:57.476,2026-03-29T18:12:57.476,-33638.67,-47371.32,-84586.59,-49542.705,-13973.13,-18660.105,6160.724999999999,-64042.38,11.02195024882518,12.677351635556674,14.880978801921854,15.981936914256236,15.344570398785075,16.047838980259062,28.047066047207636,13.10716968920541,-0.03527823,-1.006039905,0.096252195,3.0672599999999997,8.10306,-18.34252,71.0
1774822377.4764867,9.775161743164062e-06,2026-03-29T22:12:57.476,2026-03-29T18:12:57.476,-33646.635,-47386.799999999996,-84603.69,-49558.59,-13986.765,-18671.175,6166.755,-64036.71,7.4610660030710845,6.342888417754554,7.089286622162353,7.79823400841438,6.318984369968117,6.60760002042161,35.13476108638563,15.633625904790222,-0.03527823,-1.006039905,0.096252195,3.0672599999999997,8.10306,-18.34252,71.0
1774822377.4764988,1.2159347534179688e-05,2026-03-29T22:12:57.476,2026-03-29T18:12:57.476,-33641.325,-47392.02,-84617.595,-49579.515,-14008.59,-18687.285,6203.565,-64012.95,0.584176973266688,-2.641607223186619,-3.546382564907002,-3.607193856338733,-5.387595028406918,-5.728341544880884,26.373425222716048,11.129933946342836,-0.03527823,-1.006039905,0.096252195,3.0672599999999997,8.10306,-18.34252,71.0
1774822377.476507,8.106231689453125e-06,2026-03-29T22:12:57.476,2026-03-29T18:12:57.476,-33644.655,-47387.79,-84609.18,-49576.095,-14005.71,-18682.065,6202.485,-64019.564999999995,-6.448787000595541,-10.11635514992957,-12.101168672484128,-12.900899225578383,-14.34491618257258,-15.242606566918429,5.417417932927825,1.4759489642125134,-0.03527823,-1.006039905,0.096252195,3.0672599999999997,8.10306,-18.34252,71.0
1774822377.4765162,9.298324584960938e-06,2026-03-29T22:12:57.476,2026-03-29T18:12:57.476,-33637.815,-47378.564999999995,-84594.78,-49554.405,-13979.07,-18660.6,6200.6849999999995,-64033.74,-10.447895919455524,-12.749034115702008,-14.815451203176098,-15.926541025277595,-16.517225612999916,-17.607613860688954,-18.374839546038032,-9.04137605385737,-0.03527823,-1.006039905,0.096252195,3.0672599999999997,8.10306,-18.34252,71.0
1774822377.4765236,7.3909759521484375e-06,2026-03-29T22:12:57.476,2026-03-29T18:12:57.476,-33633.494999999995,-47365.604999999996,-84580.29,-49537.71,-13965.255,-18655.29,6156.719999999999,-64054.439999999995,-9.639273831931085,-9.513575207550918,-10.73880807946029,-11.56393440999419,-11.076813888428099,-11.853898889071283,-34.15545185650266,-15.644409097154593,-0.03527823,-1.006039905,0.096252195,3.0672599999999997,8.10306,-18.34252,71.0
1774822377.4765315,7.867813110351562e-06,2026-03-29T22:12:57.476,2026-03-29T18:12:57.476,-33635.79,-47360.025,-84573.94499999999,-49540.68,-13975.244999999999,-18661.905,6124.41,-64048.32,-4.454777960102291,-2.0745656068490925,-2.02580131893219,-2.120217374536178,-0.7007602522614594,-0.7586100998559697,-34.58523427374762,-15.25424106972759,-0.033019935,-1.0100071800000001,0.098693595,1.6022999999999998,7.43162,-17.8542,71.0
1774822377.4765384,6.9141387939453125e-06,2026-03-29T22:12:57.476,2026-03-29T18:12:57.476,-33619.005,-47353.229999999996,-84560.94,-49543.695,-13988.97,-18667.44,6149.7,-63997.875,2.6870708182872463,6.056873812062417,7.183799967467177,7.868842534857731,9.743756636358194,10.496211346106293,-19.28773828043012,-7.940689800046195,-0.033019935,-1.0100071800000001,0.098693595,1.6022999999999998,7.43162,-17.8542,71.0
1774822377.4765468,8.344650268554688e-06,2026-03-29T22:12:57.476,2026-03-29T18:12:57.476,-33623.775,-47370.869999999995,-84583.665,-49558.59,-13994.324999999999,-18671.04,6200.37,-63988.38,8.501624389532155,11.171692738023912,12.724687930123673,13.811992250398305,15.480595421392202,16.74656282952731,4.885420858606967,3.056476219773158,-0.033019935,-1.0100071800000001,0.098693595,1.6022999999999998,7.43162,-17.8542,71.0
1774822377.4765537,6.9141387939453125e-06,2026-03-29T22:12:57.476,2026-03-29T18:12:57.476,-33630.795,-47372.445,-84587.04,-49556.43,-13987.664999999999,-18668.204999999998,6249.825,-64000.89,10.344341504491453,11.045539880760902,12.280758996388398,13.1707323997426,14.00399703216446,15.216601579665918,26.947427044215377,12.770764995686928,-0.033019935,-1.0100071800000001,0.098693595,1.6022999999999998,7.43162,-17.8542,71.0
1774822377.4765615,7.867813110351562e-06,2026-03-29T22:12:57.476,2026-03-29T18:12:57.476,-33616.215,-47351.52,-84553.515,-49524.705,-13961.564999999999,-18644.13,6277.005,-63986.13,7.414276184287994,5.896993803985583,6.336240972314486,6.535829020149284,6.1644200089112795,6.748131849552864,36.819355864425056,16.769603351231055,-0.033019935,-1.0100071800000001,0.098693595,1.6022999999999998,7.43162,-17.8542,71.0
1774822377.476568,6.4373016357421875e-06,2026-03-29T22:12:57.476,2026-03-29T18:12:57.476,-33609.015,-47346.93,-84553.92,-49516.515,-13950.585,-18635.805,6279.255,-63978.435,1.107134593180427,-1.7858585786114844,-2.1770803206428004,-2.7796208548644055,-4.304676051119986,-4.653113178840163,29.984828918961306,13.194835763873538,-0.033019935,-1.0100071800000001,0.098693595,1.6022999999999998,7.43162,-17.8542,71.0
1774822377.4864335,0.009865522384643555,2026-03-29T22:12:57.486,2026-03-29T18:12:57.486,-33631.2,-47372.67,-84584.34,-49554.36,-13990.23,-18669.059999999998,6210.045,-64000.079999999994,-5.639981300798753,-8.436869156395893,-9.312675487691672,-10.38058848195964,-12.56180852626425,-13.713509319760412,9.582829668831033,3.6353450711264133,-0.033019935,-1.0100071800000001,0.098693595,1.6022999999999998,7.43162,-17.8542,71.0
1774822377.4864538,2.0265579223632812e-05,2026-03-29T22:12:57.486,2026-03-29T18:12:57.486,-33637.635,-47382.93,-84598.73999999999,-49562.955,-13996.755,-18679.86,6134.13,-64027.215,-9.70860510942354,-11.055158274122453,-11.926831447229251,-12.856941808230024,-14.89174082012915,-16.332023701279432,-15.043355703230729,-7.581990883203341,-0.033019935,-1.0100071800000001,0.098693595,1.6022999999999998,7.43162,-17.8542,71.0
1774822377.4864707,1.6927719116210938e-05,2026-03-29T22:12:57.486,2026-03-29T18:12:57.486,-33612.479999999996,-47350.395,-84562.29,-49518.0,-13948.47,-18649.844999999998,6145.605,-64020.645,-9.237502423718475,-8.548837240287229,-9.049718984126573,-9.30772728915586,-10.370552825213608,-11.435571067299357,-32.665300016141295,-15.364909196827659,-0.033019935,-1.0100071800000001,0.098693595,1.6022999999999998,7.43162,-17.8542,71.0
1774822377.4864783,7.62939453125e-06,2026-03-29T22:12:57.486,2026-03-29T18:12:57.486,-33614.729999999996,-47347.515,-84553.33499999999,-49506.705,-13940.324999999999,-18631.8,6208.0199999999995,-64012.905,-4.477542881900869,-2.1830009643742194,-2.219948152066539,-1.644858509274818,-1.2189398210090248,-1.4106630531780375,-35.340457494132856,-16.185634948595116,-0.033019935,-1.0100071800000001,0.098693595,1.6022999999999998,7.43162,-17.8542,71.0
1774822377.4887135,0.0022351741790771484,2026-03-29T22:12:57.488,2026-03-29T18:12:57.488,-33618.33,-47351.79,-84559.095,-49523.49,-13978.17,-18628.649999999998,6225.389999999999,-64008.72,2.331349311153419,5.047416371902906,5.316888609357842,6.4112281358505285,8.283861844406964,9.057835265897,-22.029068895930042,-9.693355567777369,-0.028015065,-1.01598861,0.09973119,-0.27468,6.134519999999999,-16.023,71.0
1774822377.4887226,9.059906005859375e-06,2026-03-29T22:12:57.488,2026-03-29T18:12:57.488,-33615.72,-47351.115,-84559.275,-49532.49,-13985.189999999999,-18630.899999999998,6202.17,-64010.744999999995,8.004807417276348,9.813427375157547,10.135845124041992,11.12559593825814,13.796555055020175,15.176830544152047,1.007570065581786,1.1339011446141964,-0.028015065,-1.01598861,0.09973119,-0.27468,6.134519999999999,-16.023,71.0
1774822377.492777,0.004054546356201172,2026-03-29T22:12:57.492,2026-03-29T18:12:57.492,-33620.265,-47361.015,-84575.295,-49532.49,-13938.795,-18630.719999999998,6214.995,-64012.229999999996,9.897288901860373,9.972040313078185,10.17400934491484,10.472472205004651,12.89369777497343,14.240201148213536,23.17632870417427,11.364353177733834,-0.028015065,-1.01598861,0.09973119,-0.27468,6.134519999999999,-16.023,71.0
1774822377.4927902,1.3113021850585938e-05,2026-03-29T22:12:57.492,2026-03-29T18:12:57.492,-33611.13,-47349.854999999996,-84565.34999999999,-49528.935,-13945.635,-18643.95,6233.085,-64009.53,7.135749363186925,5.522798532346051,5.599769309636874,4.996966719767842,6.126903644707688,6.8238224733428625,34.4688459250206,16.374921345454055,-0.028015065,-1.01598861,0.09973119,-0.27468,6.134519999999999,-16.023,71.0
1774822377.497504,0.004713773727416992,2026-03-29T22:12:57.497,2026-03-29T18:12:57.497,-33616.71,-47351.924999999996,-84566.47499999999,-49535.369999999995,-13967.73,-18651.915,6243.57,-64015.875,1.0282404746465201,-1.4224392343304868,-1.3484217453429581,-2.5467567362353027,-3.291883344591275,-3.5462421686956103,30.021656653237567,13.955367604566808,-0.028015065,-1.01598861,0.09973119,-0.27468,6.134519999999999,-16.023,71.0
1774822377.4975157,1.1682510375976562e-05,2026-03-29T22:12:57.497,2026-03-29T18:12:57.497,-33654.869999999995,-47395.08,-84610.62,-49576.409999999996,-14007.824999999999,-18689.94,6197.04,-64039.365,-5.546690301352331,-7.629942110526738,-7.441524220109041,-8.563577243198637,-11.010524147344121,-12.068996213099265,12.222320020109974,5.289404373379673,-0.028015065,-1.01598861,0.09973119,-0.27468,6.134519999999999,-16.023,71.0
1774822377.5024252,0.004909515380859375,2026-03-29T22:12:57.502,2026-03-29T18:12:57.502,-33665.04,-47409.075,-84626.955,-49590.765,-14022.135,-18705.195,6150.014999999999,-64054.755,-9.488917158095866,-10.235811277262775,-9.943850229136679,-10.319024691950164,-13.543305023307678,-14.892223809095261,-10.555473696750811,-5.625361033940334,-0.028015065,-1.01598861,0.09973119,-0.27468,6.134519999999999,-16.023,71.0
1774822377.5024395,1.430511474609375e-05,2026-03-29T22:12:57.502,2026-03-29T18:12:57.502,-33633.9,-47373.57,-84592.34999999999,-49558.68,-13990.545,-18671.219999999998,6156.9,-64043.865,-8.93525761153291,-8.057514021405375,-7.8276311823898945,-7.174194113822632,-9.841394740688937,-10.854722160924373,-27.92297825285255,-13.833445977728331,-0.028015065,-1.01598861,0.09973119,-0.27468,6.134519999999999,-16.023,71.0
1774822377.5189564,0.016516923904418945,2026-03-29T22:12:57.518,2026-03-29T18:12:57.518,-33622.244999999995,-47357.415,-84572.37,-49530.869999999995,-13955.67,-18634.68,6188.04,-64035.27,-4.142520347184589,-2.129267103395007,-2.1861579872560135,-0.8002217767080604,-1.7215263334502278,-1.9589248726212467,-32.254889371558164,-15.685822690601533,-0.028015065,-1.01598861,0.09973119,-0.27468,6.134519999999999,-16.023,71.0
1774822377.5189729,1.6450881958007812e-05,2026-03-29T22:12:57.518,2026-03-29T18:12:57.518,-33637.59,-47380.095,-84601.34999999999,-49560.57,-13987.17,-18666.855,6182.91,-64028.924999999996,2.624961621998603,4.780746659287904,4.315605285142871,5.688725782803538,7.019686672323376,7.615957292866034,-22.05807120932788,-10.470995736202582,-0.028015065,-1.01598861,0.09973119,-0.27468,6.134519999999999,-16.023,71.0
1774822377.5189877,1.4781951904296875e-05,2026-03-29T22:12:57.518,2026-03-29T18:12:57.518,-33659.505,-47407.905,-84633.525,-49597.74,-14024.519999999999,-18696.285,6193.844999999999,-64027.935,8.157631749978576,9.45005419763302,8.683073163912322,9.24212232247459,12.377088078729583,13.476870573878204,-2.432812242249,-0.6797523176549356,-0.01794429,-1.025815245,0.10192845,2.1364,7.56896,-13.00152,71.0
1774822377.518992,4.291534423828125e-06,2026-03-29T22:12:57.518,2026-03-29T18:12:57.518,-33658.02,-47402.955,-84623.31,-49591.08,-14024.07,-18702.045,6179.804999999999,-64037.564999999995,9.81785072515024,9.69315978296459,8.955819116942807,8.296705972917424,11.969858413433855,13.03463693465915,17.481457628623165,9.189727562701249,-0.01794429,-1.025815245,0.10192845,2.1364,7.56896,-13.00152,71.0
1774822377.5189984,6.4373016357421875e-06,2026-03-29T22:12:57.518,2026-03-29T18:12:57.518,-33627.825,-47368.215,-84585.51,-49555.17,-13992.48,-18679.094999999998,6188.085,-64021.59,6.796616197357483,5.379594339305193,5.079562602514489,3.457402342398832,6.098477924791922,6.649152416459598,28.793848948176276,14.710308010150053,-0.01794429,-1.025815245,0.10192845,2.1364,7.56896,-13.00152,71.0
1774822377.5190024,4.0531158447265625e-06,2026-03-29T22:12:57.519,2026-03-29T18:12:57.519,-33614.595,-47350.619999999995,-84570.93,-49540.229999999996,-13977.494999999999,-18661.815,6214.635,-64006.38,0.5108319054441566,-1.493652454479228,-1.097608261625341,-2.857615517226651,-2.44314686094918,-2.6050064626363145,26.856284159709844,13.521658924677508,-0.01794429,-1.025815245,0.10192845,2.1364,7.56896,-13.00152,71.0
1774822377.519008,5.4836273193359375e-06,2026-03-29T22:12:57.519,2026-03-29T18:12:57.519,-33629.895,-47360.07,-84573.45,-49544.235,-13984.019999999999,-18665.954999999998,6213.15,-64006.064999999995,-6.0557504460282185,-7.716771637186417,-6.692065781251329,-7.609945242352467,-9.69277357897174,-10.414654792568351,13.158352350972436,6.339019540070839,-0.01794429,-1.025815245,0.10192845,2.1364,7.56896,-13.00152,71.0
1774822377.5190115,3.5762786865234375e-06,2026-03-29T22:12:57.519,2026-03-29T18:12:57.519,-33664.815,-47397.689999999995,-84613.31999999999,-49582.395,-14021.595,-18705.69,6155.19,-64039.409999999996,-9.764069555173949,-10.355068286300554,-9.114744558130157,-8.58976399236948,-12.356173717219033,-13.239317911271137,-5.640507817801647,-3.4555281612830755,-0.01794429,-1.025815245,0.10192845,2.1364,7.56896,-13.00152,71.0
1774822377.524998,0.005986452102661133,2026-03-29T22:12:57.524,2026-03-29T18:12:57.524,-33692.085,-47430.27,-84647.7,-49609.755,-14048.955,-18738.27,6122.474999999999,-64067.85,-8.817878797202884,-8.125592073953033,-7.258616224557659,-5.4351506546976,-9.304734950221,-9.919802737868723,-20.96013957481808,-11.412749674380898,-0.01794429,-1.025815245,0.10192845,2.1364,7.56896,-13.00152,71.0
1774822377.5250149,1.6927719116210938e-05,2026-03-29T22:12:57.525,2026-03-29T18:12:57.525,-33670.979999999996,-47407.545,-84623.715,-49576.095,-14005.845,-18693.225,6135.66,-64067.895,-3.6339102956098572,-2.0195336208433243,-2.003723589490275,0.2446580815105307,-2.0530733238217596,-2.151779948634566,-26.238382542311047,-14.046512081702685,-0.01794429,-1.025815245,0.10192845,2.1364,7.56896,-13.00152,71.0
1774822377.52503,1.5020370483398438e-05,2026-03-29T22:12:57.525,2026-03-29T18:12:57.525,-33627.645,-47353.229999999996,-84568.86,-49526.415,-13956.795,-18641.969999999998,6121.844999999999,-64064.43,3.33819716232537,5.131694921141263,4.190797263325202,5.677988258854425,5.985654223521394,6.36819523384061,-19.740532462725092,-10.363705107665503,-0.01794429,-1.025815245,0.10192845,2.1364,7.56896,-13.00152,71.0
1774822377.525035,5.0067901611328125e-06,2026-03-29T22:12:57.525,2026-03-29T18:12:57.525,-33579.765,-47302.29,-84518.325,-49473.81,-13902.615,-18588.329999999998,6154.11,-64024.244999999995,8.770621787376328,9.96086028190872,8.42339238906393,8.269996376439243,11.104006643100538,11.699145740849325,-5.038643724080156,-2.221428026678367,-0.01794429,-1.025815245,0.10192845,2.1364,7.56896,-13.00152,71.0
1774822377.5286324,0.0035974979400634766,2026-03-29T22:12:57.528,2026-03-29T18:12:57.528,-33571.26,-47299.365,-84515.58,-49473.0,-13905.945,-18597.555,6223.23,-63984.645,10.043592702508569,10.143088507098804,8.696878401011753,6.830840333640389,11.011321968779708,11.481359427895894,10.910523646144407,6.6065969575954755,-0.004821765,-1.02917217,0.104552955,5.7988,10.71252,-10.056339999999999,71.0
1774822377.5286608,2.8371810913085938e-05,2026-03-29T22:12:57.528,2026-03-29T18:12:57.528,-33612.39,-47345.715,-84560.04,-49521.555,-13956.48,-18644.67,6253.469999999999,-63995.534999999996,6.507412423154104,5.5110697351004125,4.855649189414327,2.1159771802147853,5.861328817826188,5.984487301832189,21.068917187907655,12.1856177384751,-0.004821765,-1.02917217,0.104552955,5.7988,10.71252,-10.056339999999999,71.0
1774822377.532731,0.004070281982421875,2026-03-29T22:12:57.532,2026-03-29T18:12:57.532,-33638.625,-47376.27,-84595.455,-49566.645,-14007.869999999999,-18684.989999999998,6220.26,-64018.079999999994,-0.18786900405756182,-1.826732048971306,-1.324831153452521,-3.5643213384784773,-1.8661314761800392,-2.08909565396629,21.42721634822936,12.177290885011299,-0.004821765,-1.02917217,0.104552955,5.7988,10.71252,-10.056339999999999,71.0
1774822377.5327487,1.7642974853515625e-05,2026-03-29T22:12:57.532,2026-03-29T18:12:57.532,-33638.13,-47373.93,-84594.95999999999,-49564.755,-14004.72,-18682.695,6196.545,-64017.405,-6.8621748892524375,-8.440423387399374,-6.948427396086934,-7.467051118444003,-8.5548965088344,-8.924146930249735,12.545823883836148,6.81232542962983,-0.004821765,-1.02917217,0.104552955,5.7988,10.71252,-10.056339999999999,71.0
1774822377.5364747,0.0037260055541992188,2026-03-29T22:12:57.536,2026-03-29T18:12:57.536,-33603.615,-47333.79,-84549.15,-49526.415,-13989.869999999999,-18671.985,6197.849999999999,-63994.454999999994,-10.315677779048865,-11.17669601686685,-9.344061830039713,-7.729275953527042,-11.144943279459387,-11.394576826707416,-1.040936399762688,-1.321909134251757,-0.004821765,-1.02917217,0.104552955,5.7988,10.71252,-10.056339999999999,71.0
1774822377.536491,1.621246337890625e-05,2026-03-29T22:12:57.536,2026-03-29T18:12:57.536,-33611.625,-47344.59,-84556.26,-49528.619999999995,-13998.195,-18678.6,6220.71,-63997.244999999995,-8.862042209990417,-8.658185774577253,-7.326600731433296,-4.24805770291759,-8.535256237693124,-8.496929069632158,-13.12295812498716,-8.530460377074146,-0.004821765,-1.02917217,0.104552955,5.7988,10.71252,-10.056339999999999,71.0
1774822377.5467951,0.01030421257019043,2026-03-29T22:12:57.546,2026-03-29T18:12:57.546,-33640.515,-47388.465,-84618.94499999999,-49570.155,-14010.705,-18692.46,6199.335,-64021.77,-3.149609325176065,-1.9723124976793935,-1.7805325218210701,1.2844663787389086,-2.052441127173808,-1.7564103436035645,-18.655421984621384,-11.692385213078401,-0.004821765,-1.02917217,0.104552955,5.7988,10.71252,-10.056339999999999,71.0
1774822377.546815,1.9788742065429688e-05,2026-03-29T22:12:57.546,2026-03-29T18:12:57.546,-33640.244999999995,-47386.665,-84621.69,-49579.875,-13990.095,-18681.975,6146.6849999999995,-64061.235,4.129068111765604,5.793930447299441,4.720806283384071,6.199748236042147,5.214887296521488,5.558052359455048,-15.841800479158286,-9.607874495456494,-0.004821765,-1.02917217,0.104552955,5.7988,10.71252,-10.056339999999999,71.0
1774822377.5468323,1.7404556274414062e-05,2026-03-29T22:12:57.546,2026-03-29T18:12:57.546,-33615.72,-47344.545,-84571.02,-49533.795,-13964.625,-18655.155,6187.41,-64058.895,9.5088718109617,10.977099273176838,9.100887268586883,8.130848969145335,9.885472517017748,10.012345809965318,-6.612494701501085,-3.4318062545558052,-0.004821765,-1.02917217,0.104552955,5.7988,10.71252,-10.056339999999999,71.0
1774822377.54684,7.62939453125e-06,2026-03-29T22:12:57.546,2026-03-29T18:12:57.546,-33640.965,-47375.82,-84604.995,-49559.58,-13990.005,-18671.67,6212.07,-64035.54,10.40305448548433,11.063382952986407,9.228315535551223,6.141384590456154,9.860287954761139,9.619698736288846,4.556786159981756,3.949907996624086,-0.004821765,-1.02917217,0.104552955,5.7988,10.71252,-10.056339999999999,71.0
1774822377.5468488,8.821487426757812e-06,2026-03-29T22:12:57.546,2026-03-29T18:12:57.546,-33654.69,-47399.759999999995,-84629.295,-49579.695,-14010.48,-18693.27,6170.804999999999,-64016.64,6.345738949141296,5.90474421368479,4.948893323295871,1.1711254284119241,5.26847130418814,4.729889090975569,12.805549362805358,9.269945226801731,0.0034179600000000003,-1.02599835,0.101501205,5.69198,12.72684,-9.04918,71.0
1774822377.546856,7.152557373046875e-06,2026-03-29T22:12:57.546,2026-03-29T18:12:57.546,-33637.635,-47376.854999999996,-84593.87999999999,-49542.075,-13976.46,-18661.635,6161.76,-64015.695,-0.7709356849977095,-2.1627900776774993,-1.7970507756055611,-4.410631504752427,-1.6432470665272225,-2.2041203983737043,14.988483672729018,10.323047239928473,0.0034179600000000003,-1.02599835,0.101501205,5.69198,12.72684,-9.04918,71.0
1774822377.5530095,0.006153583526611328,2026-03-29T22:12:57.553,2026-03-29T18:12:57.553,-33616.305,-47350.125,-84563.19,-49514.265,-13948.199999999999,-18629.325,6184.3949999999995,-64016.325,-7.583998702312594,-9.377165775437442,-7.849438293310498,-7.930673992439718,-7.604374698592085,-7.843476362169847,10.816184400432364,6.867041275193349,0.0034179600000000003,-1.02599835,0.101501205,5.69198,12.72684,-9.04918,71.0
1774822377.5530348,2.5272369384765625e-05,2026-03-29T22:12:57.553,2026-03-29T18:12:57.553,-33619.77,-47360.159999999996,-84582.315,-49537.53,-13969.755,-18649.53,6211.53,-64014.479999999996,-10.853021214667468,-12.305699854563393,-10.303821863391574,-7.683238447981939,-9.867211740867084,-9.565512810679337,2.65837528426248,0.620651826027283,0.0034179600000000003,-1.02599835,0.101501205,5.69198,12.72684,-9.04918,71.0
1774822377.556527,0.003492116928100586,2026-03-29T22:12:57.556,2026-03-29T18:12:57.556,-33632.64,-47363.715,-84581.685,-49545.854999999996,-13983.255,-18664.29,6215.445,-64027.35,-9.002487145070694,-9.4779951226256,-7.900566416641406,-3.7459043800961913,-7.474942291229006,-6.684007287126514,-5.745321364132709,-5.586859907363667,0.0034179600000000003,-1.02599835,0.101501205,5.69198,12.72684,-9.04918,71.0
1774822377.556547,2.002716064453125e-05,2026-03-29T22:12:57.556,2026-03-29T18:12:57.556,-33628.994999999995,-47357.865,-84576.19499999999,-49549.455,-13993.47,-18683.235,6204.51,-64019.52,-2.877953077923506,-2.1190532311686563,-1.664616717128285,2.0461847120862924,-1.6652267717787024,-0.7196096645561322,-10.984865334420512,-9.09476570510597,0.0034179600000000003,-1.02599835,0.101501205,5.69198,12.72684,-9.04918,71.0
1774822377.5606475,0.0041005611419677734,2026-03-29T22:12:57.560,2026-03-29T18:12:57.560,-33629.354999999996,-47364.255,-84586.77,-49555.979999999996,-14002.425,-18697.274999999998,6170.3099999999995,-64022.67,4.646020739217192,6.38157381709264,5.527295612039351,6.957677427811752,4.760310913242149,5.384421336192233,-11.32437916798637,-8.541381255728641,0.0034179600000000003,-1.02599835,0.101501205,5.69198,12.72684,-9.04918,71.0
1774822377.560669,2.1457672119140625e-05,2026-03-29T22:12:57.560,2026-03-29T18:12:57.560,-33605.64,-47342.97,-84564.18,-49519.395,-13960.305,-18654.39,6171.525,-64012.86,10.021851743456837,12.034909505058582,10.272169551976747,8.640522510208628,8.782964937007366,8.703173144345058,-7.184536253141179,-4.371064522414207,0.0034179600000000003,-1.02599835,0.101501205,5.69198,12.72684,-9.04918,71.0
1774822377.5684984,0.007829427719116211,2026-03-29T22:12:57.568,2026-03-29T18:12:57.568,-33595.29,-47329.56,-84552.705,-49506.525,-13949.369999999999,-18643.364999999998,6190.605,-64010.07,10.705932371636017,12.127425209600753,10.249014778757024,6.247213020401708,8.58402170252215,7.7264853317422935,-0.6909189824478642,1.4583531756616066,0.0034179600000000003,-1.02599835,0.101501205,5.69198,12.72684,-9.04918,71.0
1774822377.5685196,2.1219253540039062e-05,2026-03-29T22:12:57.568,2026-03-29T18:12:57.568,-33615.854999999996,-47345.58,-84564.54,-49522.409999999996,-13968.225,-18653.265,6215.085,-64016.774999999994,6.361557334073415,6.5225807223493995,5.350099658206547,0.8455298535789406,4.367070102848032,3.0460435839893676,5.3871120178366265,6.391532470979399,0.0034179600000000003,-1.02599835,0.101501205,5.69198,12.72684,-9.04918,71.0
1774822377.568539,1.9311904907226562e-05,2026-03-29T22:12:57.568,2026-03-29T18:12:57.568,-33648.57,-47381.895,-84595.095,-49552.29,-13996.305,-18674.954999999998,6184.44,-64036.305,-0.9812637685881052,-2.235543517210593,-2.2153470475157166,-5.063755204745965,-1.7861375741100207,-2.9793395283477455,8.78881366398295,8.387537270185788,0.0054931500000000005,-1.01025132,0.10339329,2.12114,13.06256,-10.16316,71.0
1774822377.568549,1.0013580322265625e-05,2026-03-29T22:12:57.568,2026-03-29T18:12:57.568,-33677.19,-47424.104999999996,-84644.01,-49595.445,-14031.09,-18702.045,6170.76,-64047.96,-7.88265374875844,-10.082405672004253,-8.918244484727277,-8.705687359783369,-6.936778123667985,-7.398430735648192,8.542216542806305,6.748085464044568,0.0054931500000000005,-1.01025132,0.10339329,2.12114,13.06256,-10.16316,71.0
1774822377.5726924,0.004143476486206055,2026-03-29T22:12:57.572,2026-03-29T18:12:57.572,-33663.284999999996,-47412.27,-84635.50499999999,-49566.825,-14001.885,-18684.855,6175.485,-64040.04,-11.11155345475269,-13.325473065164381,-11.55744802174385,-8.328894791528128,-8.688359009564977,-8.102328042942863,5.140337886022245,2.335022979416749,0.0054931500000000005,-1.01025132,0.10339329,2.12114,13.06256,-10.16316,71.0
1774822377.5727131,2.0742416381835938e-05,2026-03-29T22:12:57.572,2026-03-29T18:12:57.572,-33640.65,-47387.159999999996,-84607.83,-49519.53,-13955.58,-18653.489999999998,6182.28,-64031.13,-9.161019823355378,-10.384756523044524,-8.787830709766462,-4.037440635736892,-6.299486377114132,-4.8256896209521765,0.15734826108136868,-2.8735574884508712,0.0054931500000000005,-1.01025132,0.10339329,2.12114,13.06256,-10.16316,71.0
1774822377.6076598,0.03494668006896973,2026-03-29T22:12:57.607,2026-03-29T18:12:57.607,-33623.685,-47363.265,-84579.525,-49497.165,-13945.904999999999,-18630.225,6191.235,-64029.195,-2.9480130572035614,-2.559153467437324,-1.798832031524782,2.2342696275138367,-0.9942960467790797,0.7589047677420778,-4.454181056363358,-6.663155924098946,0.0054931500000000005,-1.01025132,0.10339329,2.12114,13.06256,-10.16316,71.0
1774822377.6076825,2.2649765014648438e-05,2026-03-29T22:12:57.607,2026-03-29T18:12:57.607,-33611.534999999996,-47343.645,-84547.98,-49499.28,-13972.814999999999,-18624.285,6200.054999999999,-64022.805,4.6258532022767405,6.552125175685293,6.196687745202627,7.598532378559353,4.6573490363011905,5.883568170927315,-7.083748010701557,-7.510604162355129,0.0054931500000000005,-1.01025132,0.10339329,2.12114,13.06256,-10.16316,71.0
1774822377.607704,2.1457672119140625e-05,2026-03-29T22:12:57.607,2026-03-29T18:12:57.607,-33608.79,-47337.659999999996,-84556.485,-49540.185,-13989.96,-18656.415,6188.535,-64023.03,10.038559789920535,12.713099343470832,11.44380939933442,9.543341707760737,7.978562750540872,8.044178070970805,-6.962226441193776,-5.1784885822048325,0.0054931500000000005,-1.01025132,0.10339329,2.12114,13.06256,-10.16316,71.0
1774822377.6077113,7.3909759521484375e-06,2026-03-29T22:12:57.607,2026-03-29T18:12:57.607,-33620.04,-47354.04,-84577.455,-49548.78,-13969.394999999999,-18673.695,6199.0199999999995,-64027.305,10.79121024787106,13.026753196205252,11.412024384499679,7.101881120489211,7.448096588527647,6.213217317307521,-4.325243089306355,-0.7543979747706175,0.0054931500000000005,-1.01025132,0.10339329,2.12114,13.06256,-10.16316,71.0
1774822377.6077197,8.344650268554688e-06,2026-03-29T22:12:57.607,2026-03-29T18:12:57.607,-33630.57,-47370.015,-84590.37,-49560.975,-13991.445,-18684.18,6193.755,-64031.399999999994,6.561106470371523,7.298226799777509,6.013969790446214,1.3209015881661206,3.393462343518462,1.3229803620714264,-0.24773623444610499,3.8506405001255644,0.0054931500000000005,-1.01025132,0.10339329,2.12114,13.06256,-10.16316,71.0
1774822377.607726,6.4373016357421875e-06,2026-03-29T22:12:57.607,2026-03-29T18:12:57.607,-33628.5,-47371.365,-84594.555,-49573.259999999995,-14012.775,-18694.934999999998,6157.71,-64024.02,-0.667503891622248,-1.856751141209299,-2.310417307200692,-5.194172936146056,-2.199417688684939,-4.2058626902920135,3.7600268149715674,6.715715769482165,0.0054931500000000005,-1.01025132,0.10339329,2.12114,13.06256,-10.16316,71.0
1774822377.607734,7.867813110351562e-06,2026-03-29T22:12:57.607,2026-03-29T18:12:57.607,-33639.03,-47377.395,-84599.09999999999,-49562.595,-14004.494999999999,-18690.255,6174.855,-64029.284999999996,-7.543751512237382,-10.214831366454957,-9.702365453318315,-9.456709762603445,-6.6532102500794315,-7.653136367155174,6.263729713310924,6.695530530844483,0.00781248,-0.9940160100000001,0.10473606,-3.92182,15.45838,-7.889419999999999,71.0
1774822377.60774,5.9604644775390625e-06,2026-03-29T22:12:57.607,2026-03-29T18:12:57.607,-33646.68,-47385.765,-84608.55,-49572.54,-14017.994999999999,-18697.995,6203.745,-64038.329999999994,-10.911558478790042,-13.902132581061457,-12.679221605174993,-9.465383483732607,-7.873914434466415,-7.324980132487052,6.3802517800241905,3.8652724472030244,0.00781248,-0.9940160100000001,0.10473606,-3.92182,15.45838,-7.889419999999999,71.0
1774822377.6077476,7.62939453125e-06,2026-03-29T22:12:57.607,2026-03-29T18:12:57.607,-33625.845,-47357.64,-84574.98,-49535.729999999996,-13977.945,-18659.655,6199.965,-64037.25,-9.260762067150372,-11.19433491733167,-9.7778903160594,-5.135765799510731,-5.329098454488112,-3.3750468547084536,4.08142955070342,-0.5407075609827746,0.00781248,-0.9940160100000001,0.10473606,-3.92182,15.45838,-7.889419999999999,71.0
1774822377.6077535,5.9604644775390625e-06,2026-03-29T22:12:57.607,2026-03-29T18:12:57.607,-33607.44,-47337.795,-84553.92,-49516.74,-13964.13,-18648.809999999998,6208.11,-64016.145,-3.3995497696463164,-3.3210322847406895,-2.2696569525039836,1.6331610675572015,-0.27538348012751435,2.2728738237262363,0.2236639750078023,-4.657513255202509,0.00781248,-0.9940160100000001,0.10473606,-3.92182,15.45838,-7.889419999999999,71.0
1774822377.607761,7.3909759521484375e-06,2026-03-29T22:12:57.607,2026-03-29T18:12:57.607,-33630.03,-47367.72,-84587.76,-49551.075,-13999.545,-18678.105,6196.679999999999,-64019.52,3.948791172115854,6.100079227456133,6.401447646703398,7.79686484334342,4.859412712503005,6.859778663799231,-3.731385959055776,-6.764312893236329,0.00781248,-0.9940160100000001,0.10473606,-3.92182,15.45838,-7.889419999999999,71.0
1774822377.6077666,5.7220458984375e-06,2026-03-29T22:12:57.607,2026-03-29T18:12:57.607,-33648.885,-47396.79,-84621.645,-49581.405,-14025.689999999999,-18698.04,6164.1449999999995,-64031.625,9.420499276184332,12.735305124490154,12.206481530977326,10.535656600324579,7.63657313868963,8.130330608061147,-6.239592260224938,-5.991110265036987,0.00781248,-0.9940160100000001,0.10473606,-3.92182,15.45838,-7.889419999999999,71.0
1774822377.6077735,6.9141387939453125e-06,2026-03-29T22:12:57.607,2026-03-29T18:12:57.607,-33621.659999999996,-47368.439999999995,-84595.095,-49552.965,-13995.539999999999,-18675.315,6154.38,-64028.52,10.556467843425187,13.535884209906051,12.4097836910716,8.540608467804793,6.757052341502983,5.42931700954905,-6.271201525817933,-2.6740943860906237,0.00781248,-0.9940160100000001,0.10473606,-3.92182,15.45838,-7.889419999999999,71.0
1774822377.6077793,5.7220458984375e-06,2026-03-29T22:12:57.607,2026-03-29T18:12:57.607,-33579.18,-47312.28,-84530.79,-49486.59,-13932.404999999999,-18624.329999999998,6168.51,-64019.024999999994,6.905666528567002,8.140365089578436,6.858909461543314,2.6305445845095625,2.6626885139515277,0.027274130485816263,-3.7526948394305117,1.7836332293805182,0.00781248,-0.9940160100000001,0.10473606,-3.92182,15.45838,-7.889419999999999,71.0
1774822377.6077867,7.3909759521484375e-06,2026-03-29T22:12:57.607,2026-03-29T18:12:57.607,-33580.619999999995,-47310.119999999995,-84522.555,-49479.93,-13927.365,-18625.094999999998,6198.4349999999995,-64014.39,0.19271930363125647,-0.9673793735799351,-1.9225511259078538,-4.587194686206624,-2.6873631465635883,-5.482303195212914,0.3470838873829222,5.4920143975250655,0.00781248,-0.9940160100000001,0.10473606,-3.92182,15.45838,-7.889419999999999,71.0
1774822377.6077929,6.198883056640625e-06,2026-03-29T22:12:57.607,2026-03-29T18:12:57.607,-33616.979999999996,-47345.939999999995,-84558.555,-49531.095,-13985.234999999999,-18672.704999999998,6182.01,-64032.03,-6.5056857615646395,-9.610975448951159,-9.89057226037944,-9.870120208410762,-6.751339689844907,-8.426220091045273,4.361831142902937,6.86225341795635,0.00781248,-0.9940160100000001,0.10473606,-3.92182,15.45838,-7.889419999999999,71.0
1774822377.6077998,6.9141387939453125e-06,2026-03-29T22:12:57.607,2026-03-29T18:12:57.607,-33635.52,-47378.564999999995,-84601.75499999999,-49564.619999999995,-14016.914999999999,-18696.645,6192.945,-64011.465,-10.178303093236035,-13.845788435811668,-13.35165949911604,-10.796869249686756,-7.605939914513874,-7.340099085518281,6.597064233005422,5.2814783681846835,0.0074462700000000005,-0.9840673050000001,0.102721905,-6.958559999999999,15.82462,-16.80126,71.0
1774822377.6078055,5.7220458984375e-06,2026-03-29T22:12:57.607,2026-03-29T18:12:57.607,-33642.36,-47403.09,-84639.59999999999,-49578.03,-14022.99,-18709.469999999998,6191.415,-63998.685,-9.234260659370799,-11.763697740408713,-10.67948507829457,-6.872900079136162,-4.848941769332013,-2.6842752040841464,6.0579734385299435,1.3903343011824816,0.0074462700000000005,-0.9840673050000001,0.102721905,-6.958559999999999,15.82462,-16.80126,71.0
1774822377.6140094,0.006203889846801758,2026-03-29T22:12:57.614,2026-03-29T18:12:57.614,-33639.57,-47388.42,-84615.84,-49567.86,-14014.664999999999,-18695.07,6152.76,-64025.325,-4.185288813783599,-4.350551625381747,-3.0770782094850664,0.21736853571969775,0.21709197451293435,3.35844676169102,2.9155363155629304,-3.16401291939812,0.0074462700000000005,-0.9840673050000001,0.102721905,-6.958559999999999,15.82462,-16.80126,71.0
1774822377.6140292,1.9788742065429688e-05,2026-03-29T22:12:57.614,2026-03-29T18:12:57.614,-33647.985,-47372.49,-84587.44499999999,-49551.705,-14012.595,-18692.82,6098.13,-64095.93,2.6336121739054654,4.9877913041627115,5.971881008223911,7.33657846340488,5.201645422362126,7.911198962254912,-1.5185406364165812,-6.411487690191633,0.0074462700000000005,-0.9840673050000001,0.102721905,-6.958559999999999,15.82462,-16.80126,71.0
1774822377.6200943,0.0060651302337646484,2026-03-29T22:12:57.620,2026-03-29T18:12:57.620,-33631.92,-47348.909999999996,-84567.645,-49540.185,-14009.175,-18703.665,6098.175,-64101.509999999995,8.152367553664481,11.999755944122702,12.309020687062981,11.284663009764133,7.75114687703238,8.771249193838692,-5.328914498938927,-6.902777130405841,0.0074462700000000005,-0.9840673050000001,0.102721905,-6.958559999999999,15.82462,-16.80126,71.0
1774822377.6201227,2.8371810913085938e-05,2026-03-29T22:12:57.620,2026-03-29T18:12:57.620,-33613.155,-47350.17,-84578.805,-49546.125,-14007.465,-18692.1,6184.844999999999,-64022.265,9.951939267899904,13.530510373735119,13.019590854194089,10.236828198223293,6.654074133088998,5.467872013677311,-6.830251383603507,-4.355970479468707,0.0074462700000000005,-0.9840673050000001,0.102721905,-6.958559999999999,15.82462,-16.80126,71.0
1774822377.62015,2.7418136596679688e-05,2026-03-29T22:12:57.620,2026-03-29T18:12:57.620,-33629.715,-47380.005,-84605.31,-49564.89,-14021.73,-18695.52,6226.83,-63983.79,7.320792777744917,8.941966153886911,7.7746709825373586,4.583612842431186,2.4099719069671712,-0.4953259747297555,-5.330259253374746,0.1824007497168856,0.0074462700000000005,-0.9840673050000001,0.102721905,-6.958559999999999,15.82462,-16.80126,71.0
1774822377.6201615,1.1444091796875e-05,2026-03-29T22:12:57.620,2026-03-29T18:12:57.620,-33639.84,-47394.225,-84620.79,-49577.534999999996,-14025.689999999999,-18694.395,6204.465,-64002.06,1.5224583651729777,0.3710775350607581,-1.0215544553327853,-3.2123233641699036,-3.0023027927349353,-6.333691127545379,-1.467719555849167,4.753068347358619,0.0074462700000000005,-0.9840673050000001,0.102721905,-6.958559999999999,15.82462,-16.80126,71.0
1774822377.628451,0.008289575576782227,2026-03-29T22:12:57.628,2026-03-29T18:12:57.628,-33620.715,-47372.22,-84598.875,-49557.104999999996,-14004.09,-18674.28,6184.3949999999995,-64002.375,-4.818292550833451,-8.2736836430326,-9.3429573459651,-9.691525425233229,-7.04809199310677,-9.28734333389389,3.0471509038161693,7.3191807158807505,0.0074462700000000005,-0.9840673050000001,0.102721905,-6.958559999999999,15.82462,-16.80126,71.0
1774822377.6284811,3.0040740966796875e-05,2026-03-29T22:12:57.628,2026-03-29T18:12:57.628,-33618.51,-47362.5,-84583.665,-49540.185,-13989.33,-18666.495,6156.179999999999,-64018.619999999995,-8.909447564316215,-13.102520257225084,-13.393159786181927,-11.934981845320861,-7.821240223164378,-7.925116880480193,6.190098488911659,6.670251059156862,0.0074462700000000005,-0.9840673050000001,0.102721905,-6.958559999999999,15.82462,-16.80126,71.0
1774822377.628512,3.075599670410156e-05,2026-03-29T22:12:57.628,2026-03-29T18:12:57.628,-33613.38,-47353.77,-84570.705,-49519.125,-13964.22,-18640.485,6200.73,-64022.354999999996,-9.02010704573347,-11.997548715091575,-11.341931891292202,-8.87968917412404,-4.937175821940081,-2.8307060085950098,6.541288053080825,2.995429761306018,0.00708006,-0.98412834,0.104308815,-5.29522,17.549,-19.258119999999998,71.0
1774822377.6285233,1.1444091796875e-05,2026-03-29T22:12:57.628,2026-03-29T18:12:57.628,-33598.979999999996,-47340.45,-84553.33499999999,-49505.22,-13951.215,-18618.57,6233.219999999999,-64008.81,-5.203500996457685,-5.537652057070999,-4.150108833705337,-1.8195576518753147,0.28170287947708134,3.6554922645171444,3.9422232734279263,-2.1464168117058406,0.00708006,-0.98412834,0.104308815,-5.29522,17.549,-19.258119999999998,71.0
1774822377.633173,0.004649639129638672,2026-03-29T22:12:57.633,2026-03-29T18:12:57.633,-33605.325,-47344.68,-84558.465,-49520.43,-13974.48,-18642.015,6212.295,-64021.454999999994,0.7822297021106798,3.3065616922853067,4.887536371657066,6.143481733465007,5.415869737463698,8.521365557184527,-0.4198500163768813,-6.475386951911732,0.00708006,-0.98412834,0.104308815,-5.29522,17.549,-19.258119999999998,71.0
1774822377.633196,2.3126602172851562e-05,2026-03-29T22:12:57.633,2026-03-29T18:12:57.633,-33598.619999999995,-47331.225,-84546.22499999999,-49506.255,-13971.51,-18636.434999999998,6178.995,-64046.835,6.290526825026488,10.546347899590344,11.660667516665683,11.465349880238152,8.071572042519362,9.488148537294926,-4.549179163957921,-7.9945738473168655,0.00708006,-0.98412834,0.104308815,-5.29522,17.549,-19.258119999999998,71.0
1774822377.6387255,0.0055294036865234375,2026-03-29T22:12:57.638,2026-03-29T18:12:57.638,-33581.115,-47314.89,-84535.065,-49499.415,-13983.84,-18634.995,6183.945,-64026.99,8.958022439804013,12.97830931412793,13.119055834131107,11.740407097385496,6.995604077327038,6.077598706835862,-6.5584562097522205,-5.910576922616376,0.00708006,-0.98412834,0.104308815,-5.29522,17.549,-19.258119999999998,71.0
1774822377.6387725,4.696846008300781e-05,2026-03-29T22:12:57.638,2026-03-29T18:12:57.638,-33584.354999999996,-47322.945,-84542.625,-49504.95,-13981.59,-18658.305,6207.525,-64003.454999999994,7.712113309081726,9.600419699540446,8.64682600586391,6.790724092964343,2.6634302300298613,-0.15876310932668888,-5.541479165433752,-1.0464054990466085,0.00708006,-0.98412834,0.104308815,-5.29522,17.549,-19.258119999999998,71.0
1774822377.6409192,0.0021467208862304688,2026-03-29T22:12:57.640,2026-03-29T18:12:57.640,-33599.295,-47347.47,-84565.17,-49520.025,-13980.105,-18673.2,6235.5599999999995,-63991.755,3.188543949099759,2.0157670134869217,0.3161824117909703,-1.2300445180847854,-2.93436803585846,-6.355941228661218,-1.9931693174445402,4.467255776502722,0.00708006,-0.98412834,0.104308815,-5.29522,17.549,-19.258119999999998,71.0
1774822377.6409357,1.6450881958007812e-05,2026-03-29T22:12:57.640,2026-03-29T18:12:57.640,-33629.94,-47390.22,-84613.05,-49569.93,-14027.13,-18706.815,6221.07,-64003.365,-2.595710748997047,-6.333340818404288,-8.080159592330228,-8.775812599271132,-7.210510942248117,-9.662614398856075,2.422411337816919,8.115934110137275,0.00708006,-0.98412834,0.104308815,-5.29522,17.549,-19.258119999999998,71.0
1774822377.6464128,0.005477190017700195,2026-03-29T22:12:57.646,2026-03-29T18:12:57.646,-33647.805,-47403.945,-84626.81999999999,-49586.445,-14011.154999999999,-18695.114999999998,6192.179999999999,-64029.284999999996,-7.1450807451461085,-11.73265980108159,-12.762562725689088,-12.48031610788292,-8.179634756911225,-8.560016941425152,5.65000400759803,8.144498871508363,0.00708006,-0.98412834,0.104308815,-5.29522,17.549,-19.258119999999998,71.0
1774822377.6464384,2.5510787963867188e-05,2026-03-29T22:12:57.646,2026-03-29T18:12:57.646,-33639.75,-47382.39,-84597.3,-49556.7,-13994.955,-18677.835,6200.37,-64038.6,-8.55823987442427,-11.848979980860499,-11.6686472100217,-10.663820455958986,-5.380991627819163,-3.559483243545905,6.203381497497962,4.401465514306072,0.00708006,-0.98412834,0.104308815,-5.29522,17.549,-19.258119999999998,71.0
1774822377.653104,0.006665706634521484,2026-03-29T22:12:57.653,2026-03-29T18:12:57.653,-33625.665,-47365.604999999996,-84585.69,-49541.22,-13988.43,-18663.93,6205.635,-64033.47,-6.312267195175344,-6.733351402107723,-5.358797831560499,-4.097830950695391,-0.0958475085663518,3.0420757281321356,3.8570370089950328,-1.5217416958387409,0.006530745,-0.9908421900000001,0.10485813000000001,0.28994,17.0912,-22.29486,71.0
1774822377.6531343,3.0279159545898438e-05,2026-03-29T22:12:57.653,2026-03-29T18:12:57.653,-33609.6,-47352.015,-84567.555,-49521.509999999995,-13973.67,-18654.795,6184.71,-64024.244999999995,-1.4405810363224094,1.2537423650689303,3.2726634463915105,4.321910109881499,5.2429787419716645,8.229361942362013,-0.25576480711590505,-6.955472240806517,0.006530745,-0.9908421900000001,0.10485813000000001,0.28994,17.0912,-22.29486,71.0
1774822377.6531575,2.3126602172851562e-05,2026-03-29T22:12:57.653,2026-03-29T18:12:57.653,-33618.015,-47360.07,-84577.14,-49524.615,-13972.769999999999,-18653.94,6181.65,-64030.005,3.9463174816859037,8.535439039246533,10.331047814355955,10.856401839790685,8.176496130471623,9.658018352826188,-4.183825112305371,-9.349196579038228,0.006530745,-0.9908421900000001,0.10485813000000001,0.28994,17.0912,-22.29486,71.0
1774822377.6531684,1.0967254638671875e-05,2026-03-29T22:12:57.653,2026-03-29T18:12:57.653,-33619.994999999995,-47365.83,-84590.37,-49538.115,-13983.615,-18662.805,6206.219999999999,-64027.979999999996,7.573523691079516,11.922033945146616,12.682582817829779,12.59048966333818,7.357525188435675,6.720948897247732,-6.081344596627722,-7.467309451178872,0.006530745,-0.9908421900000001,0.10485813000000001,0.28994,17.0912,-22.29486,71.0
1774822377.6569536,0.0037851333618164062,2026-03-29T22:12:57.656,2026-03-29T18:12:57.656,-33621.615,-47364.705,-84585.19499999999,-49534.38,-13984.019999999999,-18667.17,6187.094999999999,-64038.149999999994,7.954419635328931,10.005846726249585,9.345565859516123,8.740119365176108,3.1724308379580304,0.8034875072910609,-5.076974920671165,-2.0231872028439786,0.006530745,-0.9908421900000001,0.10485813000000001,0.28994,17.0912,-22.29486,71.0
1774822377.6569746,2.09808349609375e-05,2026-03-29T22:12:57.656,2026-03-29T18:12:57.656,-33642.27,-47382.39,-84603.19499999999,-49558.68,-14016.869999999999,-18698.67,6127.92,-64060.335,4.9890325345271735,3.739234821086474,1.8945170446684219,1.0104543463682711,-2.4421416935981974,-5.378825313566139,-1.6783183860418642,4.572424775178616,0.006530745,-0.9908421900000001,0.10485813000000001,0.28994,17.0912,-22.29486,71.0
1774822377.6606576,0.0036830902099609375,2026-03-29T22:12:57.660,2026-03-29T18:12:57.660,-33629.13,-47372.58,-84604.00499999999,-49568.49,-14025.555,-18694.44,6161.804999999999,-64049.715,-0.026675175666620542,-4.037526621180332,-6.285715122166717,-7.160724420396124,-6.901070001857428,-9.040293116951215,2.477602407567237,9.27142584894343,0.006530745,-0.9908421900000001,0.10485813000000001,0.28994,17.0912,-22.29486,71.0
1774822377.6606715,1.3828277587890625e-05,2026-03-29T22:12:57.660,2026-03-29T18:12:57.660,-33615.72,-47357.1,-84583.305,-49547.43,-13997.43,-18663.84,6193.62,-64037.924999999996,-4.967126852035377,-9.885097970072831,-11.541351641187331,-12.138591684461128,-8.169613343823238,-8.5927158996738,5.407213082342918,9.794479606793132,0.006530745,-0.9908421900000001,0.10485813000000001,0.28994,17.0912,-22.29486,71.0
1774822377.6648104,0.004138946533203125,2026-03-29T22:12:57.664,2026-03-29T18:12:57.664,-33599.655,-47342.79,-84563.685,-49532.445,-13986.945,-18662.355,6174.585,-64018.755,-7.77212872708124,-11.285643973290382,-11.583459147324584,-11.717447114905543,-5.700056498746278,-4.3383853991209556,5.723621941098357,5.735518734627874,0.006530745,-0.9908421900000001,0.10485813000000001,0.28994,17.0912,-22.29486,71.0
1774822377.6648278,1.7404556274414062e-05,2026-03-29T22:12:57.664,2026-03-29T18:12:57.664,-33605.415,-47350.53,-84569.67,-49547.7,-14009.22,-18684.765,6164.775,-64013.939999999995,-7.297281372325439,-7.723810959360211,-6.483408217143309,-6.10590758662997,-0.671180908400191,1.7161082163271455,3.2924349937634836,-1.1705339130399468,0.006530745,-0.9908421900000001,0.10485813000000001,0.28994,17.0912,-22.29486,71.0
1774822377.6688204,0.003992557525634766,2026-03-29T22:12:57.668,2026-03-29T18:12:57.668,-33621.615,-47371.275,-84600.765,-49553.369999999995,-14008.05,-18684.855,6174.045,-64025.28,-3.7736915697340803,-0.8660280607798234,1.4017699010396392,2.1727994876528656,4.576348508771255,6.8171264420854625,-0.7098888419407223,-7.779974606998868,0.003601065,-0.990537015,0.106506075,0.3815,16.038259999999998,-24.99588,71.0
1774822377.6688347,1.430511474609375e-05,2026-03-29T22:12:57.668,2026-03-29T18:12:57.668,-33621.84,-47372.354999999996,-84605.175,-49549.68,-13997.43,-18674.73,6200.235,-64020.78,1.3039469982290095,6.218471944109715,8.520544146399828,9.419794010357597,7.638397338037618,8.731734748793079,-4.3607879000420215,-10.968558713452932,0.003601065,-0.990537015,0.106506075,0.3815,16.038259999999998,-24.99588,71.0
1774822377.673726,0.004891395568847656,2026-03-29T22:12:57.673,2026-03-29T18:12:57.673,-33620.895,-47368.395,-84597.795,-49548.555,-14001.029999999999,-18679.815,6194.16,-64015.244999999995,5.807443129070009,10.431588917573736,11.729119849873333,12.423286670483948,7.160951235205475,6.735872948194576,-5.909405745049781,-9.108044095024418,0.003601065,-0.990537015,0.106506075,0.3815,16.038259999999998,-24.99588,71.0
1774822377.6737473,2.1219253540039062e-05,2026-03-29T22:12:57.673,2026-03-29T18:12:57.673,-33620.895,-47362.545,-84586.95,-49539.915,-13997.519999999999,-18669.239999999998,6199.0199999999995,-64035.63,7.860494196334362,10.000807818481139,9.681422595526364,9.893387044954492,3.4477948287454647,1.8806074858458928,-4.610722208611998,-2.892700653143376,0.003601065,-0.990537015,0.106506075,0.3815,16.038259999999998,-24.99588,71.0
1774822377.6770072,0.003259897232055664,2026-03-29T22:12:57.677,2026-03-29T18:12:57.677,-33621.255,-47357.909999999996,-84579.48,-49531.229999999996,-13987.89,-18662.265,6198.795,-64049.22,6.614947362287942,5.222692251547602,3.3919788060725655,3.022599900224647,-1.7151813480393325,-3.557787919991591,-1.0802056024472764,4.902387934822424,0.003601065,-0.990537015,0.106506075,0.3815,16.038259999999998,-24.99588,71.0
1774822377.6770294,2.2172927856445312e-05,2026-03-29T22:12:57.677,2026-03-29T18:12:57.677,-33622.335,-47358.494999999995,-84583.08,-49534.604999999996,-13992.93,-18680.399999999998,6166.755,-64047.42,2.5996200490858383,-1.7154174787455794,-4.262854415238998,-5.075292801519714,-5.9237449044604435,-7.158496652900014,2.9984209337336876,10.65791217292143,0.003601065,-0.990537015,0.106506075,0.3815,16.038259999999998,-24.99588,71.0
1774822377.680932,0.0039026737213134766,2026-03-29T22:12:57.680,2026-03-29T18:12:57.680,-33614.82,-47356.2,-84582.94499999999,-49539.78,-14001.84,-18694.395,6166.71,-64019.07,-2.5015012480506966,-7.736217433288212,-9.862193398501024,-10.784985245924686,-7.288240990623991,-7.449328996167522,5.672787503404793,11.591971183422515,0.003601065,-0.990537015,0.106506075,0.3815,16.038259999999998,-24.99588,71.0
1774822377.680952,2.002716064453125e-05,2026-03-29T22:12:57.680,2026-03-29T18:12:57.680,-33606.27,-47352.645,-84580.37999999999,-49542.615,-14003.055,-18684.585,6181.469999999999,-63999.99,-6.550816331879287,-10.238787365423962,-10.973036305069654,-11.617229307973224,-5.296355556505723,-4.511777499534966,5.6495296248496505,7.104223924249461,0.003601065,-0.990537015,0.106506075,0.3815,16.038259999999998,-24.99588,71.0
1774822377.685249,0.004297018051147461,2026-03-29T22:12:57.685,2026-03-29T18:12:57.685,-33597.54,-47339.64,-84568.275,-49526.145,-13984.064999999999,-18656.64,6206.94,-64001.34,-7.849176275105206,-8.22361798264271,-7.2100991266788705,-7.305243734581987,-1.0049193336814433,0.15271698994794905,2.9110316404370256,-0.8676940649097291,0.003601065,-0.990537015,0.106506075,0.3815,16.038259999999998,-24.99588,71.0
1774822377.6852844,3.528594970703125e-05,2026-03-29T22:12:57.685,2026-03-29T18:12:57.685,-33607.215,-47345.715,-84569.985,-49514.939999999995,-13969.845,-18636.975,6222.105,-64016.415,-5.848175510017986,-2.688911891443718,-0.36004265906396504,0.11882170837876416,3.5120743946543027,4.390934169340125,-1.2698871572969568,-8.682077344010326,0.003601065,-0.990537015,0.106506075,0.3815,16.038259999999998,-24.99588,71.0
1774822377.6889813,0.003696918487548828,2026-03-29T22:12:57.688,2026-03-29T18:12:57.688,-33616.979999999996,-47354.67,-84577.77,-49534.244999999995,-13999.095,-18672.975,6174.2699999999995,-64045.215,-1.383961401965199,3.858221132681485,6.465307480256073,7.284981679763951,6.175148865955812,6.40802896170384,-4.924150744353833,-12.660058965475393,0.002014155,-0.9899877,0.10607883,-2.4263399999999997,12.75736,-25.54524,71.0
1774822377.6890016,2.0265579223632812e-05,2026-03-29T22:12:57.689,2026-03-29T18:12:57.689,-33611.805,-47335.905,-84554.73,-49518.99,-13991.31,-18671.715,6107.3099999999995,-64091.43,3.6689891676230273,8.539259717406097,10.24675149911667,11.028508212635487,5.873871366262001,5.539011463402305,-6.310106459264184,-10.820442085143034,0.002014155,-0.9899877,0.10607883,-2.4263399999999997,12.75736,-25.54524,71.0
1774822377.693018,0.004016399383544922,2026-03-29T22:12:57.693,2026-03-29T18:12:57.693,-33573.33,-47282.445,-84493.75499999999,-49453.02,-13927.275,-18617.85,6086.205,-64087.244999999995,7.183062353347365,9.373989932793874,9.399099889358018,9.802395218609453,2.939749606634783,2.4441316379218216,-4.733739378574313,-3.861984927339994,0.002014155,-0.9899877,0.10607883,-2.4263399999999997,12.75736,-25.54524,71.0
1774822377.6930363,1.8358230590820312e-05,2026-03-29T22:12:57.693,2026-03-29T18:12:57.693,-33544.619999999995,-47280.42,-84508.29,-49452.975,-13919.535,-18631.53,6131.835,-64001.52,7.673892787088791,6.1203216230511615,4.437343362110036,4.321308020763327,-1.089774601973876,-1.3155151373106106,-0.8822405767170363,5.0930975591627154,0.002014155,-0.9899877,0.10607883,-2.4263399999999997,12.75736,-25.54524,71.0
1774822377.6975784,0.004542112350463867,2026-03-29T22:12:57.697,2026-03-29T18:12:57.697,-33577.74,-47327.354999999996,-84562.605,-49509.09,-13978.755,-18668.024999999998,6204.87,-63964.215,4.929618466985144,0.3262997413899364,-2.313882979013632,-2.8343049555251953,-4.272095728821899,-4.07112605861819,3.484254626231853,11.905536472478705,0.002014155,-0.9899877,0.10607883,-2.4263399999999997,12.75736,-25.54524,71.0
1774822377.6976001,2.1696090698242188e-05,2026-03-29T22:12:57.697,2026-03-29T18:12:57.697,-33607.125,-47361.33,-84591.62999999999,-49546.71,-14023.305,-18665.864999999998,6264.045,-63967.454999999994,0.1043866114696282,-5.405582984001693,-7.8115879840404245,-8.442216616503403,-5.210498621807798,-4.803524190152806,6.339725932726926,13.338864292383223,0.002014155,-0.9899877,0.10607883,-2.4263399999999997,12.75736,-25.54524,71.0
1774822377.7010484,0.0034482479095458984,2026-03-29T22:12:57.701,2026-03-29T18:12:57.701,-33630.075,-47378.295,-84606.435,-49567.68,-14029.74,-18692.19,6210.135,-64017.674999999996,-4.7667786275078186,-8.592902238211767,-9.673614595990486,-10.105997080889667,-3.6838533616927043,-3.5132669369378426,6.3256531855791405,8.598272889161843,0.002014155,-0.9899877,0.10607883,-2.4263399999999997,12.75736,-25.54524,71.0
1774822377.7010794,3.0994415283203125e-05,2026-03-29T22:12:57.701,2026-03-29T18:12:57.701,-33638.49,-47371.229999999996,-84590.09999999999,-49533.659999999996,-13963.59,-18662.219999999998,6195.195,-64054.71,-7.628140327673778,-7.953884368318306,-7.2169952940794015,-7.289619399796668,-0.6624939036275717,-1.0718032007877458,3.3823889989454177,-0.2449385185030051,0.002014155,-0.9899877,0.10607883,-2.4263399999999997,12.75736,-25.54524,71.0
1774822377.7050333,0.0039539337158203125,2026-03-29T22:12:57.705,2026-03-29T18:12:57.705,-33651.27,-47383.965,-84602.43,-49549.14,-13996.664999999999,-18675.405,6225.705,-64063.215,-7.273549594775846,-3.920373457068638,-1.6992125135758231,-1.466393058543621,2.2628902746494273,1.3123487357343937,-1.209237109335338,-9.16483097240652,0.002014155,-0.9899877,0.10607883,-2.4263399999999997,12.75736,-25.54524,71.0
1774822377.705054,2.0742416381835938e-05,2026-03-29T22:12:57.705,2026-03-29T18:12:57.705,-33631.47,-47370.915,-84594.69,-49547.79,-14004.449999999999,-18675.045,6217.0199999999995,-64039.68,-3.856389592376847,1.621789115869171,4.318791841426578,4.645146069264422,3.7185573371051683,2.7032045354484207,-5.394302309902467,-14.023836768898182,0.002014155,-0.9899877,0.10607883,-2.4263399999999997,12.75736,-25.54524,71.0
1774822377.7089388,0.0038847923278808594,2026-03-29T22:12:57.708,2026-03-29T18:12:57.708,-33605.909999999996,-47351.835,-84580.155,-49534.515,-13990.365,-18662.04,6235.11,-64001.43,1.1777738950957675,6.218902185142444,8.168247868388503,8.364855264903158,3.211016727962252,2.8109571390109043,-7.262330455726878,-12.498151361829603,0.00390624,-0.992245995,0.1074216,-2.77732,9.980039999999999,-28.734579999999998,71.0
1774822377.7089586,1.9788742065429688e-05,2026-03-29T22:12:57.708,2026-03-29T18:12:57.708,-33629.94,-47379.015,-84612.33,-49571.505,-14026.725,-18690.885,6214.275,-64025.505,5.705918902869241,7.94355755886807,8.265351497681,8.24115855025312,1.2877397162400224,1.976282291057344,-5.906714764551047,-5.1857235322587565,0.00390624,-0.992245995,0.1074216,-2.77732,9.980039999999999,-28.734579999999998,71.0
1774822377.712694,0.0037353038787841797,2026-03-29T22:12:57.712,2026-03-29T18:12:57.712,-33633.63,-47375.865,-84603.645,-49561.38,-14017.32,-18683.864999999998,6187.1849999999995,-64043.685,7.826283958493748,6.2045295135776035,4.763063382043959,4.611318323986432,-0.8552430872261928,0.835888040102125,-1.8433916671418393,4.6308377494958775,0.00390624,-0.992245995,0.1074216,-2.77732,9.980039999999999,-28.734579999999998,71.0
1774822377.7127125,1.8596649169921875e-05,2026-03-29T22:12:57.712,2026-03-29T18:12:57.712,-33617.295,-47359.845,-84582.855,-49533.93,-13988.789999999999,-18658.98,6205.815,-64030.77,6.6582848068480365,1.9302692760946605,-0.6073903889831244,-0.6821572017667852,-2.0752922294261658,-0.09544187981447302,3.1957178497052565,12.47060678954713,0.00390624,-0.992245995,0.1074216,-2.77732,9.980039999999999,-28.734579999999998,71.0
1774822377.7167995,0.004086971282958984,2026-03-29T22:12:57.716,2026-03-29T18:12:57.716,-33605.64,-47350.08,-84574.215,-49521.24,-13977.18,-18650.43,6213.96,-64016.82,2.7060485195610884,-2.919993902952018,-5.3933820393682055,-5.2293554614576285,-1.8973207114076693,-0.6720440419578072,7.004671698630274,14.710476179046845,0.00390624,-0.992245995,0.1074216,-2.77732,9.980039999999999,-28.734579999999998,71.0
1774822377.7168179,1.8358230590820312e-05,2026-03-29T22:12:57.716,2026-03-29T18:12:57.716,-33619.635,-47362.095,-84586.095,-49533.165,-13994.82,-18676.305,6189.705,-64026.09,-2.3634568921340824,-6.262691168410918,-7.551498512867612,-7.166426884654697,-0.7085208031716853,-1.0682763149467698,7.860055060816636,10.261887021513049,0.00390624,-0.992245995,0.1074216,-2.77732,9.980039999999999,-28.734579999999998,71.0
1774822377.7223165,0.005498647689819336,2026-03-29T22:12:57.722,2026-03-29T18:12:57.722,-33628.409999999996,-47362.545,-84581.55,-49534.02,-13998.824999999999,-18682.29,6168.915,-64045.53,-6.427573406273274,-6.790029502406513,-6.325259623762155,-5.941905485025825,0.5527902854283263,-1.5029020954275263,5.281063949540205,1.0904215302020948,0.00390624,-0.992245995,0.1074216,-2.77732,9.980039999999999,-28.734579999999998,71.0
1774822377.7223463,2.9802322387695312e-05,2026-03-29T22:12:57.722,2026-03-29T18:12:57.722,-33609.735,-47337.84,-84549.915,-49508.82,-13974.795,-18660.465,6172.155,-64041.03,-7.797696760377798,-4.471512405051186,-2.4893795652003097,-2.4185651835117645,1.0131454236827149,-1.9511030290748272,0.2669802331336543,-8.666155967237886,0.00390624,-0.992245995,0.1074216,-2.77732,9.980039999999999,-28.734579999999998,71.0
1774822377.7271209,0.004774570465087891,2026-03-29T22:12:57.727,2026-03-29T18:12:57.727,-33594.93,-47329.244999999995,-84544.785,-49516.965,-13992.435,-18679.454999999998,6195.15,-64018.979999999996,-5.917675183501409,-0.4693416678594933,2.1066155882811683,1.6679251266974335,0.41374738141454365,-2.0649036616140277,-5.093736782087631,-14.579001177223027,0.00390624,-0.992245995,0.1074216,-2.77732,9.980039999999999,-28.734579999999998,71.0
1774822377.7271428,2.193450927734375e-05,2026-03-29T22:12:57.727,2026-03-29T18:12:57.727,-33598.125,-47344.185,-84573.495,-49531.77,-14007.24,-18695.475,6178.545,-64018.935,-1.5836550383973864,3.4471634254677372,5.437736793536825,4.57410441668294,-0.7341293413813392,-1.3859254130492118,-8.48626684967429,-13.946114560413628,0.00390624,-0.992245995,0.1074216,-2.77732,9.980039999999999,-28.734579999999998,71.0
1774822377.7321844,0.005041599273681641,2026-03-29T22:12:57.732,2026-03-29T18:12:57.732,-33605.505,-47351.655,-84578.985,-49527.314999999995,-13994.414999999999,-18678.149999999998,6185.79,-64025.729999999996,3.3978137465100846,5.691297022596636,6.204717662670947,5.301538609797674,-1.4840876405757404,0.26569747313906533,-8.350756901120514,-7.023729256381252,0.007141095,-1.000912965,0.104919165,-3.7386999999999997,7.76734,-29.4518,71.0
1774822377.7322023,1.7881393432617188e-05,2026-03-29T22:12:57.732,2026-03-29T18:12:57.732,-33606.315,-47350.619999999995,-84576.59999999999,-49536.0,-14001.345,-18669.239999999998,6206.715,-64021.049999999996,6.963481301852633,5.495781165661844,4.330729041310874,3.906789149291667,-1.0840314333251784,2.483530286020804,-4.575315648885531,3.088699013802531,0.007141095,-1.000912965,0.104919165,-3.7386999999999997,7.76734,-29.4518,71.0
1774822377.7322297,2.7418136596679688e-05,2026-03-29T22:12:57.732,2026-03-29T18:12:57.732,-33593.67,-47335.545,-84562.02,-49527.314999999995,-13996.845,-18656.64,6194.969999999999,-64013.354999999996,7.6435543562121175,3.1435032753612875,0.8683309505606146,1.2918380617536287,0.48034255415103844,4.293664436032602,1.3957668847687665,11.85229084157823,0.007141095,-1.000912965,0.104919165,-3.7386999999999997,7.76734,-29.4518,71.0
1774822377.7322376,7.867813110351562e-06,2026-03-29T22:12:57.732,2026-03-29T18:12:57.732,-33598.979999999996,-47343.645,-84569.58,-49527.854999999996,-13994.82,-18657.63,6168.33,-64020.42,5.160289103302102,-0.2572575865144367,-2.580504495516544,-1.3415873629263642,2.3750569452619477,4.572532512248783,7.103731523447488,15.337774327971658,0.007141095,-1.000912965,0.104919165,-3.7386999999999997,7.76734,-29.4518,71.0
1774822377.736818,0.004580497741699219,2026-03-29T22:12:57.736,2026-03-29T18:12:57.736,-33618.104999999996,-47363.895,-84588.3,-49540.994999999995,-14000.58,-18659.43,6165.719999999999,-64037.43,0.5356572616844769,-3.302523780672804,-4.615816797842502,-3.056255996776373,3.3462323833609195,2.690182321704969,10.068906033269952,11.989040179288205,0.007141095,-1.000912965,0.104919165,-3.7386999999999997,7.76734,-29.4518,71.0
1774822377.7368357,1.7642974853515625e-05,2026-03-29T22:12:57.736,2026-03-29T18:12:57.736,-33630.885,-47370.104999999996,-84597.705,-49541.805,-13993.74,-18652.59,6180.255,-64058.759999999995,-4.329582631538243,-4.8697607888967545,-4.604488197150895,-3.4908821005754076,2.4738994801103313,-0.9717730625259317,8.844858931286947,3.3088680928136007,0.007141095,-1.000912965,0.104919165,-3.7386999999999997,7.76734,-29.4518,71.0
1774822377.740942,0.004106283187866211,2026-03-29T22:12:57.740,2026-03-29T18:12:57.740,-33622.875,-47357.955,-84584.205,-49531.185,-13990.859999999999,-18658.485,6172.469999999999,-64053.494999999995,-7.431150006173154,-4.505639650826973,-2.8314561795826134,-2.827436124782429,-0.17807741769562918,-4.970509049580188,3.6971229886066004,-6.830833325528933,0.007141095,-1.000912965,0.104919165,-3.7386999999999997,7.76734,-29.4518,71.0
1774822377.740972,3.0040740966796875e-05,2026-03-29T22:12:57.740,2026-03-29T18:12:57.740,-33608.43,-47341.395,-84566.745,-49519.89,-13987.26,-18661.454999999998,6162.66,-64044.405,-7.477682028058632,-2.5057138761417646,-0.23265531296400752,-1.5227168022363582,-3.424960077022384,-7.349613751977732,-3.4006650814237145,-13.930439559284752,0.007141095,-1.000912965,0.104919165,-3.7386999999999997,7.76734,-29.4518,71.0
1774822377.7463386,0.00536656379699707,2026-03-29T22:12:57.746,2026-03-29T18:12:57.746,-33602.22,-47332.259999999995,-84554.775,-49509.405,-13978.529999999999,-18655.155,6177.6449999999995,-64035.99,-4.421264795876444,0.2877171227640191,2.1005931703671235,-0.018285179302134597,-5.483519700923984,-6.588975215413606,-9.497824620530324,-14.865758220201778,0.007141095,-1.000912965,0.104919165,-3.7386999999999997,7.76734,-29.4518,71.0
1774822377.7463589,2.0265579223632812e-05,2026-03-29T22:12:57.746,2026-03-29T18:12:57.746,-33598.89,-47334.6,-84558.33,-49513.994999999995,-13983.435,-18659.43,6207.885,-64017.72,0.5111547727724335,2.841513498544198,3.3821423887297426,1.3949492086234137,-4.928008292409677,-2.499243682609724,-11.86867871127757,-9.258389290535609,0.007141095,-1.000912965,0.104919165,-3.7386999999999997,7.76734,-29.4518,71.0
1774822377.750404,0.004045009613037109,2026-03-29T22:12:57.750,2026-03-29T18:12:57.750,-33608.88,-47351.34,-84578.22,-49531.994999999995,-13997.97,-18670.005,6231.6449999999995,-64017.18,5.302210919541653,4.289380057142377,3.3599515295026703,2.5233565162628606,-1.5762653843335412,3.440734592760442,-9.209766961225876,0.38519914586756954,0.01782222,-1.013730315,0.105041235,1.95328,7.95046,-31.14566,71.0
1774822377.7504323,2.8371810913085938e-05,2026-03-29T22:12:57.750,2026-03-29T18:12:57.750,-33605.955,-47346.39,-84571.56,-49529.34,-14001.75,-18676.305,6219.179999999999,-64018.395,7.957263705478448,4.181689547726258,2.2694484345109496,3.140918593433677,3.213595607272309,8.576433875367647,-2.3170966445562304,9.808484196020073,0.01782222,-1.013730315,0.105041235,1.95328,7.95046,-31.14566,71.0
1774822377.765886,0.015453815460205078,2026-03-29T22:12:57.765,2026-03-29T18:12:57.765,-33616.17,-47358.99,-84584.47499999999,-49539.689999999995,-14013.0,-18691.335,6197.355,-64027.755,7.325423210143293,2.584985670266355,0.6118845527792616,2.949082539142372,7.077642494949616,10.262826089145088,6.095096959485074,14.893126414178111,0.01782222,-1.013730315,0.105041235,1.95328,7.95046,-31.14566,71.0
1774822377.765915,2.8848648071289062e-05,2026-03-29T22:12:57.765,2026-03-29T18:12:57.765,-33633.945,-47381.625,-84613.68,-49569.795,-14045.625,-18727.245,6161.355,-64043.325,3.5965053042174926,0.03974465919852231,-1.0823534326686906,1.7168637949596828,7.811639868374516,7.214659902779345,12.43176706540939,13.458887076779183,0.01782222,-1.013730315,0.105041235,1.95328,7.95046,-31.14566,71.0
1774822377.7659369,2.193450927734375e-05,2026-03-29T22:12:57.765,2026-03-29T18:12:57.765,-33654.104999999996,-47397.465,-84630.465,-49586.805,-14062.949999999999,-18750.42,6139.3949999999995,-64069.29,-1.7387033077318617,-2.5959596538464806,-2.389800262871562,-0.46175293093046876,4.593960555777023,0.33751771103645223,13.732567044065537,6.189199315510435,0.01782222,-1.013730315,0.105041235,1.95328,7.95046,-31.14566,71.0
1774822377.7659461,9.298324584960938e-06,2026-03-29T22:12:57.765,2026-03-29T18:12:57.765,-33658.424999999996,-47386.17,-84611.565,-49558.14,-14023.89,-18706.454999999998,6113.835,-64106.505,-6.4687212134277186,-4.388593684247881,-3.016727257419293,-2.983284617077109,-1.3996729697544337,-7.456778248818449,9.038261608943197,-3.705294463230074,0.01782222,-1.013730315,0.105041235,1.95328,7.95046,-31.14566,71.0
1774822377.7659574,1.1205673217773438e-05,2026-03-29T22:12:57.765,2026-03-29T18:12:57.765,-33618.195,-47325.735,-84544.965,-49497.165,-13966.425,-18649.844999999998,6084.99,-64109.07,-8.565380809068918,-4.620715576785468,-2.7819751489558886,-4.818863436604341,-7.389823445051876,-12.475742883292986,-0.015410420541186671,-11.915206702918319,0.01782222,-1.013730315,0.105041235,1.95328,7.95046,-31.14566,71.0
1774822377.7659664,9.059906005859375e-06,2026-03-29T22:12:57.765,2026-03-29T18:12:57.765,-33575.76,-47275.02,-84489.3,-49456.034999999996,-13946.265,-18630.045,6097.905,-64081.71,-7.049765358289398,-3.06707579596053,-1.6441568888581757,-4.923787759624234,-10.28716964720856,-12.002119333429219,-9.715041338780779,-14.912740870836762,0.01782222,-1.013730315,0.105041235,1.95328,7.95046,-31.14566,71.0
1774822377.765977,1.049041748046875e-05,2026-03-29T22:12:57.765,2026-03-29T18:12:57.765,-33575.67,-47281.77,-84494.655,-49459.14,-13992.795,-18653.715,6098.04,-64080.27,-2.45336170119111,-0.15648018429685565,0.2090102456287748,-2.8163480194475037,-8.282853474794113,-5.742769489654378,-15.767565598249174,-11.46252120033897,0.01782222,-1.013730315,0.105041235,1.95328,7.95046,-31.14566,71.0
1774822377.7659855,8.58306884765625e-06,2026-03-29T22:12:57.765,2026-03-29T18:12:57.765,-33597.854999999996,-47332.215,-84557.745,-49509.27,-14034.869999999999,-18702.585,6126.03,-64066.68,3.34401587264554,3.083090820104532,2.28293345358408,0.9882267027636085,-1.9180440631253324,3.793402063392059,-15.189365578193392,-3.119170706169154,0.01782222,-1.013730315,0.105041235,1.95328,7.95046,-31.14566,71.0
1774822377.7687356,0.0027501583099365234,2026-03-29T22:12:57.768,2026-03-29T18:12:57.768,-33588.99,-47332.89,-84564.54,-49517.64,-13968.269999999999,-18658.53,6132.0599999999995,-64034.145,7.866005257746934,5.341948413597622,3.8263259398389255,4.993137484196127,5.978818557431295,12.279691432392939,-7.761048147332616,6.482219380650772,0.031433025,-1.023617985,0.10461399,7.6452599999999995,10.31576,-31.54242,71.0
1774822377.768748,1.239776611328125e-05,2026-03-29T22:12:57.768,2026-03-29T18:12:57.768,-33553.799999999996,-47288.43,-84511.34999999999,-49469.354999999996,-13895.01,-18585.989999999998,6172.92,-63996.93,9.090632865402231,5.541231959406338,4.075113077653691,7.287268722968631,11.550902945880463,15.545049936344693,3.6558894181090253,13.21497999035835,0.031433025,-1.023617985,0.10461399,7.6452599999999995,10.31576,-31.54242,71.0
1774822377.7731245,0.004376411437988281,2026-03-29T22:12:57.773,2026-03-29T18:12:57.773,-33533.055,-47266.875,-84489.48,-49443.57,-13904.189999999999,-18588.915,6206.8949999999995,-63981.494999999995,6.359007615780065,3.35061791098672,2.6299654144116222,6.462905570815969,11.807822194292173,11.63277676936756,14.184067110896178,14.23282176125725,0.031433025,-1.023617985,0.10461399,7.6452599999999995,10.31576,-31.54242,71.0
1774822377.7731593,3.4809112548828125e-05,2026-03-29T22:12:57.773,2026-03-29T18:12:57.773,-33509.34,-47252.115,-84487.275,-49435.695,-13910.715,-18612.855,6289.605,-63941.354999999996,0.7319500912405146,-0.5376206970631485,-0.21805646562608058,2.4412553329535807,6.220937208842591,1.9248382689878827,19.002811884693998,9.165692732793117,0.031433025,-1.023617985,0.10461399,7.6452599999999995,10.31576,-31.54242,71.0
1774822377.7773428,0.004183530807495117,2026-03-29T22:12:57.777,2026-03-29T18:12:57.777,-33550.47,-47304.81,-84545.64,-49490.909999999996,-13959.539999999999,-18660.015,6360.48,-63942.615,-5.398524535025645,-4.566519825164597,-3.4343062851286135,-3.2640146975492024,-2.8279384659496545,-9.297027427826036,15.554235289888272,0.2414925378511051,0.031433025,-1.023617985,0.10461399,7.6452599999999995,10.31576,-31.54242,71.0
1774822377.7773669,2.4080276489257812e-05,2026-03-29T22:12:57.777,2026-03-29T18:12:57.777,-33635.34,-47384.729999999996,-84612.42,-49564.08,-14026.23,-18697.32,6314.804999999999,-64010.475,-9.31495269341999,-6.91378940809252,-5.578623819077379,-8.080352026663306,-11.054915655228879,-16.746144575109536,4.873421772589882,-8.698395748243788,0.031433025,-1.023617985,0.10461399,7.6452599999999995,10.31576,-31.54242,71.0
1774822377.7811637,0.003796815872192383,2026-03-29T22:12:57.781,2026-03-29T18:12:57.781,-33653.115,-47400.345,-84623.58,-49592.564999999995,-14060.07,-18705.96,6258.599999999999,-64049.13,-9.181210572111354,-6.316678427417992,-5.449150293779134,-9.541695126369524,-14.317310558070936,-16.641249090586545,-8.640016519855577,-13.852852586413894,0.031433025,-1.023617985,0.10461399,7.6452599999999995,10.31576,-31.54242,71.0
1774822377.7811923,2.86102294921875e-05,2026-03-29T22:12:57.781,2026-03-29T18:12:57.781,-33641.325,-47383.83,-84607.155,-49569.525,-14036.039999999999,-18693.54,6219.135,-64067.04,-4.914070991304596,-2.7493223624467378,-2.7453626080599385,-6.555804533466336,-10.710705345402658,-8.63185497463459,-19.01751946091897,-13.07276638125261,0.031433025,-1.023617985,0.10461399,7.6452599999999995,10.31576,-31.54242,71.0
1774822377.7851083,0.003916025161743164,2026-03-29T22:12:57.785,2026-03-29T18:12:57.785,-33621.435,-47372.625,-84615.84,-49553.595,-14014.439999999999,-18681.21,6191.235,-64051.604999999996,1.6986925784312132,2.409323278439621,1.6107128861385929,-0.12066978716134721,-1.6536609905709785,3.844215157050046,-21.36144276889371,-6.750340995585024,0.031433025,-1.023617985,0.10461399,7.6452599999999995,10.31576,-31.54242,71.0
1774822377.7851205,1.2159347534179688e-05,2026-03-29T22:12:57.785,2026-03-29T18:12:57.785,-33599.924999999996,-47343.42,-84580.69499999999,-49521.915,-13987.26,-18658.26,6194.969999999999,-64029.104999999996,7.731229781509662,6.875186983240698,5.736148648187476,6.949030088771866,8.647065182450369,15.033539434515095,-14.160119681928768,2.3781899726929248,0.031433025,-1.023617985,0.10461399,7.6452599999999995,10.31576,-31.54242,71.0
1774822377.789043,0.003922462463378906,2026-03-29T22:12:57.789,2026-03-29T18:12:57.789,-33615.045,-47357.369999999995,-84587.535,-49535.28,-14005.71,-18674.91,6197.804999999999,-64037.34,10.41240073463825,8.466105288561845,7.594028777381764,11.252348314994661,15.163397594068703,19.541832008111722,-0.1811564389227229,10.417342688270955,0.042297255,-1.037533965,0.095885985,21.22666,6.89752,-28.94822,71.0
1774822377.789064,2.09808349609375e-05,2026-03-29T22:12:57.789,2026-03-29T18:12:57.789,-33629.534999999996,-47367.674999999996,-84590.145,-49532.58,-13998.6,-18668.52,6209.505,-64050.21,8.40865563265928,6.174901410018969,6.0041728284030675,10.452522226367053,14.519574283540802,14.957875927027441,14.560388414841622,13.971923717548188,0.042297255,-1.037533965,0.095885985,21.22666,6.89752,-28.94822,71.0
1774822377.793101,0.004037141799926758,2026-03-29T22:12:57.793,2026-03-29T18:12:57.793,-33621.705,-47358.405,-84584.34,-49529.384999999995,-13999.32,-18675.585,6199.83,-64049.445,2.4987372480925254,0.7779810890590839,1.3541855802214784,4.540201927665337,6.74713648145931,3.140084659036939,23.392998990616313,11.57646074453594,0.042297255,-1.037533965,0.095885985,21.22666,6.89752,-28.94822,71.0
1774822377.7931273,2.6226043701171875e-05,2026-03-29T22:12:57.793,2026-03-29T18:12:57.793,-33614.549999999996,-47347.74,-84573.315,-49520.205,-13991.355,-18677.52,6187.815,-64054.755,-4.705616014526415,-5.376843548965776,-4.403092124038066,-3.9705855474667135,-4.593370156431267,-10.519303423987136,22.022113328187068,4.295519507623376,0.042297255,-1.037533965,0.095885985,21.22666,6.89752,-28.94822,71.0
1774822377.7971392,0.004011869430541992,2026-03-29T22:12:57.797,2026-03-29T18:12:57.797,-33605.369999999995,-47344.77,-84577.14,-49534.02,-14011.244999999999,-18695.385,6177.375,-64047.645,-9.907366587269584,-9.381406465026977,-8.554782488259043,-11.10180773442726,-14.050321846735967,-19.571770972478472,10.619792361503428,-4.748868647337051,0.042297255,-1.037533965,0.095885985,21.22666,6.89752,-28.94822,71.0
1774822377.797163,2.384185791015625e-05,2026-03-29T22:12:57.797,2026-03-29T18:12:57.797,-33601.005,-47344.5,-84581.09999999999,-49542.57,-14023.529999999999,-18701.415,6174.179999999999,-64042.56,-10.63953619916161,-9.147506256463986,-8.912487547577975,-13.285388790401935,-16.922000591608427,-19.58598386357698,-6.048031837226966,-11.713370997817304,0.042297255,-1.037533965,0.095885985,21.22666,6.89752,-28.94822,71.0
1774822377.8011017,0.0039386749267578125,2026-03-29T22:12:57.801,2026-03-29T18:12:57.801,-33602.49,-47342.205,-84574.62,-49529.34,-14007.6,-18688.454999999998,6181.74,-64044.18,-6.448785465363844,-4.4984015992658355,-4.965099208865143,-9.16223947384327,-11.612024627730229,-10.33931718803396,-20.609954707257288,-13.663077559503193,0.042297255,-1.037533965,0.095885985,21.22666,6.89752,-28.94822,71.0
1774822377.8011262,2.4557113647460938e-05,2026-03-29T22:12:57.801,2026-03-29T18:12:57.801,-33606.494999999995,-47342.744999999995,-84573.54,-49529.205,-14003.01,-18677.34,6192.675,-64046.79,0.8267297282544287,2.5999299426228037,1.7068682615502084,-0.3934098448830908,-0.51154767410709,3.966015795737275,-26.366162178597804,-9.806041489046418,0.042297255,-1.037533965,0.095885985,21.22666,6.89752,-28.94822,71.0
1774822377.805267,0.0041408538818359375,2026-03-29T22:12:57.805,2026-03-29T18:12:57.805,-33606.494999999995,-47340.63,-84570.61499999999,-49521.24,-13987.305,-18658.44,6183.09,-64056.42,7.8526054794699585,8.853028574663705,8.038824423227961,8.987179188054837,11.07631602354371,16.621535519078108,-20.389290359668124,-1.8148328380758345,0.042297255,-1.037533965,0.095885985,21.22666,6.89752,-28.94822,71.0
1774822377.805285,1.7881393432617188e-05,2026-03-29T22:12:57.805,2026-03-29T18:12:57.805,-33605.1,-47339.28,-84570.56999999999,-49522.32,-13991.13,-18659.295,6185.07,-64059.165,11.328309257594919,11.170087592758305,10.893004663123845,14.439072086566483,17.486641084533584,21.586047952487014,-5.004975885181421,6.895461046849234,0.042297255,-1.037533965,0.095885985,21.22666,6.89752,-28.94822,71.0
1774822377.8092968,0.004011869430541992,2026-03-29T22:12:57.809,2026-03-29T18:12:57.809,-33598.665,-47334.33,-84567.06,-49519.17,-13984.875,-18649.89,6184.26,-64050.21,9.548979223187066,8.199736988939339,8.621534183799893,13.13209651436202,15.483224831503545,16.400403143031188,13.094308568215272,12.623033698782512,0.055541850000000004,-1.03613016,0.10436985,36.68504,8.49982,-31.06936,71.0
1774822377.8093257,2.8848648071289062e-05,2026-03-29T22:12:57.809,2026-03-29T18:12:57.809,-33594.57,-47329.424999999996,-84560.4,-49516.965,-13991.13,-18671.04,6188.445,-64044.585,3.2544401930528517,1.102440032145149,1.9991389592804094,5.422532759801183,5.905381538030109,3.423355421681624,25.77511329336545,12.950669016110767,0.055541850000000004,-1.03613016,0.10436985,36.68504,8.49982,-31.06936,71.0
1774822377.81534,0.006014347076416016,2026-03-29T22:12:57.815,2026-03-29T18:12:57.815,-33597.54,-47334.104999999996,-84566.34,-49524.119999999995,-14003.144999999999,-18694.844999999998,6206.67,-64044.405,-4.662825578115037,-6.8753066371599205,-5.994720062308953,-5.183922891877333,-6.672213669668403,-11.239859867150662,27.14269673140638,7.766969525648823,0.055541850000000004,-1.03613016,0.10436985,36.68504,8.49982,-31.06936,71.0
1774822377.8153596,1.9550323486328125e-05,2026-03-29T22:12:57.815,2026-03-29T18:12:57.815,-33607.26,-47349.134999999995,-84583.98,-49545.54,-14028.75,-18721.665,6170.67,-64054.125,-10.484464363088538,-11.885598998472119,-11.515239326227556,-13.631070173556727,-16.13508215359066,-20.63040920290505,16.298140567436786,-0.6943130005247613,0.055541850000000004,-1.03613016,0.10436985,36.68504,8.49982,-31.06936,71.0
1774822377.815376,1.6450881958007812e-05,2026-03-29T22:12:57.815,2026-03-29T18:12:57.815,-33619.185,-47357.64,-84591.18,-49552.064999999995,-14034.689999999999,-18735.344999999998,6100.11,-64083.42,-11.420047623799544,-11.343584647769072,-11.711525628948952,-15.741296033867446,-17.820819466521684,-20.26996453075302,-2.1247168054646393,-8.812156042077781,0.055541850000000004,-1.03613016,0.10436985,36.68504,8.49982,-31.06936,71.0
1774822377.8153813,5.245208740234375e-06,2026-03-29T22:12:57.815,2026-03-29T18:12:57.815,-33631.695,-47366.775,-84601.845,-49554.99,-14026.185,-18714.555,6081.255,-64113.03,-6.956735676747087,-5.263800743115024,-6.201484113571313,-10.298855275289561,-10.834256326930696,-10.324305301169723,-19.94679752508014,-13.125176267134226,0.055541850000000004,-1.03613016,0.10436985,36.68504,8.49982,-31.06936,71.0
1774822377.8268402,0.011458873748779297,2026-03-29T22:12:57.826,2026-03-29T18:12:57.826,-33591.104999999996,-47317.095,-84546.315,-49497.975,-13963.455,-18637.155,6111.945,-64091.384999999995,0.8537907698788332,3.623983567539102,2.6020819633770946,0.25929639981730335,1.4715771177278332,4.461181329463482,-29.099789779564947,-11.808420956547616,0.055541850000000004,-1.03613016,0.10436985,36.68504,8.49982,-31.06936,71.0
1774822377.826867,2.6941299438476562e-05,2026-03-29T22:12:57.826,2026-03-29T18:12:57.826,-33579.765,-47310.479999999996,-84539.025,-49497.165,-13965.75,-18633.555,6119.37,-64065.555,8.333038190862542,11.096678431181513,10.541832396509285,10.93307098534476,13.108463445695804,17.035196891431276,-25.304796000097948,-5.4498021387797015,0.055541850000000004,-1.03613016,0.10436985,36.68504,8.49982,-31.06936,71.0
1774822377.8268933,2.6226043701171875e-05,2026-03-29T22:12:57.826,2026-03-29T18:12:57.826,-33579.36,-47308.049999999996,-84535.065,-49500.99,-13979.744999999999,-18648.495,6119.594999999999,-64071.09,11.911772585973814,13.452282978723176,13.688635052299961,16.542770485741507,18.38160279975993,21.429259357406224,-10.084357822546353,3.206198556133373,0.055541850000000004,-1.03613016,0.10436985,36.68504,8.49982,-31.06936,71.0
1774822377.8269043,1.0967254638671875e-05,2026-03-29T22:12:57.826,2026-03-29T18:12:57.826,-33555.69,-47281.77,-84500.55,-49464.81,-13953.824999999999,-18634.41,6189.84,-64053.494999999995,9.842751919048762,9.351517447833254,10.295483486999686,14.262574385879194,14.69431731237703,15.620958279884322,9.843489327543091,10.438782663471503,0.055541850000000004,-1.03613016,0.10436985,36.68504,8.49982,-31.06936,71.0
1774822377.8293028,0.0023984909057617188,2026-03-29T22:12:57.829,2026-03-29T18:12:57.829,-33578.729999999996,-47309.85,-84524.67,-49479.03,-13977.494999999999,-18641.79,6248.655,-64060.064999999995,3.0633033007614348,0.5663293360369231,1.7559771893026932,5.0553758240695235,3.8393616392995713,2.484611286196963,25.550383388855085,13.149793015415172,0.07336407,-1.030331835,0.122131035,44.4066,13.32198,-27.8495,71.0
1774822377.829324,2.1219253540039062e-05,2026-03-29T22:12:57.829,2026-03-29T18:12:57.829,-33611.354999999996,-47357.055,-84585.06,-49529.61,-14021.685,-18682.965,6248.295,-64061.865,-5.222486085477991,-8.777978180108573,-7.953984712696045,-6.724444660599567,-8.870530801683797,-11.6263528770235,29.926134674110298,10.194709245430769,0.07336407,-1.030331835,0.122131035,44.4066,13.32198,-27.8495,71.0
1774822377.8330078,0.003683805465698242,2026-03-29T22:12:57.833,2026-03-29T18:12:57.833,-33595.74,-47338.515,-84562.11,-49518.225,-13974.66,-18656.774999999998,6253.11,-64040.49,-11.059004475785011,-14.147010563686752,-14.13559452810869,-15.401558795588079,-17.21145379822087,-19.96727123082537,20.91989525535101,2.8721642356657577,0.07336407,-1.030331835,0.122131035,44.4066,13.32198,-27.8495,71.0
1774822377.8330197,1.1920928955078125e-05,2026-03-29T22:12:57.833,2026-03-29T18:12:57.833,-33593.04,-47333.564999999995,-84552.75,-49521.509999999995,-13972.185,-18654.975,6260.849999999999,-64038.96,-11.634089119868298,-12.807551740850126,-13.653542583957485,-16.73319084805261,-17.110768687690893,-18.652285713416475,2.506498532175747,-5.640488159999367,0.07336407,-1.030331835,0.122131035,44.4066,13.32198,-27.8495,71.0
1774822377.856482,0.023462295532226562,2026-03-29T22:12:57.856,2026-03-29T18:12:57.856,-33595.065,-47330.415,-84551.895,-49515.93,-13984.199999999999,-18657.54,6217.605,-64074.689999999995,-6.64208057078666,-5.220975688176838,-6.530282016514975,-10.000279195605081,-8.649283255469145,-8.488505615021495,-17.079243029639372,-11.663258976742137,0.07336407,-1.030331835,0.122131035,44.4066,13.32198,-27.8495,71.0
1774822377.8565052,2.3126602172851562e-05,2026-03-29T22:12:57.856,2026-03-29T18:12:57.856,-33593.85,-47334.195,-84569.715,-49501.35,-13961.564999999999,-18637.29,6209.955,-64082.655,1.549932275423013,5.092092651589364,3.9648842764903813,1.6021111470013012,3.9871570480121497,5.4820276861788155,-29.050273869068615,-12.606709458180827,0.07336407,-1.030331835,0.122131035,44.4066,13.32198,-27.8495,71.0
1774822377.8565507,4.553794860839844e-05,2026-03-29T22:12:57.856,2026-03-29T18:12:57.856,-33596.46,-47344.229999999996,-84581.86499999999,-49520.205,-13979.789999999999,-18653.04,6216.4349999999995,-64070.774999999994,9.024318094855087,13.19214257506744,12.822880591546811,12.487430737748591,14.58095089953411,16.48383964127769,-28.036167696545238,-8.091550289248138,0.07336407,-1.030331835,0.122131035,44.4066,13.32198,-27.8495,71.0
1774822377.8565586,7.867813110351562e-06,2026-03-29T22:12:57.856,2026-03-29T18:12:57.856,-33590.79,-47341.71,-84583.89,-49529.79,-13994.324999999999,-18669.465,6212.835,-64064.159999999996,12.191122112776888,15.098295892684844,15.699851167438155,17.38420435582559,17.9519802510004,19.310714464745903,-14.508731325041108,-0.10764689620726109,0.07336407,-1.030331835,0.122131035,44.4066,13.32198,-27.8495,71.0
1774822377.8565674,8.821487426757812e-06,2026-03-29T22:12:57.856,2026-03-29T18:12:57.856,-33583.994999999995,-47337.975,-84582.405,-49535.235,-14004.99,-18682.695,6216.929999999999,-64053.765,9.518830373570445,9.752331853664638,11.057957399601976,13.90696308337028,12.5026127860267,12.811739120169698,5.438000019376771,7.857701225038008,0.07336407,-1.030331835,0.122131035,44.4066,13.32198,-27.8495,71.0
1774822377.856574,6.67572021484375e-06,2026-03-29T22:12:57.856,2026-03-29T18:12:57.856,-33595.38,-47340.854999999996,-84577.545,-49527.72,-13996.98,-18678.239999999998,6212.474999999999,-64072.215,2.279530307781194,-0.40401966706493797,0.9813305203605366,3.7290142826106463,0.9825259469401869,0.3635930974856906,22.849930861456016,12.342835573262215,0.07336407,-1.030331835,0.122131035,44.4066,13.32198,-27.8495,71.0
1774822377.8565824,8.344650268554688e-06,2026-03-29T22:12:57.856,2026-03-29T18:12:57.856,-33604.424999999996,-47343.195,-84573.495,-49524.299999999996,-13996.89,-18684.225,6194.295,-64098.314999999995,-6.056446558305875,-10.549791654994314,-9.763649544573477,-8.224346031867826,-10.895983166218311,-11.866407210698984,29.957386070902114,11.421163726813766,0.085754175,-1.022763495,0.12963834,56.98084,16.45028,-30.184279999999998,71.0
1774822377.856589,6.67572021484375e-06,2026-03-29T22:12:57.856,2026-03-29T18:12:57.856,-33608.88,-47352.06,-84587.44499999999,-49544.955,-14018.805,-18704.565,6174.2699999999995,-64107.0,-11.48819706720666,-15.786322859853183,-15.998007077100933,-16.1720700054996,-17.295307801679638,-17.97876075374172,23.664026627610347,5.536492466055132,0.085754175,-1.022763495,0.12963834,56.98084,16.45028,-30.184279999999998,71.0
1774822377.8565967,7.62939453125e-06,2026-03-29T22:12:57.856,2026-03-29T18:12:57.856,-33618.465,-47360.924999999996,-84598.875,-49560.39,-14035.949999999999,-18720.225,6138.585,-64108.17,-11.410311105240378,-13.514117344784912,-14.64138686397639,-16.290785078421887,-15.130274634260479,-15.202716481723263,6.904334447226318,-2.7016205232778048,0.085754175,-1.022763495,0.12963834,56.98084,16.45028,-30.184279999999998,71.0
1774822377.8566031,6.4373016357421875e-06,2026-03-29T22:12:57.856,2026-03-29T18:12:57.856,-33610.185,-47351.205,-84591.0,-49554.405,-14026.769999999999,-18704.25,6120.585,-64100.61,-5.866698358716106,-4.725642086213445,-6.239563485633224,-8.567720785486708,-5.56334461726689,-5.16531813908851,-12.728611781973404,-9.67182719952732,0.085754175,-1.022763495,0.12963834,56.98084,16.45028,-30.184279999999998,71.0
1774822377.8566113,8.106231689453125e-06,2026-03-29T22:12:57.856,2026-03-29T18:12:57.856,-33574.455,-47314.439999999995,-84559.31999999999,-49530.42,-14003.144999999999,-18676.665,6136.0199999999995,-64085.805,2.473603922315997,6.430514486411189,5.252280806218967,3.2112545755008717,6.610766957282448,7.018359065684783,-26.441097449524285,-12.335543316709735,0.085754175,-1.022763495,0.12963834,56.98084,16.45028,-30.184279999999998,71.0
1774822377.8566177,6.4373016357421875e-06,2026-03-29T22:12:57.856,2026-03-29T18:12:57.856,-33555.33,-47286.225,-84522.015,-49492.755,-13969.439999999999,-18647.594999999998,6177.51,-64071.99,9.605602132559117,14.621564418991515,14.34604014270531,13.32518473798867,15.368215608832939,15.339381471433555,-28.199773983456023,-9.568808280439594,0.085754175,-1.022763495,0.12963834,56.98084,16.45028,-30.184279999999998,71.0
1774822377.8665967,0.009979009628295898,2026-03-29T22:12:57.866,2026-03-29T18:12:57.866,-33583.005,-47319.165,-84550.68,-49515.525,-13989.375,-18664.38,6256.53,-64065.915,12.117575071407039,15.894533386802287,16.659544443299907,16.911846648444506,16.44165143232262,15.861707253075599,-17.402187054507852,-2.644274779370181,0.085754175,-1.022763495,0.12963834,56.98084,16.45028,-30.184279999999998,71.0
1774822377.86662,2.3365020751953125e-05,2026-03-29T22:12:57.866,2026-03-29T18:12:57.866,-33619.635,-47347.02,-84565.70999999999,-49527.314999999995,-13998.914999999999,-18675.855,6238.98,-64102.049999999996,8.827717615476367,9.592178194459267,11.040149171407066,12.320088961766045,9.405865483674251,8.594631611433812,0.9315586755809258,5.347288275330546,0.085754175,-1.022763495,0.12963834,56.98084,16.45028,-30.184279999999998,71.0
1774822377.866639,1.8835067749023438e-05,2026-03-29T22:12:57.866,2026-03-29T18:12:57.866,-33626.295,-47363.67,-84590.685,-49547.61,-14011.83,-18685.8,6195.33,-64114.2,1.340493201986598,-1.312022658596062,0.1380566534529359,1.8756271527353463,-2.1587112485583737,-2.624448098570783,18.49803130351428,10.876064668584997,0.085754175,-1.022763495,0.12963834,56.98084,16.45028,-30.184279999999998,71.0
1774822377.866646,7.152557373046875e-06,2026-03-29T22:12:57.866,2026-03-29T18:12:57.866,-33616.935,-47363.985,-84602.385,-49558.095,-14016.465,-18684.405,6198.4349999999995,-64101.689999999995,-6.739573734323783,-11.628974290179157,-10.855642381552723,-9.297402442369195,-12.484303243776855,-12.130668644173818,27.48804753631348,11.537743167335085,0.085754175,-1.022763495,0.12963834,56.98084,16.45028,-30.184279999999998,71.0
1774822377.8690984,0.002452373504638672,2026-03-29T22:12:57.869,2026-03-29T18:12:57.869,-33622.155,-47373.39,-84618.94499999999,-49577.265,-14036.355,-18706.184999999998,6200.46,-64098.09,-11.549668509754587,-16.439874889849914,-16.69955810470089,-15.801316025573923,-16.493407933064223,-15.281567119764158,24.076947716483385,7.10747713069159,0.090392835,-1.007138535,0.13964808,63.267959999999995,17.36588,-34.91488,71.0
1774822377.869124,2.5510787963867188e-05,2026-03-29T22:12:57.869,2026-03-29T18:12:57.869,-33617.159999999996,-47358.854999999996,-84599.73,-49561.92,-14025.195,-18700.515,6187.679999999999,-64105.74,-10.82113846930655,-13.454106707269247,-14.617325972432578,-14.586703868900942,-12.299083777936142,-10.725735657181737,10.060015714702866,-0.38290486614430186,0.090392835,-1.007138535,0.13964808,63.267959999999995,17.36588,-34.91488,71.0
1774822377.873398,0.004274129867553711,2026-03-29T22:12:57.873,2026-03-29T18:12:57.873,-33579.405,-47307.689999999995,-84542.895,-49510.935,-13982.58,-18666.809999999998,6186.15,-64104.165,-4.951327421366046,-4.102716553784967,-5.622764466463055,-6.391055121341176,-2.0950318201201785,-0.9806755859345361,-8.06942301818321,-7.572468846531874,0.090392835,-1.007138535,0.13964808,63.267959999999995,17.36588,-34.91488,71.0
1774822377.873414,1.5974044799804688e-05,2026-03-29T22:12:57.873,2026-03-29T18:12:57.873,-33556.59,-47277.854999999996,-84510.09,-49479.705,-13952.789999999999,-18638.954999999998,6147.855,-64124.729999999996,3.2126058855432387,7.1558683242872245,5.980533480739268,4.688455180697949,8.984906360908372,8.92564853653593,-22.13375548646707,-11.281906679291524,0.090392835,-1.007138535,0.13964808,63.267959999999995,17.36588,-34.91488,71.0
1774822377.8773532,0.003939151763916016,2026-03-29T22:12:57.877,2026-03-29T18:12:57.877,-33591.78,-47311.47,-84544.47,-49510.53,-13981.904999999999,-18674.82,6040.844999999999,-64179.63,9.76069994073461,14.977130115447038,14.675083725288452,13.247529988074414,15.447151172064434,14.027859437803869,-25.975476640429967,-9.926955627918494,0.090392835,-1.007138535,0.13964808,63.267959999999995,17.36588,-34.91488,71.0
1774822377.877376,2.288818359375e-05,2026-03-29T22:12:57.877,2026-03-29T18:12:57.877,-33602.445,-47331.45,-84570.705,-49539.915,-14007.869999999999,-18695.114999999998,5994.54,-64165.59,11.599592154305837,15.683024543563855,16.371752206121435,15.222014203823674,14.16222530212753,11.901430524312312,-18.167717994716632,-4.202382189392959,0.090392835,-1.007138535,0.13964808,63.267959999999995,17.36588,-34.91488,71.0
1774822377.885258,0.007881879806518555,2026-03-29T22:12:57.885,2026-03-29T18:12:57.885,-33579.854999999996,-47317.59,-84551.4,-49525.784999999996,-13994.055,-18671.219999999998,6106.86,-64089.54,7.9177834245952,8.999575078881037,10.344452123344249,9.827897287031792,5.8812480293983755,3.8129371556899705,-2.5316643860434715,3.2626549167413446,0.090392835,-1.007138535,0.13964808,63.267959999999995,17.36588,-34.91488,71.0
1774822377.885281,2.3126602172851562e-05,2026-03-29T22:12:57.885,2026-03-29T18:12:57.885,-33574.005,-47305.53,-84526.785,-49506.345,-13999.635,-18675.09,6206.445,-64076.13,0.5408965222217722,-1.8448662370341644,-0.4632257710981975,-0.13642694639291733,-5.1899284457699855,-6.002349457000037,13.72006492684612,9.11120049562102,0.090392835,-1.007138535,0.13964808,63.267959999999995,17.36588,-34.91488,71.0
1774822377.8853018,2.0742416381835938e-05,2026-03-29T22:12:57.885,2026-03-29T18:12:57.885,-33562.395,-47307.555,-84537.045,-49505.67,-14000.49,-18685.395,6267.96,-64048.229999999996,-6.977011386252027,-11.690577720870479,-10.886331502182019,-9.73645110019032,-13.522028712976262,-12.534339467225827,23.317038707590324,10.773431175336963,0.090392835,-1.007138535,0.13964808,63.267959999999995,17.36588,-34.91488,71.0
1774822377.8853092,7.3909759521484375e-06,2026-03-29T22:12:57.885,2026-03-29T18:12:57.885,-33593.895,-47340.27,-84576.15,-49532.939999999995,-13991.445,-18675.045,6260.804999999999,-64071.09,-11.072329312032402,-15.916849463035275,-16.02426436665402,-14.350628342610799,-15.020509811449244,-12.535478092254834,22.198088939086244,7.6034090211923155,0.090392835,-1.007138535,0.13964808,63.267959999999995,17.36588,-34.91488,71.0
1774822377.8891625,0.003853321075439453,2026-03-29T22:12:57.889,2026-03-29T18:12:57.889,-33606.54,-47340.09,-84573.54,-49547.744999999995,-13981.32,-18648.54,6249.33,-64096.829999999994,-9.866777285212583,-12.622064254989565,-13.559741975675056,-11.904031136430726,-9.035826271058552,-6.123812146857708,11.237587492988869,1.1308769230354907,0.094054935,-0.985532145,0.14782677,58.415279999999996,17.4727,-36.37984,71.0
1774822377.8891888,2.6226043701171875e-05,2026-03-29T22:12:57.889,2026-03-29T18:12:57.889,-33607.215,-47346.479999999996,-84580.515,-49562.82,-14017.904999999999,-18687.6,6240.285,-64100.79,-4.029793865475257,-3.479973442464297,-4.807231657081183,-3.8032844552523657,1.360168558067327,3.334932335969549,-4.306205770258816,-5.670977915655186,0.094054935,-0.985532145,0.14782677,58.415279999999996,17.4727,-36.37984,71.0
1774822377.893282,0.004093170166015625,2026-03-29T22:12:57.893,2026-03-29T18:12:57.893,-33589.575,-47319.975,-84547.665,-49530.375,-13989.644999999999,-18667.934999999998,6232.05,-64106.055,3.5877023902155054,7.113068219443879,5.984419585239304,5.848636174576386,10.945820472717617,10.977738123881279,-17.304496288846273,-9.753426329727995,0.094054935,-0.985532145,0.14782677,58.415279999999996,17.4727,-36.37984,71.0
1774822377.8933048,2.288818359375e-05,2026-03-29T22:12:57.893,2026-03-29T18:12:57.893,-33584.85,-47323.755,-84562.155,-49518.63,-13969.845,-18647.82,6247.3949999999995,-64107.18,9.350046219159944,14.164071527704396,13.706367149953671,12.327627580228647,14.966731592046703,12.922673700448017,-22.035114678845854,-9.364943625674469,0.094054935,-0.985532145,0.14782677,58.415279999999996,17.4727,-36.37984,71.0
1774822377.8976743,0.004369497299194336,2026-03-29T22:12:57.897,2026-03-29T18:12:57.897,-33598.89,-47339.595,-84586.545,-49550.174999999996,-14013.09,-18692.415,6215.58,-64125.09,10.577969431983655,14.44919199990232,14.823063269910635,12.604797493144433,11.488554664201533,8.220188899029312,-16.71352705871106,-4.807343602889463,0.094054935,-0.985532145,0.14782677,58.415279999999996,17.4727,-36.37984,71.0
1774822377.8977025,2.8133392333984375e-05,2026-03-29T22:12:57.897,2026-03-29T18:12:57.897,-33603.525,-47343.104999999996,-84588.61499999999,-49575.195,-14046.119999999999,-18722.7,6141.6449999999995,-64125.494999999995,6.79791700426297,7.993146413679741,8.99922530496596,6.7663732871197,2.3234939163780877,-0.6956666881045427,-4.152883980393843,1.7536663129483832,0.094054935,-0.985532145,0.14782677,58.415279999999996,17.4727,-36.37984,71.0
1774822377.901264,0.0035614967346191406,2026-03-29T22:12:57.901,2026-03-29T18:12:57.901,-33584.895,-47327.13,-84570.93,-49553.369999999995,-14017.994999999999,-18697.41,6146.505,-64102.229999999996,-0.0842470553718763,-2.0183759936788994,-0.8311851746884794,-2.129541529236623,-7.910880152548098,-9.264928783046598,9.68432061154739,7.31549077829404,0.094054935,-0.985532145,0.14782677,58.415279999999996,17.4727,-36.37984,71.0
1774822377.9012933,2.9325485229492188e-05,2026-03-29T22:12:57.901,2026-03-29T18:12:57.901,-33596.865,-47344.77,-84589.33499999999,-49563.36,-14014.98,-18681.03,6190.785,-64102.5,-6.743294143820117,-10.814841941549071,-9.943806868419337,-9.642032300030179,-14.112316741289037,-13.11906586207644,18.511061112969013,9.416548124078634,0.094054935,-0.985532145,0.14782677,58.415279999999996,17.4727,-36.37984,71.0
1774822377.9101117,0.008818387985229492,2026-03-29T22:12:57.910,2026-03-29T18:12:57.910,-33636.24,-47381.939999999995,-84625.605,-49596.884999999995,-14047.38,-18710.415,6152.535,-64138.77,-10.045140757622397,-14.323602460239409,-14.104373382722276,-12.160957260848052,-13.229530764576394,-10.28574167991409,18.580608655292107,7.2304806435772155,0.094054935,-0.985532145,0.14782677,58.415279999999996,17.4727,-36.37984,71.0
1774822377.9101365,2.47955322265625e-05,2026-03-29T22:12:57.910,2026-03-29T18:12:57.910,-33633.81,-47368.17,-84601.845,-49580.009999999995,-14055.029999999999,-18705.6,6160.995,-64152.945,-8.526283042848263,-11.062873650910369,-11.545767790307497,-8.642831883199566,-5.755834890784394,-2.176791142653945,10.282068695918355,1.8877120662171303,0.094054935,-0.985532145,0.14782677,58.415279999999996,17.4727,-36.37984,71.0
1774822377.9101593,2.288818359375e-05,2026-03-29T22:12:57.910,2026-03-29T18:12:57.910,-33600.735,-47330.865,-84561.84,-49549.049999999996,-14038.244999999999,-18684.18,6194.565,-64129.005,-3.0422668427273583,-2.7625211211998084,-3.7150178282568045,-1.0343946959990464,4.546762018618786,7.12704494081917,-2.2153397922461764,-4.099121002731909,0.10156224,-0.96911373,0.155944425,49.38136,16.67918,-38.54676,71.0
1774822377.910171,1.1682510375976562e-05,2026-03-29T22:12:57.910,2026-03-29T18:12:57.910,-33597.63,-47332.034999999996,-84565.305,-49548.42,-13999.635,-18676.079999999998,6161.535,-64127.52,3.7014476091597834,6.5437094829772295,5.522407287069473,6.782117227144415,12.538414089718586,12.927329618026052,-13.031149144735991,-8.017248562076373,0.10156224,-0.96911373,0.155944425,49.38136,16.67918,-38.54676,71.0
1774822377.913397,0.003226041793823242,2026-03-29T22:12:57.913,2026-03-29T18:12:57.913,-33586.244999999995,-47320.064999999995,-84547.26,-49518.225,-13951.215,-18646.38,6162.615,-64124.055,8.483536490479459,12.481450028022183,11.791099955830123,10.958237420412702,14.257295249929522,12.264681912722223,-17.338467316880386,-8.186490701683894,0.10156224,-0.96911373,0.155944425,49.38136,16.67918,-38.54676,71.0
1774822377.9134135,1.6450881958007812e-05,2026-03-29T22:12:57.913,2026-03-29T18:12:57.913,-33585.885,-47325.915,-84560.84999999999,-49538.34,-13980.465,-18653.265,6206.264999999999,-64118.88,9.108218251511698,12.397481890059504,12.28428296233647,9.568339181262406,8.872521652351793,5.405075157439672,-13.52508885429922,-4.680441735780763,0.10156224,-0.96911373,0.155944425,49.38136,16.67918,-38.54676,71.0
1774822377.921316,0.007902383804321289,2026-03-29T22:12:57.921,2026-03-29T18:12:57.921,-33586.29,-47322.81,-84554.325,-49543.155,-13997.295,-18680.805,6225.57,-64120.005,5.415631326060695,6.546344799986024,7.022924732968702,3.4938283572497135,-0.9237921183699168,-4.281490515983386,-3.7798048831740982,0.7738977151551443,0.10156224,-0.96911373,0.155944425,49.38136,16.67918,-38.54676,71.0
1774822377.9213302,1.430511474609375e-05,2026-03-29T22:12:57.921,2026-03-29T18:12:57.921,-33597.18,-47339.369999999995,-84573.765,-49554.314999999995,-14008.14,-18695.204999999998,6215.13,-64128.96,-0.7040823652465182,-2.128187810457341,-1.2691687233321691,-4.100698357866585,-10.26542764509636,-11.98645837554179,7.100487111087446,5.64236150686759,0.10156224,-0.96911373,0.155944425,49.38136,16.67918,-38.54676,71.0
1774822377.92841,0.0070798397064208984,2026-03-29T22:12:57.928,2026-03-29T18:12:57.928,-33605.145,-47352.555,-84596.715,-49560.165,-14005.98,-18683.01,6200.325,-64132.604999999996,-6.271017987529375,-9.467269205495347,-8.5615669583523,-9.399023050473296,-14.524037169303519,-13.844942003787141,14.053966273908102,7.762438565617542,0.10156224,-0.96911373,0.155944425,49.38136,16.67918,-38.54676,71.0
1774822377.9284232,1.3113021850585938e-05,2026-03-29T22:12:57.928,2026-03-29T18:12:57.928,-33597.494999999995,-47343.24,-84591.98999999999,-49565.564999999995,-14012.55,-18678.105,6179.13,-64126.439999999995,-8.6649140145393,-12.09083253241561,-11.473845421269573,-9.83733045602359,-11.590190208310883,-8.85635418507887,14.10920427869311,6.305263374346046,0.10156224,-0.96911373,0.155944425,49.38136,16.67918,-38.54676,71.0
1774822377.928436,1.2874603271484375e-05,2026-03-29T22:12:57.928,2026-03-29T18:12:57.928,-33601.229999999996,-47347.965,-84597.25499999999,-49575.284999999996,-14017.949999999999,-18674.684999999998,6168.195,-64140.75,-6.859552233264684,-8.955482648452074,-8.843949868389894,-5.336088869724869,-2.9041030632035754,0.6037053828350764,7.655721930782818,2.091965659091438,0.10156224,-0.96911373,0.155944425,49.38136,16.67918,-38.54676,71.0
1774822377.9284432,7.152557373046875e-06,2026-03-29T22:12:57.928,2026-03-29T18:12:57.928,-33611.534999999996,-47349.36,-84591.495,-49568.13,-14012.73,-18676.53,6132.554999999999,-64166.895,-1.860695831821313,-1.758898654300687,-2.1812209624806638,1.727642926137646,7.261324135141559,9.932192672539912,-1.9142936241071165,-2.852219599173027,0.10156224,-0.96911373,0.155944425,49.38136,16.67918,-38.54676,71.0
1774822377.928452,8.821487426757812e-06,2026-03-29T22:12:57.928,2026-03-29T18:12:57.928,-33602.895,-47333.07,-84572.50499999999,-49550.22,-13999.14,-18672.48,6117.389999999999,-64168.92,3.8375581456900902,5.958921474174007,5.165154863420724,7.75994403531291,13.90339424059801,14.544778495214404,-9.95080432264519,-6.2698118379606536,0.113952345,-0.96264402,0.16613727,47.65698,17.3201,-43.75042,71.0
1774822377.9284587,6.67572021484375e-06,2026-03-29T22:12:57.928,2026-03-29T18:12:57.928,-33557.445,-47283.615,-84518.19,-49497.615,-13949.595,-18629.46,6155.505,-64141.064999999995,7.489823057859221,10.548686125735655,9.675432210060624,9.760327166220423,13.742333958068684,12.12062868277864,-12.793622319651453,-6.7028860091842795,0.113952345,-0.96264402,0.16613727,47.65698,17.3201,-43.75042,71.0
1774822377.9330337,0.004575014114379883,2026-03-29T22:12:57.933,2026-03-29T18:12:57.933,-33534.585,-47266.604999999996,-84500.91,-49485.915,-13941.81,-18619.965,6217.965,-64108.755,7.419179091580758,9.973970317582474,9.339797480836738,6.797542507084768,6.824751286864604,3.7501227782315554,-9.440390303752375,-4.112501241896836,0.113952345,-0.96264402,0.16613727,47.65698,17.3201,-43.75042,71.0
1774822377.9330473,1.3589859008789062e-05,2026-03-29T22:12:57.933,2026-03-29T18:12:57.933,-33583.095,-47324.835,-84569.625,-49557.555,-14012.369999999999,-18686.204999999998,6175.575,-64146.195,3.7868139240423724,4.711967102655207,4.55098112109777,0.43217954822423,-3.499316087553473,-6.5738050590764585,-1.8734718190052215,0.17623316127949118,0.113952345,-0.96264402,0.16613727,47.65698,17.3201,-43.75042,71.0
1774822377.9373188,0.004271507263183594,2026-03-29T22:12:57.937,2026-03-29T18:12:57.937,-33624.405,-47369.52,-84614.44499999999,-49600.259999999995,-14053.275,-18725.13,6175.26,-64163.204999999994,-1.5408279419551414,-2.562952608504516,-2.1844689508181125,-6.099490686940403,-12.207255202216857,-13.874663938738944,6.045941863502612,4.144916615793117,0.113952345,-0.96264402,0.16613727,47.65698,17.3201,-43.75042,71.0
1774822377.9373426,2.384185791015625e-05,2026-03-29T22:12:57.937,2026-03-29T18:12:57.937,-33633.945,-47380.32,-84622.59,-49603.095,-14051.205,-18722.655,6183.855,-64157.85,-5.938720772972644,-8.321930483568634,-7.532882280705237,-9.51503012431077,-15.044398352683135,-14.593357288137712,10.521850605549236,6.0315982431950905,0.113952345,-0.96264402,0.16613727,47.65698,17.3201,-43.75042,71.0
1774822377.9410563,0.0037136077880859375,2026-03-29T22:12:57.941,2026-03-29T18:12:57.941,-33601.005,-47347.2,-84590.19,-49570.695,-14022.675,-18704.43,6192.63,-64134.72,-7.308134896433594,-9.882556043477708,-8.966670985988937,-8.113899221901049,-10.589096045809182,-8.31212636371482,9.636330966842312,5.112483996107415,0.113952345,-0.96264402,0.16613727,47.65698,17.3201,-43.75042,71.0
1774822377.9410741,1.7881393432617188e-05,2026-03-29T22:12:57.941,2026-03-29T18:12:57.941,-33581.88,-47323.17,-84561.20999999999,-49541.805,-13993.019999999999,-18677.114999999998,6218.865,-64121.399999999994,-5.074428183519182,-6.653044329322967,-5.951052829601313,-2.6052776197916128,-0.9457282543247173,2.0284972075951306,4.16717456167723,1.9689318276419705,0.113952345,-0.96264402,0.16613727,47.65698,17.3201,-43.75042,71.0
1774822377.9456396,0.00456547737121582,2026-03-29T22:12:57.945,2026-03-29T18:12:57.945,-33589.53,-47330.46,-84567.465,-49544.955,-13990.14,-18672.84,6193.71,-64152.674999999996,-0.42551368490409336,-0.3458861492942714,-0.13162865041190377,4.258906626526803,9.263954236849758,11.523538606650286,-2.937075851682673,-1.8529075183468353,0.113952345,-0.96264402,0.16613727,47.65698,17.3201,-43.75042,71.0
1774822377.9456575,1.7881393432617188e-05,2026-03-29T22:12:57.945,2026-03-29T18:12:57.945,-33589.215,-47333.97,-84580.69499999999,-49570.604999999996,-14017.814999999999,-18699.57,6160.275,-64171.845,4.305892431552111,5.909000015054428,5.534764460105535,9.052042717664603,15.120763632582246,15.63992939865199,-8.10793455390618,-4.599626196287077,0.113952345,-0.96264402,0.16613727,47.65698,17.3201,-43.75042,71.0
1774822377.951363,0.005705595016479492,2026-03-29T22:12:57.951,2026-03-29T18:12:57.951,-33575.354999999996,-47322.314999999995,-84576.375,-49574.88,-14024.744999999999,-18696.105,6185.16,-64144.619999999995,6.79987782572495,9.099804564661708,8.256663113766345,9.364032856235076,13.770548184395922,12.37871780313261,-8.932248012522935,-5.1152785817648905,0.12939420000000001,-0.9680151,0.17541459,56.64512,19.73118,-45.2459,71.0
1774822377.9513848,2.1696090698242188e-05,2026-03-29T22:12:57.951,2026-03-29T18:12:57.951,-33603.165,-47348.955,-84593.43,-49579.47,-14015.295,-18674.505,6226.38,-64142.055,5.877467332171244,7.7709632675156435,6.76476193060113,4.988740864779273,5.797849359786922,3.2332860363571716,-5.274622627743426,-3.32370830143768,0.12939420000000001,-0.9680151,0.17541459,56.64512,19.73118,-45.2459,71.0
1774822377.9533432,0.0019583702087402344,2026-03-29T22:12:57.953,2026-03-29T18:12:57.953,-33630.479999999996,-47368.125,-84608.01,-49597.29,-14043.644999999999,-18714.735,6164.099999999999,-64197.09,2.0548774586675025,2.6829174579306456,1.8975906337516897,-1.9671135193193223,-5.042904006480905,-7.5099782609500485,0.7746652981515073,-0.1891996832256557,0.12939420000000001,-0.9680151,0.17541459,56.64512,19.73118,-45.2459,71.0
1774822377.95336,1.6927719116210938e-05,2026-03-29T22:12:57.953,2026-03-29T18:12:57.953,-33620.67,-47348.595,-84583.17,-49584.645,-14043.24,-18724.32,6066.855,-64224.27,-2.734842925321437,-3.602791068642067,-3.850444203476132,-8.102723391827963,-13.607023055512046,-14.793960677191468,6.049479411814581,2.792163708899844,0.12939420000000001,-0.9680151,0.17541459,56.64512,19.73118,-45.2459,71.0
1774822377.9578676,0.004507541656494141,2026-03-29T22:12:57.957,2026-03-29T18:12:57.957,-33551.28,-47256.884999999995,-84476.47499999999,-49485.96,-13946.58,-18632.114999999998,6125.445,-64185.03,-6.106156216651821,-7.993386643862867,-7.581371180112059,-10.374781310337971,-15.801276765355832,-15.176605172913451,7.939454287263689,4.306256176862338,0.12939420000000001,-0.9680151,0.17541459,56.64512,19.73118,-45.2459,71.0
1774822377.957888,2.0265579223632812e-05,2026-03-29T22:12:57.957,2026-03-29T18:12:57.957,-33518.295,-47214.0,-84416.67,-49414.229999999996,-13868.73,-18564.795,6212.385,-64142.369999999995,-6.395445062963991,-8.36803495841904,-7.4276698267253805,-7.584528129317131,-10.528950263808706,-8.453229426509978,5.671941467524019,3.7993403599241233,0.12939420000000001,-0.9680151,0.17541459,56.64512,19.73118,-45.2459,71.0
1774822377.9666436,0.008755683898925781,2026-03-29T22:12:57.966,2026-03-29T18:12:57.966,-33544.71,-47288.97,-84529.17,-49497.93,-13934.475,-18614.295,6237.179999999999,-64126.71,-3.4730327075031506,-4.591721537166297,-3.4694493872058176,-0.9831957940735411,-0.21914995607508428,2.246613963471201,0.6174375971790805,1.6668253667955826,0.12939420000000001,-0.9680151,0.17541459,56.64512,19.73118,-45.2459,71.0
1774822377.96666,1.6450881958007812e-05,2026-03-29T22:12:57.966,2026-03-29T18:12:57.966,-33583.994999999995,-47345.58,-84608.415,-49571.775,-14005.619999999999,-18681.21,6207.3,-64143.045,1.199659315247564,1.440019098938681,2.308223679372271,6.299515325143496,10.307330411678432,11.928454584426827,-4.497715256599277,-1.004124127195798,0.12939420000000001,-0.9680151,0.17541459,56.64512,19.73118,-45.2459,71.0
1774822377.9666748,1.4781951904296875e-05,2026-03-29T22:12:57.966,2026-03-29T18:12:57.966,-33622.11,-47370.735,-84625.065,-49605.84,-14046.93,-18723.195,6123.0599999999995,-64196.235,5.2924126162425305,6.737887367415633,6.994734192480375,10.737956717278484,16.099515361064036,16.073433550674853,-7.034682811640644,-2.9846648754342464,0.12939420000000001,-0.9680151,0.17541459,56.64512,19.73118,-45.2459,71.0
1774822377.9666796,4.76837158203125e-06,2026-03-29T22:12:57.966,2026-03-29T18:12:57.966,-33629.22,-47356.244999999995,-84602.11499999999,-49589.549999999996,-14035.05,-18711.0,6071.76,-64247.174999999996,6.7544731364269,8.680233942319898,8.19347977476364,10.102803291810716,14.401516722108498,12.750141752485172,-5.7879752373755275,-3.4704811178478887,0.12939420000000001,-0.9680151,0.17541459,56.64512,19.73118,-45.2459,71.0
1774822377.9691453,0.0024657249450683594,2026-03-29T22:12:57.969,2026-03-29T18:12:57.969,-33591.69,-47316.825,-84563.64,-49553.235,-13998.24,-18671.715,6147.405,-64200.825,4.828649374549164,6.293104137908773,5.220480149035972,4.557489957694099,5.9515159119015,3.5106504737444717,-1.552576522567,-2.402769242682117,0.14074671,-0.97375239,0.18127395,72.54603999999999,21.07406,-46.115719999999996,71.0
