unix_time_s,dt_s,UTC,LOCAL,EMG1_Raw,EMG2_Raw,EMG3_Raw,EMG4_Raw,EMG5_Raw,EMG6_Raw,EMG7_Raw,EMG8_Raw,EMG1_Filtered,EMG2_Filtered,EMG3_Filtered,EMG4_Filtered,EMG5_Filtered,EMG6_Filtered,EMG7_Filtered,EMG8_Filtered,Accel1_Raw,Accel2_Raw,Accel3_Raw,Gyro1_Raw,Gyro2_Raw,Gyro3_Raw,Battery
1774821814.0839496,,2026-03-29T22:03:34.083,2026-03-29T18:03:34.083,-31869.315,-50482.215,-86162.94,-50643.72,-16737.885,-21397.95,3938.1299999999997,-42743.97,-0.7057135426645036,0.927678556170764,1.9429535242142466,2.2725619425256403,2.3586041757758025,2.1196641336594375,-0.4815524393422122,-0.7586300727206916,0.10125706500000001,0.103576395,0.972958935,2.2889999999999997,-0.32045999999999997,7.29428,72.0
1774821814.0839684,1.8835067749023438e-05,2026-03-29T22:03:34.083,2026-03-29T18:03:34.083,-31904.504999999997,-50493.33,-86153.805,-50625.405,-16718.895,-21385.71,3936.5099999999998,-42773.805,0.1720895481810236,2.4982489140482342,2.934954555592,4.564457987725844,5.298090124289546,3.207553362650855,6.416459846545099,1.01259371154958,0.10125706500000001,0.103576395,0.972958935,2.2889999999999997,-0.32045999999999997,7.29428,72.0
1774821814.0880227,0.00405430793762207,2026-03-29T22:03:34.088,2026-03-29T18:03:34.088,-31877.64,-50481.674999999996,-86151.915,-50618.79,-16709.895,-21375.855,3929.1299999999997,-42769.08,0.8792671319609605,2.7812881150248705,2.48233516400456,4.625473363881581,5.61447822463607,2.51565072564913,10.41835284336249,2.322733567328568,0.097656,0.101501205,0.973081005,2.5484199999999997,-2.0448399999999998,6.9433,72.0
1774821814.0880597,3.695487976074219e-05,2026-03-29T22:03:34.088,2026-03-29T18:03:34.088,-31870.89,-50487.884999999995,-86155.73999999999,-50619.375,-16710.48,-21379.905,3922.92,-42752.79,1.0324659012272601,1.5456996531046991,0.6699177603607003,2.274218766483684,3.0103556178619684,0.23357986904506156,9.645480041149007,2.6011609625334318,0.097656,0.101501205,0.973081005,2.5484199999999997,-2.0448399999999998,6.9433,72.0
1774821814.0915775,0.0035178661346435547,2026-03-29T22:03:34.091,2026-03-29T18:03:34.091,-31905.495,-50496.165,-86150.97,-50611.814999999995,-16699.995,-21367.17,3921.75,-42760.755,0.5702032052616893,-0.622777864179814,-1.67939258916006,-1.4090103618004217,-1.2864605951380164,-2.496408612282112,4.41794263647393,1.7331450002888464,0.097656,0.101501205,0.973081005,2.5484199999999997,-2.0448399999999998,6.9433,72.0
1774821814.0916004,2.288818359375e-05,2026-03-29T22:03:34.091,2026-03-29T18:03:34.091,-31911.93,-50497.29,-86163.12,-50630.85,-16726.815,-21396.015,3908.16,-42780.195,-0.2252137039611399,-2.5986574126502022,-3.3795431792488855,-4.5828456000922335,-5.105115144356463,-4.147630018471304,-2.874935921957755,0.09964417116625753,0.097656,0.101501205,0.973081005,2.5484199999999997,-2.0448399999999998,6.9433,72.0
1774821814.0957844,0.00418400764465332,2026-03-29T22:03:34.095,2026-03-29T18:03:34.095,-31916.565,-50504.759999999995,-86168.97,-50632.695,-16719.93,-21375.225,3918.105,-42795.09,-0.8906821546538563,-3.2979961421761796,-3.483104234380222,-5.573396159459089,-6.435749579673893,-3.6480210354506943,-8.870297132396392,-1.5923701182519934,0.097656,0.101501205,0.973081005,2.5484199999999997,-2.0448399999999998,6.9433,72.0
1774821814.095824,3.9577484130859375e-05,2026-03-29T22:03:34.095,2026-03-29T18:03:34.095,-31904.324999999997,-50496.93,-86163.48,-50632.38,-16724.655,-21386.34,3914.685,-42798.24,-1.0389196112600956,-2.264595132360177,-1.8031737396332552,-3.758914695316723,-4.490692602281987,-1.0344974849414705,-10.789204259431674,-2.611817158074909,0.097656,0.101501205,0.973081005,2.5484199999999997,-2.0448399999999998,6.9433,72.0
1774821814.0998237,0.0039997100830078125,2026-03-29T22:03:34.099,2026-03-29T18:03:34.099,-31883.985,-50488.92,-86167.395,-50640.615,-16739.864999999998,-21412.035,3903.2549999999997,-42771.33,-0.5705394273124593,0.0528901882508734,0.929767181596414,0.05791741271986985,-0.16106037236196014,2.4621380982619807,-7.731450338858597,-2.5106335023288646,0.097656,0.101501205,0.973081005,2.5484199999999997,-2.0448399999999998,6.9433,72.0
1774821814.0998363,1.2636184692382812e-05,2026-03-29T22:03:34.099,2026-03-29T18:03:34.099,-31893.3,-50493.015,-86168.47499999999,-50636.88,-16735.77,-21412.215,3895.785,-42772.994999999995,0.2703325937982458,2.4945083301520374,3.3847606482284953,4.006660615383157,4.392020414109857,4.994909599540876,-1.1016666170768208,-1.3118455766897843,0.097656,0.101501205,0.973081005,2.5484199999999997,-2.0448399999999998,6.9433,72.0
1774821814.1050968,0.005260467529296875,2026-03-29T22:03:34.105,2026-03-29T18:03:34.105,-31909.77,-50482.305,-86142.42,-50605.784999999996,-16703.145,-21379.05,3891.87,-42801.21,1.024931081445322,3.770575185279334,4.284210706661176,6.075758017799304,6.82405193205054,5.070851470027462,6.036140332912874,0.4953801984177068,0.097656,0.101501205,0.973081005,2.5484199999999997,-2.0448399999999998,6.9433,72.0
1774821814.1051185,2.1696090698242188e-05,2026-03-29T22:03:34.105,2026-03-29T18:03:34.105,-31904.145,-50477.85,-86135.48999999999,-50594.67,-16687.17,-21365.954999999998,3935.475,-42794.46,1.2643690884310097,3.139103301073046,3.070897014632312,5.145598069436049,5.821758464066552,2.4059709105821745,10.378415211644093,2.151289452471148,0.097656,0.101501205,0.973081005,2.5484199999999997,-2.0448399999999998,6.9433,72.0
1774821814.10971,0.004591464996337891,2026-03-29T22:03:34.109,2026-03-29T18:03:34.109,-31900.545,-50491.575,-86154.48,-50617.259999999995,-16702.47,-21367.98,3961.17,-42777.494999999995,0.8212489724072403,0.8245504065640873,0.2389671558578341,1.5938010522038693,1.8132333157732088,-1.8152122201374716,9.916308082092572,2.935520067939279,0.09716772,0.10058568,0.97216548,5.35626,-1.9075,6.4855,72.0
1774821814.1097395,2.956390380859375e-05,2026-03-29T22:03:34.109,2026-03-29T18:03:34.109,-31893.57,-50505.435,-86184.09,-50669.909999999996,-16765.829999999998,-21431.07,3923.0099999999998,-42763.005,-0.11282206862977454,-2.053911220707287,-2.8624668764680132,-2.8542579849542276,-3.210581474536243,-5.462140496170903,4.869489982137242,2.4702436723598447,0.09716772,0.10058568,0.97216548,5.35626,-1.9075,6.4855,72.0
1774821814.1097715,3.1948089599609375e-05,2026-03-29T22:03:34.109,2026-03-29T18:03:34.109,-31891.77,-50506.38,-86192.37,-50681.205,-16788.149999999998,-21465.63,3885.8849999999998,-42763.185,-1.075529280387589,-4.027000522512786,-4.678046095808365,-5.9729266757841,-6.691227426602172,-6.534591680325507,-2.4161345682629607,0.8945356595913984,0.09716772,0.10058568,0.97216548,5.35626,-1.9075,6.4855,72.0
1774821814.1097836,1.2159347534179688e-05,2026-03-29T22:03:34.109,2026-03-29T18:03:34.109,-31883.265,-50485.545,-86151.23999999999,-50628.06,-16732.125,-21409.829999999998,3879.9449999999997,-42767.955,-1.5644444583803494,-4.02623781873117,-4.232521007990902,-6.161293556719559,-6.814295382871552,-4.248361323520554,-8.559481647797513,-1.1668687738899481,0.09716772,0.10058568,0.97216548,5.35626,-1.9075,6.4855,72.0
1774821814.1155665,0.0057828426361083984,2026-03-29T22:03:34.115,2026-03-29T18:03:34.115,-31892.489999999998,-50486.49,-86132.34,-50593.229999999996,-16685.01,-21343.815,3894.0299999999997,-42782.85,-1.293941277511092,-1.956821493259546,-1.6543941210736488,-3.2721116668503765,-3.461090913155049,0.4547345161447816,-10.7158225280933,-2.840229378652605,0.09716772,0.10058568,0.97216548,5.35626,-1.9075,6.4855,72.0
1774821814.1155877,2.1219253540039062e-05,2026-03-29T22:03:34.115,2026-03-29T18:03:34.115,-31910.445,-50494.455,-86136.84,-50586.119999999995,-16668.63,-21321.989999999998,3932.46,-42789.869999999995,-0.34882891959764517,1.2125844762250706,1.8441080911146148,1.2875015270191068,1.7010393365695442,5.284314820909128,-7.897007245800057,-3.361651791651554,0.09716772,0.10058568,0.97216548,5.35626,-1.9075,6.4855,72.0
1774821814.1209085,0.00532078742980957,2026-03-29T22:03:34.120,2026-03-29T18:03:34.120,-31870.215,-50472.945,-86157.22499999999,-50625.405,-16719.255,-21382.695,3933.045,-42762.42,0.8437373193340331,3.9072450841638395,4.5416756536211205,5.2477349732466,6.051351647984844,7.721322297075644,-1.426573440392901,-2.4172234107837647,0.09716772,0.10058568,0.97216548,5.35626,-1.9075,6.4855,72.0
1774821814.1209345,2.5987625122070312e-05,2026-03-29T22:03:34.120,2026-03-29T18:03:34.120,-31858.379999999997,-50482.619999999995,-86165.19,-50633.505,-16730.73,-21397.41,3950.685,-42736.905,1.7127979920933556,4.733170548712738,5.062611002794138,6.617211021140158,7.353696886025642,6.330437845412719,5.680294270149554,-0.3173358209533724,0.09716772,0.10058568,0.97216548,5.35626,-1.9075,6.4855,72.0
1774821814.1237655,0.002830982208251953,2026-03-29T22:03:34.123,2026-03-29T18:03:34.123,-31879.62,-50487.03,-86157.9,-50624.775,-16718.175,-21385.934999999998,3943.4849999999997,-42750.18,1.8176410243457775,3.198225175591614,3.083731172330981,4.694985468000147,4.913396793189054,1.5814780195351108,10.121364322215205,2.086833551587585,0.09716772,0.10058568,0.97216548,5.35626,-1.9075,6.4855,72.0
1774821814.1237817,1.621246337890625e-05,2026-03-29T22:03:34.123,2026-03-29T18:03:34.123,-31902.704999999998,-50496.705,-86164.515,-50636.43,-16726.635,-21389.265,3937.095,-42775.244999999995,1.0654070968327263,-0.005618291711237819,-0.47193282442085027,0.43469272979425017,-0.04854989958902149,-4.281271789518964,9.841878593999997,3.734787508611389,0.09716772,0.10058568,0.97216548,5.35626,-1.9075,6.4855,72.0
1774821814.128095,0.004313230514526367,2026-03-29T22:03:34.128,2026-03-29T18:03:34.128,-31899.914999999997,-50490.63,-86155.155,-50617.979999999996,-16706.97,-21365.055,3950.0099999999998,-42783.39,-0.23294934826862912,-3.316836632151337,-3.867839155325964,-4.030303232352601,-5.006526441670281,-8.305035627353222,4.985792680668301,3.8150316572123706,0.09655737,0.100646715,0.9716772,5.7835399999999995,-2.5179,6.5618,72.0
1774821814.1281111,1.621246337890625e-05,2026-03-29T22:03:34.128,2026-03-29T18:03:34.128,-31910.355,-50491.979999999996,-86154.705,-50618.924999999996,-16714.395,-21383.505,3927.42,-42794.909999999996,-1.4968497045681204,-5.071553224545451,-5.409139679657743,-6.463312185518946,-7.4203797248473125,-8.320815540136095,-2.176467580970378,2.15727085844539,0.09655737,0.100646715,0.9716772,5.7835399999999995,-2.5179,6.5618,72.0
1774821814.1314447,0.003333568572998047,2026-03-29T22:03:34.131,2026-03-29T18:03:34.131,-31905.719999999998,-50479.38,-86133.33,-50600.97,-16696.395,-21371.535,3928.185,-42801.975,-2.139440979441956,-4.343692721377696,-4.29600567973054,-5.65556041452412,-6.043307545522454,-4.105100224385796,-8.307498573615785,-0.6280105066000574,0.09655737,0.100646715,0.9716772,5.7835399999999995,-2.5179,6.5618,72.0
1774821814.1314647,2.002716064453125e-05,2026-03-29T22:03:34.131,2026-03-29T18:03:34.131,-31901.76,-50492.43,-86147.86499999999,-50615.1,-16709.489999999998,-21382.245,3915.6299999999997,-42790.68,-1.8389139571422728,-1.4320496032992356,-1.0422812616466732,-2.035603236119364,-1.5713873650057708,2.408402395842891,-10.555465607546392,-3.355263257898434,0.09655737,0.100646715,0.9716772,5.7835399999999995,-2.5179,6.5618,72.0
1774821814.1354613,0.003996610641479492,2026-03-29T22:03:34.135,2026-03-29T18:03:34.135,-31891.14,-50494.68,-86157.72,-50624.729999999996,-16716.465,-21379.454999999998,3911.67,-42777.72,-0.6929720120781654,2.2612611992794873,2.7608893964125567,2.5538473856635426,3.7056017226601066,8.019739879061195,-7.878264713617448,-4.757731842604888,0.09655737,0.100646715,0.9716772,5.7835399999999995,-2.5179,6.5618,72.0
1774821814.1354797,1.8358230590820312e-05,2026-03-29T22:03:34.135,2026-03-29T18:03:34.135,-31895.145,-50489.64,-86165.595,-50641.244999999995,-16742.114999999998,-21411.495,3893.7599999999998,-42782.67,0.8149191302438038,4.912168080168902,5.228012806487743,5.796703842613115,7.077583671816898,9.843858872856801,-1.5256346305787545,-4.069879230491405,0.09655737,0.100646715,0.9716772,5.7835399999999995,-2.5179,6.5618,72.0
1774821814.1395745,0.004094839096069336,2026-03-29T22:03:34.139,2026-03-29T18:03:34.139,-31897.395,-50475.33,-86142.015,-50611.905,-16709.805,-21381.48,3905.0099999999998,-42789.915,2.0237444976973,5.181909230192677,5.121203697806654,6.0801190355495605,6.809614347306682,6.796138436389336,5.54287816971274,-1.4333994654550686,0.09655737,0.100646715,0.9716772,5.7835399999999995,-2.5179,6.5618,72.0
1774821814.139586,1.1444091796875e-05,2026-03-29T22:03:34.139,2026-03-29T18:03:34.139,-31898.43,-50488.38,-86148.09,-50611.905,-16704.63,-21371.895,3936.105,-42781.5,2.3858334287858676,2.89609482377431,2.477422212822603,3.305866502136445,3.0390809300336494,0.21603622705333897,10.032984174420065,2.0844198482901812,0.09655737,0.100646715,0.9716772,5.7835399999999995,-2.5179,6.5618,72.0
1774821814.1473567,0.0077707767486572266,2026-03-29T22:03:34.147,2026-03-29T18:03:34.147,-31898.835,-50498.189999999995,-86167.395,-50637.555,-16735.23,-21405.69,3942.585,-42777.854999999996,1.712111005297413,-0.8501680288267109,-1.3992556829565128,-1.0753826508493785,-2.2910164464408287,-6.721868951148736,9.846007287995022,4.909037531809181,0.09655737,0.100646715,0.9716772,5.7835399999999995,-2.5179,6.5618,72.0
1774821814.1473925,3.5762786865234375e-05,2026-03-29T22:03:34.147,2026-03-29T18:03:34.147,-31892.085,-50494.455,-86163.165,-50631.119999999995,-16725.555,-21391.559999999998,3939.66,-42773.354999999996,0.2634784074594156,-4.221846670144014,-4.582638066163766,-4.819023077317026,-6.431456977505263,-10.55036669210935,5.05563360033577,5.657964031204847,0.09655737,0.100646715,0.9716772,5.7835399999999995,-2.5179,6.5618,72.0
1774821814.147427,3.457069396972656e-05,2026-03-29T22:03:34.147,2026-03-29T18:03:34.147,-31878.449999999997,-50506.604999999996,-86188.095,-50660.415,-16753.005,-21412.62,3928.0499999999997,-42751.395,-1.352971966187661,-5.549874317855075,-5.486595458231565,-6.038758275429296,-7.244963818478282,-9.250778456548069,-2.121502200859454,3.8133679084371375,0.09667944,0.099792225,0.97082271,8.530339999999999,-2.0601,5.8751,72.0
1774821814.147441,1.3828277587890625e-05,2026-03-29T22:03:34.147,2026-03-29T18:03:34.147,-31858.695,-50505.03,-86201.86499999999,-50680.979999999996,-16778.43,-21443.94,3911.7599999999998,-42724.439999999995,-2.4399410664793955,-4.16297128490717,-3.6614060304727194,-4.1634286772036555,-4.311074556125417,-3.3142034338074384,-8.348954732066376,0.04212531511693837,0.09667944,0.099792225,0.97082271,8.530339999999999,-2.0601,5.8751,72.0
1774821814.1522539,0.004812955856323242,2026-03-29T22:03:34.152,2026-03-29T18:03:34.152,-31873.905,-50504.58,-86181.435,-50652.9,-16749.809999999998,-21420.45,3910.365,-42729.119999999995,-2.509614948406428,-0.7283616956330792,-0.021935864118371274,-0.21051345311359174,0.8541682735505703,4.4340414481374895,-10.715763255076634,-4.023334058245206,0.09667944,0.099792225,0.97082271,8.530339999999999,-2.0601,5.8751,72.0
1774821814.152275,2.1219253540039062e-05,2026-03-29T22:03:34.152,2026-03-29T18:03:34.152,-31906.844999999998,-50489.955,-86139.72,-50599.979999999996,-16692.39,-21361.14,3927.555,-42776.055,-1.4991794233024616,3.072105652200818,3.609673010258462,3.75698302836285,5.579052692002063,10.190026210664357,-8.090426199857111,-6.48562162469946,0.09667944,0.099792225,0.97082271,8.530339999999999,-2.0601,5.8751,72.0
1774821814.1555164,0.003241300582885742,2026-03-29T22:03:34.155,2026-03-29T18:03:34.155,-31900.905,-50481.72,-86136.705,-50594.85,-16682.399999999998,-21347.1,3945.87,-42779.88,0.1912052402066916,5.37181134575353,5.418302170756667,5.703133053589117,7.415751439846717,11.051001497422439,-1.6566638038925388,-6.067301838174897,0.09667944,0.099792225,0.97082271,8.530339999999999,-2.0601,5.8751,72.0
1774821814.1555321,1.5735626220703125e-05,2026-03-29T22:03:34.155,2026-03-29T18:03:34.155,-31894.515,-50480.729999999996,-86142.69,-50611.86,-16708.32,-21382.695,3928.995,-42779.205,1.8574048257909521,5.042823168533232,4.507156157596177,4.66464004056459,5.406569396067094,6.484415917987549,5.620398249208079,-2.767544481032831,0.09667944,0.099792225,0.97082271,8.530339999999999,-2.0601,5.8751,72.0
1774821814.1647463,0.009214162826538086,2026-03-29T22:03:34.164,2026-03-29T18:03:34.164,-31890.87,-50471.595,-86135.04,-50608.89,-16713.72,-21401.684999999998,3891.7349999999997,-42791.445,2.7839241776750585,2.253094548533767,1.3467182297696851,1.2319632109488425,0.5823313058346259,-1.3599332482902111,10.35662745824497,2.0451639578775533,0.09667944,0.099792225,0.97082271,8.530339999999999,-2.0601,5.8751,72.0
1774821814.1647651,1.8835067749023438e-05,2026-03-29T22:03:34.164,2026-03-29T18:03:34.164,-31896.225,-50486.265,-86148.765,-50616.36,-16713.63,-21392.28,3914.46,-42784.784999999996,2.549253992822775,-1.6195837977271168,-2.4649704349683406,-2.7757660523837724,-4.565843690478952,-8.671542458588595,10.315520723597633,6.191934884375797,0.09667944,0.099792225,0.97082271,8.530339999999999,-2.0601,5.8751,72.0
1774821814.1647835,1.8358230590820312e-05,2026-03-29T22:03:34.164,2026-03-29T18:03:34.164,-31887.989999999998,-50498.369999999995,-86162.355,-50624.64,-16720.02,-21397.995,3931.245,-42759.135,1.2149347010241127,-4.672539722646779,-5.00936820654523,-5.266242250287034,-7.370327900105971,-11.844346000566931,5.456797963701526,7.6709851902264905,0.09667944,0.099792225,0.97082271,8.530339999999999,-2.0601,5.8751,72.0
1774821814.1647906,7.152557373046875e-06,2026-03-29T22:03:34.164,2026-03-29T18:03:34.164,-31888.035,-50513.85,-86182.155,-50644.665,-16747.245,-21430.035,3893.9849999999997,-42753.104999999996,-0.685123899808424,-5.419422830299304,-5.014138373082338,-4.960704488547554,-6.365018813368126,-9.265530782878843,-2.021598302605225,5.625812926123915,0.09667944,0.099792225,0.97082271,8.530339999999999,-2.0601,5.8751,72.0
1774821814.1674852,0.0026946067810058594,2026-03-29T22:03:34.167,2026-03-29T18:03:34.167,-31880.024999999998,-50502.42,-86178.555,-50648.22,-16751.565,-21428.37,3878.325,-42751.89,-2.356808561891588,-3.519111819076109,-2.4917075230138,-2.049345189012448,-2.0469691738845537,-2.135652613853699,-8.676653047055156,0.824520044421865,0.09912084,0.10278294,0.972592725,8.118319999999999,-1.8159399999999999,5.02054,72.0
1774821814.1674986,1.33514404296875e-05,2026-03-29T22:03:34.167,2026-03-29T18:03:34.167,-31892.489999999998,-50483.295,-86151.015,-50636.295,-16740.405,-21410.37,3892.8599999999997,-42774.03,-3.0761634075670123,0.06748970500709243,1.2716532272078123,1.9198589597169926,3.3721302784791956,6.09723707994511,-11.400420374937543,-4.612374945898828,0.09912084,0.10278294,0.972592725,8.118319999999999,-1.8159399999999999,5.02054,72.0
1774821814.173345,0.005846500396728516,2026-03-29T22:03:34.173,2026-03-29T18:03:34.173,-31926.69,-50489.64,-86137.605,-50610.555,-16703.145,-21359.565,3912.8399999999997,-42816.195,-2.5016514015609363,3.565181705958727,4.369087160460904,4.855738419028147,7.0986658303874295,11.419166657154507,-8.864156750436505,-8.149412517568422,0.09912084,0.10278294,0.972592725,8.118319999999999,-1.8159399999999999,5.02054,72.0
1774821814.1733727,2.765655517578125e-05,2026-03-29T22:03:34.173,2026-03-29T18:03:34.173,-31902.03,-50497.74,-86166.18,-50638.905,-16727.489999999998,-21377.43,3912.8399999999997,-42791.265,-0.8345029522227418,5.2681915889362125,5.237496829145962,5.215851922584942,7.19317703264593,11.22059228200874,-2.1583563275134265,-8.024417480871456,0.09912084,0.10278294,0.972592725,8.118319999999999,-1.8159399999999999,5.02054,72.0
1774821814.1764092,0.0030364990234375,2026-03-29T22:03:34.176,2026-03-29T18:03:34.176,-31873.05,-50501.295,-86180.265,-50652.81,-16744.454999999998,-21404.7,3910.545,-42759.63,1.24736821981765,4.377566977084269,3.445649760881011,2.8089290044886432,3.5725907724221706,5.581949361973931,5.676697331512789,-4.1278146291015005,0.09912084,0.10278294,0.972592725,8.118319999999999,-1.8159399999999999,5.02054,72.0
1774821814.1764312,2.193450927734375e-05,2026-03-29T22:03:34.176,2026-03-29T18:03:34.176,-31902.975,-50503.095,-86154.75,-50621.715,-16715.925,-21385.26,3929.67,-42760.89,2.862789660589631,1.3786360142725247,-0.09103929302483352,-1.1065478433722222,-1.9366212211712155,-2.761672144451424,11.027903723569866,1.866771668479021,0.09912084,0.10278294,0.972592725,8.118319999999999,-1.8159399999999999,5.02054,72.0
1774821814.1795416,0.0031104087829589844,2026-03-29T22:03:34.179,2026-03-29T18:03:34.179,-31885.199999999997,-50485.32,-86152.14,-50625.9,-16726.184999999998,-21406.364999999998,3936.015,-42752.43,3.2992538054384375,-2.220918092616059,-3.5759353414923196,-4.476813555874601,-6.523757989728145,-9.759309173595776,11.37114039980556,7.219976592098849,0.09912084,0.10278294,0.972592725,8.118319999999999,-1.8159399999999999,5.02054,72.0
1774821814.1795597,1.811981201171875e-05,2026-03-29T22:03:34.179,2026-03-29T18:03:34.179,-31878.585,-50492.115,-86165.955,-50642.325,-16744.545,-21425.355,3908.52,-42745.14,2.3272075895699453,-4.651893212562259,-5.240549076973324,-5.520711332549449,-7.826598071918307,-12.025152155612407,6.4553953240290225,9.385866924934142,0.09912084,0.10278294,0.972592725,8.118319999999999,-1.8159399999999999,5.02054,72.0
1774821814.184376,0.004816293716430664,2026-03-29T22:03:34.184,2026-03-29T18:03:34.184,-31907.07,-50484.104999999996,-86144.58,-50613.255,-16708.95,-21383.415,3912.705,-42787.26,0.3182807207883691,-4.757960506090292,-4.238489158529784,-3.658855628148056,-5.141086229482678,-8.486298493720321,-1.5440517007138734,7.230779318929177,0.09912084,0.10278294,0.972592725,8.118319999999999,-1.8159399999999999,5.02054,72.0
1774821814.1844075,3.147125244140625e-05,2026-03-29T22:03:34.184,2026-03-29T18:03:34.184,-31907.07,-50478.795,-86131.98,-50596.11,-16686.899999999998,-21352.995,3946.185,-42792.255,-1.892475679634763,-2.5492453233849126,-1.0734418171555644,0.17607579616630542,0.2090033398479266,-0.8910249303682609,-8.989744694205845,1.6246064038681176,0.09912084,0.10278294,0.972592725,8.118319999999999,-1.8159399999999999,5.02054,72.0
1774821814.1878033,0.0033957958221435547,2026-03-29T22:03:34.187,2026-03-29T18:03:34.187,-31904.73,-50481.045,-86125.68,-50584.814999999995,-16669.755,-21330.495,3955.095,-42781.455,-3.351774767858487,0.8314914845232845,2.654008258190549,4.0096933351894615,5.532208405410823,7.062908544171983,-12.43613354224077,-4.90322763805207,0.10266087,0.11254854,0.971127885,5.5393799999999995,-1.12924,2.63998,72.0
1774821814.1878245,2.1219253540039062e-05,2026-03-29T22:03:34.187,2026-03-29T18:03:34.187,-31894.649999999998,-50489.189999999995,-86140.575,-50598.314999999995,-16678.395,-21336.344999999998,3945.33,-42764.715,-3.3993087128349355,3.699825765033331,5.052994637569935,5.837817289449126,8.126309010413236,11.54129381440392,-10.221650374261811,-9.311431051290752,0.10266087,0.11254854,0.971127885,5.5393799999999995,-1.12924,2.63998,72.0
1774821814.1994014,0.01157689094543457,2026-03-29T22:03:34.199,2026-03-29T18:03:34.199,-31889.204999999998,-50497.064999999995,-86176.62,-50656.634999999995,-16755.39,-21431.07,3907.98,-42763.005,-1.9679118279956092,4.6721543538875725,4.896675584288493,4.66266005040445,6.646162359367054,10.432861300292835,-3.26373687526111,-9.47480197283123,0.10266087,0.11254854,0.971127885,5.5393799999999995,-1.12924,2.63998,72.0
1774821814.1994371,3.5762786865234375e-05,2026-03-29T22:03:34.199,2026-03-29T18:03:34.199,-31876.02,-50495.58,-86173.37999999999,-50653.17,-16753.095,-21426.84,3906.72,-42747.075,0.364133161742119,3.3368096794354716,2.2444628159647064,1.0219141921239834,1.7914249751702458,4.3483951808217025,5.3220683387164245,-5.2172126248657085,0.10266087,0.11254854,0.971127885,5.5393799999999995,-1.12924,2.63998,72.0
1774821814.1994708,3.361701965332031e-05,2026-03-29T22:03:34.199,2026-03-29T18:03:34.199,-31858.515,-50489.64,-86166.22499999999,-50644.259999999995,-16743.375,-21414.645,3907.35,-42724.35,2.602787425079215,0.4266440800952963,-1.5811317485084218,-3.263840630560039,-4.033348578823923,-3.7144221475369705,11.621355707414036,1.5561392983791587,0.10266087,0.11254854,0.971127885,5.5393799999999995,-1.12924,2.63998,72.0
1774821814.1994824,1.1682510375976562e-05,2026-03-29T22:03:34.199,2026-03-29T18:03:34.199,-31872.105,-50493.284999999996,-86158.17,-50636.835,-16741.079999999998,-21419.37,3900.105,-42726.825,3.7610206376153266,-2.5781574624825927,-4.653180496543044,-6.003179794632672,-7.916455322761472,-9.856703168600882,12.708696373762066,7.714288052056343,0.10266087,0.11254854,0.971127885,5.5393799999999995,-1.12924,2.63998,72.0
1774821814.2121327,0.012650251388549805,2026-03-29T22:03:34.212,2026-03-29T18:03:34.212,-31914.449999999997,-50495.67,-86139.135,-50616.18,-16721.774999999998,-21404.745,3900.5099999999998,-42785.82,3.2957716698026696,-4.203669201784404,-5.406489316233104,-5.7473365730169235,-7.894704061934881,-11.174001503923497,8.005963530141548,10.358734237344608,0.10266087,0.11254854,0.971127885,5.5393799999999995,-1.12924,2.63998,72.0
1774821814.2121603,2.765655517578125e-05,2026-03-29T22:03:34.212,2026-03-29T18:03:34.212,-31910.67,-50499.134999999995,-86143.545,-50614.74,-16717.274999999998,-21397.77,3905.415,-42786.225,1.3653189816009748,-3.708154507266595,-3.428519899345684,-2.5420931399792224,-3.939060477879812,-7.1357638754205075,-0.4203769997260271,8.200657299863154,0.10266087,0.11254854,0.971127885,5.5393799999999995,-1.12924,2.63998,72.0
1774821814.2121887,2.8371810913085938e-05,2026-03-29T22:03:34.212,2026-03-29T18:03:34.212,-31885.065,-50496.84,-86155.425,-50623.155,-16719.795,-21396.735,3911.31,-42742.08,-1.2157613001927223,-1.4215231322394835,0.32175311271542345,2.0664199228079685,2.0214716082232917,0.20865951969908306,-8.773488628983218,2.1972754609151477,0.10266087,0.11254854,0.971127885,5.5393799999999995,-1.12924,2.63998,72.0
1774821814.2121997,1.0967254638671875e-05,2026-03-29T22:03:34.212,2026-03-29T18:03:34.212,-31903.379999999997,-50483.79,-86135.22,-50602.5,-16689.375,-21359.565,3910.455,-42769.08,-3.3171143546105104,1.4573318764469556,3.9802108405454737,5.78372510718074,7.049438580917409,7.272049315173098,-13.245499688864935,-4.8702273490927555,0.10266087,0.11254854,0.971127885,5.5393799999999995,-1.12924,2.63998,72.0
1774821814.2122116,1.1920928955078125e-05,2026-03-29T22:03:34.212,2026-03-29T18:03:34.212,-31917.645,-50480.189999999995,-86125.72499999999,-50597.369999999995,-16689.555,-21365.37,3903.75,-42811.695,-3.988318120001356,3.4863943489559044,5.701498735920259,6.708045648636013,8.650294240676022,10.688180449770524,-11.759731062101817,-9.692744638122612,0.10845919500000001,0.118468935,0.9709447800000001,0.30519999999999997,-1.23606,1.0682,72.0
1774821814.2122204,8.821487426757812e-06,2026-03-29T22:03:34.212,2026-03-29T18:03:34.212,-31896.18,-50475.33,-86133.825,-50611.634999999995,-16713.36,-21398.625,3904.335,-42792.119999999995,-2.8927032197920632,3.7039053733202403,4.58364895022578,4.293504430131112,6.0068095109378,8.922178582976938,-4.935170367599614,-9.996410987717226,0.10845919500000001,0.118468935,0.9709447800000001,0.30519999999999997,-1.23606,1.0682,72.0
1774821814.2122324,1.1920928955078125e-05,2026-03-29T22:03:34.212,2026-03-29T18:03:34.212,-31890.285,-50480.46,-86142.015,-50616.854999999996,-16718.04,-21399.12,3908.7,-42777.314999999995,-0.48001974328655933,2.0859250192065537,1.1328928359730608,-0.3481317883776829,0.38744794434721674,2.9599646351484945,4.176039363177394,-5.6288873605326195,0.10845919500000001,0.118468935,0.9709447800000001,0.30519999999999997,-1.23606,1.0682,72.0
1774821814.2122428,1.049041748046875e-05,2026-03-29T22:03:34.212,2026-03-29T18:03:34.212,-31891.41,-50487.345,-86147.55,-50616.99,-16709.76,-21378.78,3939.075,-42768.854999999996,2.1916814509982316,-0.48022319155297044,-2.9674633711710405,-4.9665786099338245,-5.471172821371989,-4.231643243527811,11.465484474260034,1.3560418563013674,0.10845919500000001,0.118468935,0.9709447800000001,0.30519999999999997,-1.23606,1.0682,72.0
1774821814.2161891,0.0039463043212890625,2026-03-29T22:03:34.216,2026-03-29T18:03:34.216,-31901.309999999998,-50500.439999999995,-86153.22,-50620.634999999995,-16713.945,-21383.325,3948.21,-42765.659999999996,3.918244794136025,-2.6755365484945366,-5.677443943687056,-7.266984586449711,-8.70271096732848,-9.18190241028019,13.633665763487322,7.665278727990375,0.10845919500000001,0.118468935,0.9709447800000001,0.30519999999999997,-1.23606,1.0682,72.0
1774821814.2162237,3.457069396972656e-05,2026-03-29T22:03:34.216,2026-03-29T18:03:34.216,-31888.844999999998,-50499.54,-86162.805,-50639.805,-16742.475,-21418.965,3930.0299999999997,-42755.805,3.895307355049579,-3.425408507667353,-5.610567379726082,-6.04568454999017,-7.713337232744991,-9.59445158803586,9.690626748473015,10.329478527254867,0.10845919500000001,0.118468935,0.9709447800000001,0.30519999999999997,-1.23606,1.0682,72.0
1774821814.219448,0.0032243728637695312,2026-03-29T22:03:34.219,2026-03-29T18:03:34.219,-31881.149999999998,-50480.189999999995,-86131.70999999999,-50596.875,-16690.59,-21362.715,3940.02,-42750.72,2.0996629803479214,-2.426427907175341,-2.735810804306175,-1.807979989916083,-2.962335866558705,-5.414550287114552,1.4053065579792545,8.11647758442941,0.10845919500000001,0.118468935,0.9709447800000001,0.30519999999999997,-1.23606,1.0682,72.0
1774821814.2194717,2.3603439331054688e-05,2026-03-29T22:03:34.219,2026-03-29T18:03:34.219,-31884.03,-50463.674999999996,-86114.385,-50578.515,-16673.13,-21349.71,3909.4649999999997,-42767.189999999995,-0.6771223318978628,-0.26544806136155674,1.5806477108763186,3.4438914274861223,3.2581497256830456,1.210482566814565,-7.500265613250026,2.115859139565613,0.10845919500000001,0.118468935,0.9709447800000001,0.30519999999999997,-1.23606,1.0682,72.0
1774821814.2251377,0.005666017532348633,2026-03-29T22:03:34.225,2026-03-29T18:03:34.225,-31897.934999999998,-50483.97,-86145.345,-50617.665,-16724.745,-21414.329999999998,3834.8999999999996,-42787.26,-3.172245417594972,1.913384034445409,5.225065996524305,7.161497578393981,7.934746127420087,7.027174612859444,-13.039951578800814,-4.78897512996336,0.10845919500000001,0.118468935,0.9709447800000001,0.30519999999999997,-1.23606,1.0682,72.0
1774821814.225155,1.7404556274414062e-05,2026-03-29T22:03:34.225,2026-03-29T18:03:34.225,-31891.364999999998,-50489.82,-86166.765,-50645.52,-16751.475,-21436.155,3823.02,-42784.064999999995,-4.226453596409685,3.008911777950478,6.368090826776717,7.486194791710437,8.794103820049088,9.271365492594574,-12.761434684101522,-9.309085566695787,0.10845919500000001,0.118468935,0.9709447800000001,0.30519999999999997,-1.23606,1.0682,72.0
1774821814.227608,0.002452850341796875,2026-03-29T22:03:34.227,2026-03-29T18:03:34.227,-31875.704999999998,-50486.625,-86164.02,-50635.755,-16730.91,-21402.18,3905.91,-42759.18,-3.328964023767482,2.517755384696303,4.376855121533881,4.171687907029092,5.405011392684658,6.982170793341486,-6.835168306646969,-9.329530410467239,0.11083956,0.11401338,0.968808555,0.6714399999999999,0.4578,-1.23606,72.0
1774821814.2276275,1.9550323486328125e-05,2026-03-29T22:03:34.227,2026-03-29T18:03:34.227,-31878.495,-50500.125,-86174.28,-50647.814999999995,-16744.274999999998,-21410.55,3958.47,-42741.314999999995,-0.8741987299893418,0.7648947502607152,0.1554468212804425,-1.261315515962714,-0.6107936219752339,1.410710553263365,2.0515904287655484,-4.9166615602367765,0.11083956,0.11401338,0.968808555,0.6714399999999999,0.4578,-1.23606,72.0
1774821814.2316291,0.004001617431640625,2026-03-29T22:03:34.231,2026-03-29T18:03:34.231,-31884.84,-50502.915,-86161.00499999999,-50621.805,-16711.245,-21377.88,3960.45,-42743.115,2.002080644460305,-1.2949113545266184,-4.26533997170764,-6.2265657506805745,-6.359096504025403,-4.647650996183118,9.931183157943279,1.733859736713836,0.11083956,0.11401338,0.968808555,0.6714399999999999,0.4578,-1.23606,72.0
1774821814.2316616,3.24249267578125e-05,2026-03-29T22:03:34.231,2026-03-29T18:03:34.231,-31913.954999999998,-50514.705,-86159.565,-50609.564999999995,-16693.785,-21358.53,3955.8599999999997,-42771.24,3.944374441217346,-2.5887851158012407,-6.70292883089854,-8.304536347995546,-9.067103103045937,-8.246577561956817,13.34553872762087,7.380525349025885,0.11083956,0.11401338,0.968808555,0.6714399999999999,0.4578,-1.23606,72.0
1774821814.235741,0.004079341888427734,2026-03-29T22:03:34.235,2026-03-29T18:03:34.235,-31902.975,-50501.205,-86169.15,-50632.515,-16727.085,-21401.28,3935.6099999999997,-42767.775,4.019608964718203,-2.4793804069110554,-5.895701628521227,-6.418355658438636,-7.4191395867412835,-7.716975672561014,10.873251051997668,9.320143958079177,0.11083956,0.11401338,0.968808555,0.6714399999999999,0.4578,-1.23606,72.0
1774821814.2357757,3.4809112548828125e-05,2026-03-29T22:03:34.235,2026-03-29T18:03:34.235,-31862.969999999998,-50498.055,-86189.625,-50658.615,-16755.165,-21431.79,3915.6299999999997,-42728.04,2.174804420206386,-1.0768981690710961,-2.14877186967551,-1.3839362431882838,-2.192318014607741,-3.440587197544021,3.71443690688472,6.697281592451313,0.11083956,0.11401338,0.968808555,0.6714399999999999,0.4578,-1.23606,72.0
1774821814.2396839,0.0039081573486328125,2026-03-29T22:03:34.239,2026-03-29T18:03:34.239,-31878.405,-50506.335,-86181.12,-50646.015,-16744.545,-21422.114999999998,3910.3199999999997,-42730.65,-0.7177262113523639,0.8422445375784925,2.774480531659115,4.44298438430104,4.11257877939371,2.3882622359777392,-4.9039154229809965,0.8987305771794466,0.11083956,0.11401338,0.968808555,0.6714399999999999,0.4578,-1.23606,72.0
1774821814.2396972,1.33514404296875e-05,2026-03-29T22:03:34.239,2026-03-29T18:03:34.239,-31903.605,-50503.275,-86154.3,-50605.38,-16694.82,-21366.0,3924.6299999999997,-42754.545,-3.263776966124135,2.2566712460992595,6.480533868923584,8.270044216593087,8.468010960160964,6.873840535676757,-11.202767348420624,-5.156784954062,0.11083956,0.11401338,0.968808555,0.6714399999999999,0.4578,-1.23606,72.0
1774821814.243894,0.004196882247924805,2026-03-29T22:03:34.243,2026-03-29T18:03:34.243,-31919.399999999998,-50480.865,-86130.98999999999,-50595.705,-16696.8,-21373.335,3922.785,-42811.244999999995,-4.217124392080486,2.4357375969740933,7.105639250988472,8.205056550017297,8.771485284906738,7.846083414794547,-12.522552421901612,-8.478321167427886,0.11083956,0.11401338,0.968808555,0.6714399999999999,0.4578,-1.23606,72.0
1774821814.2439332,3.910064697265625e-05,2026-03-29T22:03:34.243,2026-03-29T18:03:34.243,-31909.364999999998,-50478.84,-86131.8,-50595.93,-16695.585,-21372.57,3913.9649999999997,-42804.63,-3.0954185106526606,1.3116810789181435,4.247410398799118,4.187706504998923,4.857556472952665,4.905415622790166,-8.44500043417293,-7.485843141411811,0.11083956,0.11401338,0.968808555,0.6714399999999999,0.4578,-1.23606,72.0
1774821814.2479277,0.003994464874267578,2026-03-29T22:03:34.247,2026-03-29T18:03:34.247,-31915.079999999998,-50484.465,-86144.04,-50607.45,-16704.09,-21378.645,3909.42,-42788.564999999995,-0.4357425168340962,-0.4991345169659387,-0.7948698326919009,-1.9403702112571355,-1.4150323050095557,-0.414799384190147,-0.8927446745423933,-2.779436307770948,0.10766574,0.106139865,0.969540975,2.31952,1.4191799999999999,-2.2889999999999997,72.0
1774821814.247958,3.0279159545898438e-05,2026-03-29T22:03:34.247,2026-03-29T18:03:34.247,-31899.645,-50485.049999999996,-86151.015,-50618.205,-16718.67,-21395.79,3914.5049999999997,-42774.93,2.449422881513104,-2.0292344206152886,-5.60825301573624,-7.279020978451888,-7.045284333604969,-5.432540306831522,6.793263433460043,3.1869511868244977,0.10766574,0.106139865,0.969540975,2.31952,1.4191799999999999,-2.2889999999999997,72.0
1774821814.252118,0.004160165786743164,2026-03-29T22:03:34.252,2026-03-29T18:03:34.252,-31888.305,-50482.89,-86150.79,-50619.645,-16723.53,-21400.155,3919.6349999999998,-42765.03,4.111048094371345,-2.4691024254271072,-7.8178035611591365,-9.24087448265048,-9.322774439778053,-7.652507427981357,11.34879082900935,7.361007408195217,0.10766574,0.106139865,0.969540975,2.31952,1.4191799999999999,-2.2889999999999997,72.0
1774821814.2521355,1.7404556274414062e-05,2026-03-29T22:03:34.252,2026-03-29T18:03:34.252,-31893.254999999997,-50490.945,-86162.48999999999,-50633.28,-16734.555,-21406.32,3922.785,-42760.08,3.6901656935975433,-1.5872948933975386,-6.2538967790858795,-6.803183313933756,-7.12892903348882,-5.994483753602253,10.976707407593581,7.643540757640389,0.10766574,0.106139865,0.969540975,2.31952,1.4191799999999999,-2.2889999999999997,72.0
1774821814.256908,0.0047724246978759766,2026-03-29T22:03:34.256,2026-03-29T18:03:34.256,-31897.574999999997,-50500.71,-86173.29,-50639.895,-16737.614999999998,-21410.505,3917.745,-42755.04,1.368679069723177,0.15331811400042072,-1.5635575774405075,-1.0360022885083582,-1.484141271525401,-1.315541607386285,6.038804615573609,3.951509999434685,0.10766574,0.106139865,0.969540975,2.31952,1.4191799999999999,-2.2889999999999997,72.0
1774821814.256929,2.09808349609375e-05,2026-03-29T22:03:34.256,2026-03-29T18:03:34.256,-31885.785,-50498.055,-86172.165,-50639.85,-16741.62,-21420.719999999998,3905.145,-42742.89,-1.6942728230324,1.8392868394124247,4.050439851787717,5.36367954525385,4.925416685579806,4.024374854716652,-1.2072580091640415,-1.748171429778047,0.10766574,0.106139865,0.969540975,2.31952,1.4191799999999999,-2.2889999999999997,72.0
1774821814.259692,0.002763032913208008,2026-03-29T22:03:34.259,2026-03-29T18:03:34.259,-31872.465,-50493.78,-86167.26,-50631.705,-16729.11,-21405.059999999998,3888.3599999999997,-42733.53,-3.9272724043723386,2.5815326217720167,7.861424763804104,9.331103096770788,9.022321712238725,7.336242839142452,-7.655600867898828,-6.455294108815549,0.10766574,0.106139865,0.969540975,2.31952,1.4191799999999999,-2.2889999999999997,72.0
1774821814.2597172,2.5272369384765625e-05,2026-03-29T22:03:34.259,2026-03-29T18:03:34.259,-31887.855,-50502.42,-86148.855,-50597.82,-16682.309999999998,-21345.66,3897.6749999999997,-42738.93,-4.143263257913089,1.9761077397608566,7.939750805567896,8.899643710981207,8.810836651364383,6.937757514921875,-10.691152863024767,-7.68924171424681,0.10766574,0.106139865,0.969540975,2.31952,1.4191799999999999,-2.2889999999999997,72.0
1774821814.2639432,0.004225969314575195,2026-03-29T22:03:34.263,2026-03-29T18:03:34.263,-31908.015,-50520.33,-86184.81,-50649.165,-16746.03,-21416.13,3879.27,-42755.49,-2.167866522914295,0.3149605771539673,4.124495669914617,4.173484536480208,4.345634357602356,2.9949905844277347,-9.239376669254954,-4.784247107061398,0.10766574,0.106139865,0.969540975,2.31952,1.4191799999999999,-2.2889999999999997,72.0
1774821814.2639663,2.3126602172851562e-05,2026-03-29T22:03:34.263,2026-03-29T18:03:34.263,-31878.315,-50483.564999999995,-86165.595,-50642.369999999995,-16744.545,-21420.63,3916.98,-42743.25,1.0317543896851336,-1.559951032448788,-1.8411366060342542,-2.672833193589619,-2.2720859354680933,-2.5458413351013522,-4.111875227026066,0.7444584505746062,0.10766574,0.106139865,0.969540975,2.31952,1.4191799999999999,-2.2889999999999997,72.0
1774821814.2764127,0.012446403503417969,2026-03-29T22:03:34.276,2026-03-29T18:03:34.276,-31879.035,-50478.119999999995,-86149.035,-50619.869999999995,-16718.67,-21396.555,3937.815,-42746.715,3.805944042555888,-2.6840334242057,-7.103359130329039,-8.391636648051282,-7.879719393602034,-6.908761097220683,2.441081939764656,5.966564516918554,0.1025388,0.10656711,0.97021236,1.77016,1.9838,-3.14356,72.0
1774821814.276454,4.124641418457031e-05,2026-03-29T22:03:34.276,2026-03-29T18:03:34.276,-31896.899999999998,-50475.689999999995,-86127.48,-50589.99,-16684.29,-21365.1,3939.435,-42774.479999999996,4.657852768017645,-2.4615930385659714,-9.060752582553036,-10.200632409201452,-9.759439620766459,-7.860526256711481,7.726923454952846,8.056493506776706,0.1025388,0.10656711,0.97021236,1.77016,1.9838,-3.14356,72.0
1774821814.276489,3.504753112792969e-05,2026-03-29T22:03:34.276,2026-03-29T18:03:34.276,-31884.074999999997,-50486.31,-86164.605,-50643.18,-16748.235,-21437.82,3896.5049999999997,-42758.055,3.0378662197698163,-0.9727636744620284,-6.646779423034483,-7.135046041493886,-6.95056414473083,-4.8338860718522305,9.710973920471224,5.790998602194789,0.1025388,0.10656711,0.97021236,1.77016,1.9838,-3.14356,72.0
1774821814.2765086,1.9550323486328125e-05,2026-03-29T22:03:34.276,2026-03-29T18:03:34.276,-31882.094999999998,-50489.595,-86164.11,-50643.494999999995,-16748.91,-21431.88,3900.42,-42752.385,-0.31943147510827635,1.059120748871355,-0.9009696345324004,-0.5570278860038492,-0.7366090903350779,0.7556580496203564,7.775108330972214,0.24226338942464598,0.1025388,0.10656711,0.97021236,1.77016,1.9838,-3.14356,72.0
1774821814.2765296,2.09808349609375e-05,2026-03-29T22:03:34.276,2026-03-29T18:03:34.276,-31911.704999999998,-50502.24,-86161.77,-50632.02,-16729.875,-21402.09,3929.31,-42765.93,-3.7153289780066876,2.6238350008721376,5.4733778098616,6.4445078757649075,5.93824077877656,6.1693858735694995,2.8668101377521453,-5.717627449102116,0.1025388,0.10656711,0.97021236,1.77016,1.9838,-3.14356,72.0
1774821814.2765408,1.1205673217773438e-05,2026-03-29T22:03:34.276,2026-03-29T18:03:34.276,-31910.94,-50482.665,-86123.34,-50589.225,-16684.875,-21350.835,3939.705,-42781.229999999996,-5.331330909706879,2.926608393079376,9.379963298898625,10.50200401877202,9.859463077070975,8.675005307533498,-2.9665733045744043,-8.877253659398418,0.1025388,0.10656711,0.97021236,1.77016,1.9838,-3.14356,72.0
1774821814.2800355,0.003494739532470703,2026-03-29T22:03:34.280,2026-03-29T18:03:34.280,-31874.579999999998,-50465.43,-86100.48,-50567.04,-16664.04,-21336.614999999998,3939.2549999999997,-42746.715,-4.183987935501568,1.7865593228707815,8.832013882012411,9.587694971626252,9.08489674110132,6.905826220407741,-7.428624469571322,-7.378357249347138,0.1025388,0.10656711,0.97021236,1.77016,1.9838,-3.14356,72.0
1774821814.280064,2.86102294921875e-05,2026-03-29T22:03:34.280,2026-03-29T18:03:34.280,-31878.989999999998,-50493.195,-86153.08499999999,-50623.74,-16721.774999999998,-21401.684999999998,3913.56,-42734.97,-0.6957847758034097,-0.26657000152459315,3.957938489537612,4.025062388546881,3.901720457897045,1.580984061999101,-8.858683337372925,-1.7619314042852112,0.1025388,0.10656711,0.97021236,1.77016,1.9838,-3.14356,72.0
1774821814.2840972,0.004033088684082031,2026-03-29T22:03:34.284,2026-03-29T18:03:34.284,-31898.114999999998,-50498.369999999995,-86159.06999999999,-50631.479999999996,-16732.079999999998,-21412.35,3908.25,-42756.84,3.4395416853212004,-2.2455736946194285,-2.9972656390873094,-3.6105466872170586,-3.271910996251198,-4.783923456649134,-6.8215002345576075,5.204882821195792,0.1025388,0.10656711,0.97021236,1.77016,1.9838,-3.14356,72.0
1774821814.2841268,2.956390380859375e-05,2026-03-29T22:03:34.284,2026-03-29T18:03:34.284,-31896.539999999997,-50488.155,-86134.86,-50595.795,-16685.325,-21345.795,3933.27,-42758.955,6.068507491306402,-3.1847339857888155,-8.70553635599786,-9.681750629553035,-9.012000690970844,-9.061109887752917,-2.2095773999633517,9.880474951697249,0.1025388,0.10656711,0.97021236,1.77016,1.9838,-3.14356,72.0
1774821814.2894304,0.005303621292114258,2026-03-29T22:03:34.289,2026-03-29T18:03:34.289,-31873.004999999997,-50493.689999999995,-86169.015,-50639.759999999995,-16734.105,-21398.94,3910.3199999999997,-42732.405,5.6820393279930705,-2.6103304274588255,-10.34893120758501,-11.221063780743501,-10.518625537656902,-9.03418425827229,3.1451859317000825,9.623428944042299,0.09875463,0.112975785,0.970029255,0.56462,2.3653,-3.15882,72.0
1774821814.2894506,2.0265579223632812e-05,2026-03-29T22:03:34.289,2026-03-29T18:03:34.289,-31902.704999999998,-50499.494999999995,-86171.76,-50643.945,-16742.295,-21416.219999999998,3889.7549999999997,-42762.33,2.2524665164869577,-0.7736991542210587,-7.009388160589573,-7.380543001261682,-6.976579905418771,-4.524239181135181,7.183444021120605,4.23562429118277,0.09875463,0.112975785,0.970029255,0.56462,2.3653,-3.15882,72.0
1774821814.291978,0.0025272369384765625,2026-03-29T22:03:34.291,2026-03-29T18:03:34.291,-31914.315,-50482.034999999996,-86134.185,-50601.015,-16698.915,-21373.739999999998,3904.56,-42786.494999999995,-2.6506450286054504,1.4655439579709957,-0.16986066893849638,0.10897762807271684,0.0125851497399543,2.4454544056753673,8.387025791537088,-3.797594177371359,0.09875463,0.112975785,0.970029255,0.56462,2.3653,-3.15882,72.0
1774821814.2920003,2.2411346435546875e-05,2026-03-29T22:03:34.292,2026-03-29T18:03:34.292,-31923.405,-50485.095,-86123.025,-50582.43,-16674.12,-21344.355,3919.5,-42802.38,-6.5714348149932515,3.048617336675281,6.942580620741271,7.714903357327491,7.1529337554136685,8.557870302147398,6.331447421760425,-10.452156125662432,0.09875463,0.112975785,0.970029255,0.56462,2.3653,-3.15882,72.0
1774821814.2972653,0.005264997482299805,2026-03-29T22:03:34.297,2026-03-29T18:03:34.297,-31916.385,-50495.85,-86145.885,-50613.884999999995,-16713.989999999998,-21392.505,3912.75,-42792.435,-7.387303363590962,3.221349614452202,10.881931192006626,11.769137818403978,11.006291616307974,10.776007460974316,1.831797585843116,-12.168909765506362,0.09875463,0.112975785,0.970029255,0.56462,2.3653,-3.15882,72.0
1774821814.2972956,3.0279159545898438e-05,2026-03-29T22:03:34.297,2026-03-29T18:03:34.297,-31900.905,-50487.255,-86140.395,-50613.255,-16721.505,-21418.829999999998,3905.415,-42772.994999999995,-4.435418515749776,1.8915582428425455,9.654778695265653,10.237610173905177,9.644220199435257,7.837533087907202,-3.3668539579329506,-7.723034332455283,0.09875463,0.112975785,0.970029255,0.56462,2.3653,-3.15882,72.0
1774821814.301152,0.0038564205169677734,2026-03-29T22:03:34.301,2026-03-29T18:03:34.301,-31893.84,-50490.72,-86147.955,-50618.52,-16728.795,-21439.755,3884.4449999999997,-42763.994999999995,1.0436904120402857,-0.32847496609106214,3.7262308825016475,3.7388662235029,3.6073338706530325,0.9402105423763418,-7.245587709968022,1.0104871345582724,0.09875463,0.112975785,0.970029255,0.56462,2.3653,-3.15882,72.0
1774821814.3011727,2.0742416381835938e-05,2026-03-29T22:03:34.301,2026-03-29T18:03:34.301,-31891.815,-50501.205,-86167.8,-50639.895,-16744.5,-21441.645,3866.85,-42757.965,6.417516735367164,-2.4113207864451573,-4.146654713275513,-4.697969518584531,-4.303341560061961,-6.7431116627291035,-8.280224768338254,9.843002071491968,0.09875463,0.112975785,0.970029255,0.56462,2.3653,-3.15882,72.0
1774821814.3036652,0.0024924278259277344,2026-03-29T22:03:34.303,2026-03-29T18:03:34.303,-31903.965,-50505.615,-86154.75,-50609.34,-16695.405,-21367.53,3886.2,-42762.78,8.923217283962476,-3.3955105555919736,-10.200463882572613,-11.045963659922718,-10.326198470684904,-11.525777730611308,-6.0387925827354785,14.28367363348017,0.09875463,0.112975785,0.970029255,0.56462,2.3653,-3.15882,72.0
1774821814.303678,1.2874603271484375e-05,2026-03-29T22:03:34.303,2026-03-29T18:03:34.303,-31896.09,-50492.205,-86150.06999999999,-50611.095,-16701.12,-21370.815,3900.96,-42764.49,7.076197059058348,-2.8307172754058634,-11.469229295913697,-12.204731310875149,-11.527075978983122,-10.971604424775542,-1.3741185674978136,11.80929317815284,0.09875463,0.112975785,0.970029255,0.56462,2.3653,-3.15882,72.0
1774821814.3078504,0.004172325134277344,2026-03-29T22:03:34.307,2026-03-29T18:03:34.307,-31893.57,-50476.77,-86136.93,-50606.055,-16705.215,-21379.95,3940.1099999999997,-42767.729999999996,1.5116217100165752,-0.9804171020669504,-7.239592669886323,-7.515530790885973,-7.225750532765406,-5.1198572939123785,3.880941748659143,3.2499267798049023,0.096984615,0.116759955,0.97033443,-1.0834599999999999,1.19028,-2.5179,72.0
1774821814.307871,2.0742416381835938e-05,2026-03-29T22:03:34.307,2026-03-29T18:03:34.307,-31884.66,-50474.384999999995,-86130.62999999999,-50594.715,-16692.614999999998,-21370.86,3960.3599999999997,-42754.59,-5.205344011447782,1.3074146685929322,0.5578956896045462,0.8741621186319276,0.6318315619544851,3.439207203876539,7.619252825181482,-7.454137745939665,0.096984615,0.116759955,0.97033443,-1.0834599999999999,1.19028,-2.5179,72.0
1774821814.3141265,0.006255388259887695,2026-03-29T22:03:34.314,2026-03-29T18:03:34.314,-31890.6,-50488.83,-86150.295,-50616.99,-16716.87,-21393.36,3921.0299999999997,-42758.415,-9.763360649305321,2.9953451781070797,8.232649005867918,8.995018791703895,8.355044791081141,10.714470422747166,8.302915805987736,-15.076414370798053,0.096984615,0.116759955,0.97033443,-1.0834599999999999,1.19028,-2.5179,72.0
1774821814.3141575,3.0994415283203125e-05,2026-03-29T22:03:34.314,2026-03-29T18:03:34.314,-31876.199999999997,-50474.564999999995,-86137.29,-50605.2,-16704.495,-21383.415,3920.67,-42749.46,-9.736268489430268,3.33039220088133,12.087517404313653,12.937899657566003,12.244507823004419,13.178240403548081,5.607610304533529,-15.660830893459163,0.096984615,0.116759955,0.97033443,-1.0834599999999999,1.19028,-2.5179,72.0
1774821814.3165672,0.002409696578979492,2026-03-29T22:03:34.316,2026-03-29T18:03:34.316,-31890.42,-50483.159999999996,-86142.06,-50606.415,-16702.29,-21382.92,3918.105,-42757.064999999995,-4.858282422381996,2.1789346003915573,10.20576296590505,10.739334109303138,10.364982631882953,9.472908957622518,0.5913480299653878,-8.558006102688386,0.096984615,0.116759955,0.97033443,-1.0834599999999999,1.19028,-2.5179,72.0
1774821814.3165853,1.811981201171875e-05,2026-03-29T22:03:34.316,2026-03-29T18:03:34.316,-31902.975,-50500.485,-86157.18,-50618.384999999995,-16714.575,-21395.52,3907.2599999999998,-42760.619999999995,2.7217170563515882,0.07447202487375484,3.404915879494279,3.358963148446727,3.5048974373262993,1.1357550889009937,-4.706185281091241,3.1011301559279096,0.096984615,0.116759955,0.97033443,-1.0834599999999999,1.19028,-2.5179,72.0
1774821814.319866,0.0032806396484375,2026-03-29T22:03:34.319,2026-03-29T18:03:34.319,-31876.559999999998,-50499.54,-86174.775,-50643.18,-16743.105,-21418.785,3919.5,-42731.415,9.387902908740244,-2.0352186742008405,-5.117933592786905,-5.738056546922517,-5.1524665005962165,-8.037266216163843,-8.090807048456593,13.794460592357233,0.096984615,0.116759955,0.97033443,-1.0834599999999999,1.19028,-2.5179,72.0
1774821814.3198965,3.0517578125e-05,2026-03-29T22:03:34.319,2026-03-29T18:03:34.319,-31851.809999999998,-50497.11,-86179.545,-50649.57,-16755.255,-21437.774999999998,3915.72,-42698.61,11.789564760684728,-3.2191724636825243,-11.296176769219477,-12.213149377665395,-11.510653161406116,-13.727173321674947,-8.133425919235938,18.24084714623785,0.096984615,0.116759955,0.97033443,-1.0834599999999999,1.19028,-2.5179,72.0
1774821814.3255737,0.005677223205566406,2026-03-29T22:03:34.325,2026-03-29T18:03:34.325,-31853.114999999998,-50505.705,-86181.705,-50638.994999999995,-16739.64,-21427.11,3897.585,-42684.705,8.524555675571792,-2.974732027715017,-12.1427985392292,-12.930024638362635,-12.503282815171037,-13.130932361355718,-4.790916595887484,14.013441560628612,0.096984615,0.116759955,0.97033443,-1.0834599999999999,1.19028,-2.5179,72.0
1774821814.325671,9.72747802734375e-05,2026-03-29T22:03:34.325,2026-03-29T18:03:34.325,-31876.785,-50504.13,-86175.045,-50624.055,-16718.13,-21402.855,3907.7549999999997,-42715.17,0.927883269648099,-1.4376634521091975,-7.200317305058163,-7.477753651957051,-7.574823684653039,-6.339004573951603,0.550472658687614,2.8381356858551854,0.096984615,0.116759955,0.97033443,-1.0834599999999999,1.19028,-2.5179,72.0
1774821814.328622,0.0029511451721191406,2026-03-29T22:03:34.328,2026-03-29T18:03:34.328,-31897.98,-50497.064999999995,-86166.54,-50621.49,-16726.23,-21415.23,3919.41,-42768.585,-7.468163116930524,0.694773599959372,1.2151580196337965,1.6006999331105969,1.017525867786899,3.6246260349957797,5.645941420185103,-10.10872006246319,0.096984615,0.107604705,0.974179635,1.77016,0.763,0.5341,72.0
1774821814.328646,2.384185791015625e-05,2026-03-29T22:03:34.328,2026-03-29T18:03:34.328,-31934.475,-50487.93,-86120.73,-50573.205,-16675.695,-21356.37,3946.95,-42808.59,-12.588243980496042,2.483802180568507,9.105043638233425,9.999468734251776,9.24220692847935,12.15572905110325,8.34449466519448,-18.619726141525636,0.096984615,0.107604705,0.974179635,1.77016,0.763,0.5341,72.0
1774821814.3320594,0.0034134387969970703,2026-03-29T22:03:34.332,2026-03-29T18:03:34.332,-31903.289999999997,-50459.985,-86108.355,-50571.134999999995,-16668.989999999998,-21339.045,3958.1549999999997,-42793.965,-11.802816651791307,3.163722052239567,12.698168224030802,13.700592174725356,13.192738527403842,15.208585541347977,7.514236018784355,-18.452773227104487,0.096984615,0.107604705,0.974179635,1.77016,0.763,0.5341,72.0
1774821814.3320897,3.0279159545898438e-05,2026-03-29T22:03:34.332,2026-03-29T18:03:34.332,-31878.945,-50478.84,-86138.19,-50603.354999999996,-16701.03,-21378.239999999998,3915.4049999999997,-42754.455,-5.2758663324909865,2.467814412202405,10.262711618639665,10.904008034205702,10.950030082639513,11.222337218155955,3.5337488105334574,-9.448853334910636,0.096984615,0.107604705,0.974179635,1.77016,0.763,0.5341,72.0
1774821814.336214,0.00412440299987793,2026-03-29T22:03:34.336,2026-03-29T18:03:34.336,-31917.6,-50512.86,-86147.055,-50596.155,-16685.415,-21363.524999999998,3896.145,-42765.435,4.0190717596015535,0.7283345574936599,2.945187451196233,2.9058077260190447,3.516463704289308,1.9142413727728165,-1.8722261591313418,4.288277165736766,0.096984615,0.107604705,0.974179635,1.77016,0.763,0.5341,72.0
1774821814.3362348,2.0742416381835938e-05,2026-03-29T22:03:34.336,2026-03-29T18:03:34.336,-31913.774999999998,-50510.7,-86162.4,-50621.895,-16718.04,-21398.265,3893.22,-42769.08,11.66583241321058,-1.283809965246863,-5.772187394049449,-6.505520159169078,-5.634299421555186,-8.462061476251415,-6.385352626636118,16.282789632075726,0.096984615,0.107604705,0.974179635,1.77016,0.763,0.5341,72.0
1774821814.3424969,0.006262063980102539,2026-03-29T22:03:34.342,2026-03-29T18:03:34.342,-31904.594999999998,-50507.055,-86163.61499999999,-50627.07,-16725.239999999998,-21407.94,3907.71,-42760.53,13.922062562367815,-2.7015447694792964,-11.737861361856613,-12.852663752918152,-12.189237238950337,-15.0729598791986,-8.103502785408425,20.768043629027982,0.096984615,0.107604705,0.974179635,1.77016,0.763,0.5341,72.0
1774821814.342518,2.1219253540039062e-05,2026-03-29T22:03:34.342,2026-03-29T18:03:34.342,-31873.949999999997,-50479.695,-86157.405,-50629.59,-16731.855,-21416.445,3920.49,-42729.255,9.562650957584996,-2.9340508875658124,-12.119552107957375,-13.110324510664901,-13.0394331830406,-14.771231968081882,-6.360209742752817,15.479682759490835,0.096984615,0.107604705,0.974179635,1.77016,0.763,0.5341,72.0
1774821814.342551,3.2901763916015625e-05,2026-03-29T22:03:34.342,2026-03-29T18:03:34.342,-31856.579999999998,-50478.525,-86166.315,-50636.43,-16734.239999999998,-21411.09,3924.495,-42709.275,0.5362078963655585,-1.910373902645329,-6.757266160150198,-7.154609699749592,-7.762153469734137,-7.603423957603778,-1.9917901379157217,2.798133225220352,0.096984615,0.107604705,0.974179635,1.77016,0.763,0.5341,72.0
1774821814.3425596,8.58306884765625e-06,2026-03-29T22:03:34.342,2026-03-29T18:03:34.342,-31879.754999999997,-50487.345,-86156.45999999999,-50624.505,-16722.809999999998,-21396.239999999998,3924.6299999999997,-42729.93,-8.914757068423896,-0.09571170120379359,1.7696374378881352,2.1772032725781005,1.1687865605123464,3.1680379042128237,3.059954054438906,-11.336598297153806,0.096984615,0.107604705,0.974179635,1.77016,0.763,0.5341,72.0
1774821814.347991,0.005431413650512695,2026-03-29T22:03:34.347,2026-03-29T18:03:34.347,-31886.145,-50496.795,-86167.08,-50640.119999999995,-16742.88,-21419.145,3915.27,-42741.27,-14.269354456546594,1.7193770188652788,9.389711517457222,10.445954077997143,9.549746097775131,12.55964427146172,6.621938806829626,-20.23739166280642,0.09802221,0.09814428,0.97936761,7.4011,2.4110799999999997,3.052,72.0
1774821814.3480072,1.621246337890625e-05,2026-03-29T22:03:34.348,2026-03-29T18:03:34.348,-31889.475,-50505.299999999996,-86161.77,-50622.345,-16722.54,-21406.59,3906.27,-42731.909999999996,-12.912543646334552,2.761768154516224,12.495103429539142,13.73461764261441,13.43814411351713,16.189940205697834,7.241967842123636,-19.664833653452124,0.09802221,0.09814428,0.97936761,7.4011,2.4110799999999997,3.052,72.0
1774821814.351807,0.003799915313720703,2026-03-29T22:03:34.351,2026-03-29T18:03:34.351,-31902.344999999998,-50486.265,-86124.06,-50573.34,-16666.065,-21345.524999999998,3919.6349999999998,-42747.84,-5.422759582971379,2.6032604122374323,9.660985927797462,10.515207436926046,11.019263776128545,12.340671051094873,4.793156316921089,-9.863924436114095,0.09802221,0.09814428,0.97936761,7.4011,2.4110799999999997,3.052,72.0
1774821814.3518336,2.6464462280273438e-05,2026-03-29T22:03:34.351,2026-03-29T18:03:34.351,-31898.565,-50458.905,-86100.66,-50555.52,-16650.405,-21329.28,3922.56,-42771.104999999996,4.676497373120158,1.3355775107291128,2.3040050639889227,2.363303513854117,3.4593728331674654,2.7786557114686175,0.4725255186680337,4.544188487393134,0.09802221,0.09814428,0.97936761,7.4011,2.4110799999999997,3.052,72.0
1774821814.3542297,0.002396106719970703,2026-03-29T22:03:34.354,2026-03-29T18:03:34.354,-31871.204999999998,-50459.715,-86119.47,-50583.555,-16685.73,-21371.04,3920.7149999999997,-42740.955,12.594385734680191,-0.47780732247310975,-6.026975649187862,-6.816522398452325,-5.6592110676714915,-8.059014458098295,-3.783196064399072,16.766514071158955,0.09802221,0.09814428,0.97936761,7.4011,2.4110799999999997,3.052,72.0
1774821814.354253,2.3365020751953125e-05,2026-03-29T22:03:34.354,2026-03-29T18:03:34.354,-31877.055,-50476.365,-86134.86,-50594.174999999996,-16695.09,-21389.399999999998,3916.035,-42731.28,14.572308135803713,-2.049290874022874,-11.372404962942554,-12.672464965192479,-12.046833753917062,-15.1396911105869,-6.179325957270279,21.07615078375637,0.09802221,0.09814428,0.97936761,7.4011,2.4110799999999997,3.052,72.0
1774821814.359912,0.005658864974975586,2026-03-29T22:03:34.359,2026-03-29T18:03:34.359,-31889.699999999997,-50494.905,-86154.075,-50610.15,-16706.79,-21394.934999999998,3904.92,-42734.744999999995,9.689421140771382,-2.7071381998333606,-11.256447946563219,-12.48248266503717,-12.739260715338938,-15.193171872492373,-5.83463640713243,15.524684189675613,0.09802221,0.09814428,0.97936761,7.4011,2.4110799999999997,3.052,72.0
1774821814.359928,1.5974044799804688e-05,2026-03-29T22:03:34.359,2026-03-29T18:03:34.359,-31913.954999999998,-50511.06,-86161.68,-50612.49,-16706.43,-21382.695,3902.67,-42752.159999999996,0.29664686687191993,-2.1826715076249683,-5.8420878464467565,-6.428722933054671,-7.484505291539294,-8.238890910182553,-3.10355530451909,2.830957435868033,0.09802221,0.09814428,0.97936761,7.4011,2.4110799999999997,3.052,72.0
1774821814.3639467,0.0040187835693359375,2026-03-29T22:03:34.363,2026-03-29T18:03:34.363,-31933.934999999998,-50516.145,-86163.25499999999,-50616.36,-16714.035,-21387.375,3887.595,-42781.455,-9.128547245177591,-0.72225189118081,2.1960974155621136,2.5319006234072288,1.170584401383849,2.438784877494878,0.6682740328875334,-10.963345312832232,0.09802221,0.09814428,0.97936761,7.4011,2.4110799999999997,3.052,72.0
1774821814.3639731,2.6464462280273438e-05,2026-03-29T22:03:34.363,2026-03-29T18:03:34.363,-31916.565,-50506.74,-86155.92,-50608.845,-16708.95,-21388.23,3889.08,-42765.345,-14.143423458712693,1.0237785634248096,8.998052051062295,10.119716950948874,9.121248855060577,11.85105376431856,3.808177139942535,-19.401422894568046,0.09802221,0.09814428,0.97936761,7.4011,2.4110799999999997,3.052,72.0
1774821814.3680108,0.004037618637084961,2026-03-29T22:03:34.368,2026-03-29T18:03:34.368,-31905.0,-50501.88,-86156.91,-50616.225,-16719.57,-21405.375,3901.185,-42746.04,-12.462239800594892,2.2874315856366505,11.383607790626437,12.790698567576463,12.666096508572435,15.655857490097004,5.071602692080875,-18.668840007669022,0.10070775,0.10192845,0.9830297100000001,10.056339999999999,3.6013599999999997,3.6166199999999997,72.0
1774821814.3680313,2.0503997802734375e-05,2026-03-29T22:03:34.368,2026-03-29T18:03:34.368,-31900.77,-50502.24,-86159.295,-50620.5,-16726.41,-21417.03,3913.83,-42732.63,-5.012783194202167,2.52059537754223,8.350279533722533,9.404694035436899,10.245193527665451,12.182806137104684,4.140909860570858,-9.336929362351952,0.10070775,0.10192845,0.9830297100000001,10.056339999999999,3.6013599999999997,3.6166199999999997,72.0
1774821814.37209,0.004058837890625,2026-03-29T22:03:34.372,2026-03-29T18:03:34.372,-31886.414999999997,-50500.665,-86170.68,-50636.34,-16743.555,-21434.85,3918.7349999999997,-42713.685,4.568569215487199,1.6358997831225646,1.4928121529284606,1.7120135027443746,3.131811748850861,3.1775528211201935,1.6646412459401125,4.013875916742321,0.10070775,0.10192845,0.9830297100000001,10.056339999999999,3.6013599999999997,3.6166199999999997,72.0
1774821814.3721125,2.2411346435546875e-05,2026-03-29T22:03:34.372,2026-03-29T18:03:34.372,-31870.98,-50515.56,-86207.175,-50673.689999999995,-16774.29,-21454.515,3908.52,-42689.88,11.731741599075717,0.04366570207724883,-5.8303397789940945,-6.54953003503151,-5.231803287816147,-7.0717481684957715,-1.137102579474674,15.061905285554952,0.10070775,0.10192845,0.9830297100000001,10.056339999999999,3.6013599999999997,3.6166199999999997,72.0
1774821814.3788047,0.006692171096801758,2026-03-29T22:03:34.378,2026-03-29T18:03:34.378,-31866.614999999998,-50517.134999999995,-86206.455,-50669.055,-16765.2,-21439.079999999998,3916.17,-42681.104999999996,13.20353876600634,-1.5333243143068886,-10.150031454653927,-11.48233827219596,-10.910604354425093,-13.790561934372882,-3.076615148130295,18.77215422290252,0.10070775,0.10192845,0.9830297100000001,10.056339999999999,3.6013599999999997,3.6166199999999997,72.0
1774821814.3788345,2.9802322387695312e-05,2026-03-29T22:03:34.378,2026-03-29T18:03:34.378,-31902.254999999997,-50518.439999999995,-86181.75,-50641.064999999995,-16743.285,-21430.53,3901.5899999999997,-42707.7,8.505951152861622,-2.386176975283956,-9.541633710691812,-10.882743889440023,-11.34421949734946,-13.96474518522416,-3.5113046067714038,13.71851375086449,0.10070775,0.10192845,0.9830297100000001,10.056339999999999,3.6013599999999997,3.6166199999999997,72.0
1774821814.3811915,0.002357006072998047,2026-03-29T22:03:34.381,2026-03-29T18:03:34.381,-31933.89,-50489.145,-86125.59,-50578.965,-16684.425,-21384.855,3906.45,-42778.979999999996,0.08714007503074464,-2.1410519846785667,-4.4871566774673655,-5.23216793313255,-6.5121819710769,-7.710569593512503,-2.5390420767999173,2.616455495713316,0.10070775,0.10192845,0.9830297100000001,10.056339999999999,3.6013599999999997,3.6166199999999997,72.0
1774821814.3811991,7.62939453125e-06,2026-03-29T22:03:34.381,2026-03-29T18:03:34.381,-31908.239999999998,-50467.86,-86102.64,-50556.465,-16661.295,-21356.864999999998,3920.9849999999997,-42767.595,-7.955183006693075,-0.9285438264574247,2.4442394477310376,2.62350218790802,1.1386858865434992,1.8632308379462,-0.8265886788507143,-9.124021083318757,0.10070775,0.10192845,0.9830297100000001,10.056339999999999,3.6013599999999997,3.6166199999999997,72.0
1774821814.3841023,0.0029032230377197266,2026-03-29T22:03:34.384,2026-03-29T18:03:34.384,-31902.885,-50485.59,-86128.47,-50584.32,-16688.385,-21373.38,3919.455,-42741.314999999995,-11.892260313471628,0.6782083172233335,7.902848674493989,8.910857640548425,7.933605853878209,10.20156182673738,0.7952701399275649,-16.058898281076367,0.10070775,0.10192845,0.9830297100000001,10.056339999999999,3.6013599999999997,3.6166199999999997,72.0
1774821814.3841238,2.1457672119140625e-05,2026-03-29T22:03:34.384,2026-03-29T18:03:34.384,-31918.545,-50495.085,-86131.125,-50580.27,-16675.695,-21349.44,3932.1,-42747.705,-10.12003189386693,1.9304412933258432,9.387318192122324,10.755299870213987,10.74816558609568,13.487898468274523,1.738610946321221,-15.265218320455936,0.10070775,0.10192845,0.9830297100000001,10.056339999999999,3.6013599999999997,3.6166199999999997,72.0
1774821814.3880293,0.0039055347442626953,2026-03-29T22:03:34.388,2026-03-29T18:03:34.388,-31912.02,-50500.755,-86158.17,-50607.18,-16696.8,-21366.045,3932.415,-42746.939999999995,-3.8130582364245007,2.25326619036582,6.399130431696664,7.5066518474581985,8.4592098409711,10.412209385662178,1.8659074656560235,-7.577645226738455,0.10278294,0.11498994,0.9824803950000001,8.255659999999999,3.3571999999999997,3.52506,72.0
1774821814.3880737,4.4345855712890625e-05,2026-03-29T22:03:34.388,2026-03-29T18:03:34.388,-31892.895,-50498.145,-86161.77,-50611.32,-16702.829999999998,-21383.82,3928.77,-42724.395,3.790242464218458,1.514321048969315,0.5858473740385696,0.9473417911322213,2.3878961962913112,2.6931939096217827,1.4274784575292299,3.018546263193157,0.10278294,0.11498994,0.9824803950000001,8.255659999999999,3.3571999999999997,3.52506,72.0
1774821814.3928053,0.004731655120849609,2026-03-29T22:03:34.392,2026-03-29T18:03:34.392,-31859.28,-50469.39,-86133.465,-50589.945,-16691.13,-21386.024999999998,3919.545,-42697.979999999996,9.056589132832979,0.08373144935180755,-5.152299774200834,-5.67067675750728,-4.437299319154369,-5.8537848299457975,0.8117565066108511,11.451331072870248,0.10278294,0.11498994,0.9824803950000001,8.255659999999999,3.3571999999999997,3.52506,72.0
1774821814.3928273,2.193450927734375e-05,2026-03-29T22:03:34.392,2026-03-29T18:03:34.392,-31848.57,-50475.915,-86150.11499999999,-50607.945,-16707.149999999998,-21394.305,3908.52,-42676.965,9.718449121271226,-1.3449455125027292,-8.11397899224649,-9.245940725377624,-8.795988061808107,-11.207818486627277,0.28317703345003986,14.01454808210982,0.10278294,0.11498994,0.9824803950000001,8.255659999999999,3.3571999999999997,3.52506,72.0
1774821814.39698,0.004152774810791016,2026-03-29T22:03:34.396,2026-03-29T18:03:34.396,-31870.98,-50494.905,-86181.66,-50652.72,-16762.635,-21452.985,3876.21,-42692.985,5.862368747554683,-2.0887860779755014,-7.077950694978662,-8.294142841930235,-8.809437159814392,-11.052850256363104,-0.13329229679311133,10.01240093519732,0.10278294,0.11498994,0.9824803950000001,8.255659999999999,3.3571999999999997,3.52506,72.0
1774821814.397011,3.0994415283203125e-05,2026-03-29T22:03:34.397,2026-03-29T18:03:34.397,-31906.125,-50501.295,-86168.34,-50624.82,-16721.64,-21403.89,3908.16,-42736.77,-0.2915261456653207,-1.8044357990659101,-2.801844815839224,-3.5618496808438262,-4.7556615834912,-5.791192982856115,-0.5691401918517531,1.85907842080618,0.10278294,0.11498994,0.9824803950000001,8.255659999999999,3.3571999999999997,3.52506,72.0
1774821814.4000287,0.0030176639556884766,2026-03-29T22:03:34.400,2026-03-29T18:03:34.400,-31928.445,-50506.38,-86142.33,-50588.595,-16685.505,-21370.094999999998,3924.27,-42748.38,-5.632445036357881,-0.652116673811931,2.4626350941163357,2.46520158500033,1.1902999370339145,1.78916806218256,-1.1103463616805156,-6.309896795268944,0.10278294,0.11498994,0.9824803950000001,8.255659999999999,3.3571999999999997,3.52506,72.0
1774821814.400056,2.7179718017578125e-05,2026-03-29T22:03:34.400,2026-03-29T18:03:34.400,-31943.34,-50518.305,-86149.17,-50595.479999999996,-16694.64,-21376.079999999998,3904.47,-42750.135,-7.7412909604809155,0.786407538086755,6.148610731196242,6.861373915141696,6.109793221563439,7.973882528722434,-1.6325176329697875,-10.739126715705165,0.10278294,0.11498994,0.9824803950000001,8.255659999999999,3.3571999999999997,3.52506,72.0
1774821814.4047413,0.004685401916503906,2026-03-29T22:03:34.404,2026-03-29T18:03:34.404,-31908.285,-50503.59,-86160.42,-50614.784999999996,-16715.07,-21392.954999999998,3883.14,-42735.33,-6.003454777444895,1.7968805253696738,6.632684320531764,7.691652788345844,7.781413875452096,9.950936243396487,-1.8051900204008167,-9.79796665692775,0.10278294,0.11498994,0.9824803950000001,8.255659999999999,3.3571999999999997,3.52506,72.0
1774821814.4047585,1.71661376953125e-05,2026-03-29T22:03:34.404,2026-03-29T18:03:34.404,-31885.92,-50496.57,-86165.81999999999,-50621.895,-16723.079999999998,-21410.864999999998,3879.99,-42728.22,-1.7323984278660913,1.8866936264128107,3.953054296122242,4.869471457183785,5.69445121821729,7.1043641231495664,-1.2867295066061628,-4.54984313557354,0.10278294,0.11498994,0.9824803950000001,8.255659999999999,3.3571999999999997,3.52506,72.0
1774821814.4081976,0.003439188003540039,2026-03-29T22:03:34.408,2026-03-29T18:03:34.408,-31914.405,-50501.384999999995,-86160.33,-50620.545,-16723.665,-21407.265,3909.4649999999997,-42735.33,2.680079979791037,1.0283264331223632,-0.3320956422027011,0.05858911970729889,1.1676053803398356,1.1705803940576895,4.953900994318482e-05,2.0335737352474124,0.10229466,0.123962085,0.981015555,6.6381,1.7549,3.25038,72.0
1774821814.408224,2.6464462280273438e-05,2026-03-29T22:03:34.408,2026-03-29T18:03:34.408,-31898.789999999997,-50488.74,-86131.98,-50571.99,-16656.93,-21330.855,3943.89,-42713.64,5.076725524287326,-0.33005229114104034,-4.021407999585357,-4.270877957454175,-3.428921441723782,-4.759169984167944,1.6927270099582183,6.709871033601987,0.10229466,0.123962085,0.981015555,6.6381,1.7549,3.25038,72.0
1774821814.413564,0.005339860916137695,2026-03-29T22:03:34.413,2026-03-29T18:03:34.413,-31918.364999999998,-50506.335,-86113.485,-50523.345,-16586.864999999998,-21253.86,3962.8799999999997,-42718.68,4.599947343106782,-1.4930585118723292,-5.400028782585309,-6.110308550800785,-5.907660519922822,-7.83759180614696,3.0583497569991054,7.568952871701618,0.10229466,0.123962085,0.981015555,6.6381,1.7549,3.25038,72.0
1774821814.413583,1.9073486328125e-05,2026-03-29T22:03:34.413,2026-03-29T18:03:34.413,-31892.445,-50494.229999999996,-86172.39,-50647.59,-16766.64,-21465.675,3897.045,-42718.994999999995,1.9788938293149785,-1.8712082559667118,-4.043017591297919,-4.853869454612393,-5.314439951470777,-6.838523376186174,3.317700571417216,4.806490709547122,0.10229466,0.123962085,0.981015555,6.6381,1.7549,3.25038,72.0
1774821814.4161224,0.002539396286010742,2026-03-29T22:03:34.416,2026-03-29T18:03:34.416,-31895.64,-50492.88,-86163.75,-50631.795,-16744.41,-21434.805,3909.42,-42720.435,-1.0452989407259243,-1.2800749324277327,-0.9131630428537105,-1.4678237547329094,-2.286343425726638,-2.6416008519587453,2.078576663701963,0.3591128688114892,0.10229466,0.123962085,0.981015555,6.6381,1.7549,3.25038,72.0
1774821814.4161396,1.71661376953125e-05,2026-03-29T22:03:34.416,2026-03-29T18:03:34.416,-31898.925,-50494.994999999995,-86158.44,-50621.04,-16724.88,-21403.17,3917.0249999999996,-42721.515,-2.7770612860636406,-0.032945093197401014,2.245877824362189,2.139818792495481,1.4122553873748884,2.365451509231978,-0.35836119443136094,-3.3005427607344906,0.10229466,0.123962085,0.981015555,6.6381,1.7549,3.25038,72.0
1774821814.4201396,0.003999948501586914,2026-03-29T22:03:34.420,2026-03-29T18:03:34.420,-31894.199999999997,-50490.27,-86153.895,-50615.505,-16716.015,-21395.34,3914.2799999999997,-42714.9,-2.4952036820639707,1.221178937742314,3.8621108331010094,4.1697321898202055,3.8812474025347425,5.602048024905337,-3.0206478650795012,-4.504086718853959,0.10229466,0.123962085,0.981015555,6.6381,1.7549,3.25038,72.0
1774821814.4201648,2.5272369384765625e-05,2026-03-29T22:03:34.420,2026-03-29T18:03:34.420,-31892.94,-50485.32,-86142.78,-50598.854999999996,-16698.915,-21381.39,3918.1949999999997,-42711.39,-0.7521177845664949,1.8321080940809857,3.320521617615201,3.8330386444748323,4.059921870487284,5.618093100112093,-4.654674403412884,-3.1488755406937776,0.10229466,0.123962085,0.981015555,6.6381,1.7549,3.25038,72.0
1774821814.4241147,0.003949880599975586,2026-03-29T22:03:34.424,2026-03-29T18:03:34.424,-31892.625,-50488.515,-86145.525,-50600.295,-16699.815,-21381.57,3918.825,-42708.78,1.0796411877722394,1.4840385756160557,1.1875486556662727,1.6506376636719362,2.18546458500011,2.7487261901017006,-4.328159646948457,-0.5333350956588588,0.10229466,0.123962085,0.981015555,6.6381,1.7549,3.25038,72.0
1774821814.4241452,3.0517578125e-05,2026-03-29T22:03:34.424,2026-03-29T18:03:34.424,-31896.539999999997,-50493.735,-86157.36,-50617.845,-16723.035,-21408.3,3907.845,-42714.494999999995,1.7088014161157117,0.35897171896266494,-1.201803185944221,-0.9595800039727121,-0.46500404588897254,-1.197955764926322,-1.9500528984845293,1.5565005851884324,0.10229466,0.123962085,0.981015555,6.6381,1.7549,3.25038,72.0
1774821814.4282813,0.004136085510253906,2026-03-29T22:03:34.428,2026-03-29T18:03:34.428,-31897.215,-50493.195,-86156.775,-50619.195,-16730.19,-21426.614999999998,3893.3999999999996,-42717.645,0.7299372458004596,-0.957265374812164,-2.530715131150691,-2.5351531511486494,-2.3602319597592785,-4.002735455772796,1.57741497241249,1.9383321089106527,0.10021947,0.124572435,0.98229729,9.644319999999999,1.4039199999999998,4.16598,72.0
1774821814.4282954,1.4066696166992188e-05,2026-03-29T22:03:34.428,2026-03-29T18:03:34.428,-31896.18,-50493.24,-86152.68,-50609.924999999996,-16714.98,-21411.495,3896.145,-42715.395,-1.139524407610451,-1.7786830683925927,-2.214588170441047,-2.371473591387921,-2.571276701554707,-4.24814224212312,4.696007195556504,0.6740230809554392,0.10021947,0.124572435,0.98229729,9.644319999999999,1.4039199999999998,4.16598,72.0
1774821814.4327004,0.004405021667480469,2026-03-29T22:03:34.432,2026-03-29T18:03:34.432,-31883.219999999998,-50494.049999999996,-86153.44499999999,-50609.924999999996,-16713.855,-21405.78,3906.585,-42697.215,-2.5209592346224228,-1.675530931199954,-0.6598239635695828,-0.8404593002929942,-1.229706661616988,-2.031429146487657,5.895186482739283,-1.077892931022951,0.10021947,0.124572435,0.98229729,9.644319999999999,1.4039199999999998,4.16598,72.0
1774821814.4327216,2.1219253540039062e-05,2026-03-29T22:03:34.432,2026-03-29T18:03:34.432,-31875.57,-50495.939999999995,-86149.08,-50597.369999999995,-16694.954999999998,-21376.125,3928.23,-42679.575,-2.256406213475968,-0.6982281084986169,1.0480690686132577,0.9204872412438123,0.6400471496840566,1.1804460981481035,4.457717012308378,-1.8691398039660625,0.10021947,0.124572435,0.98229729,9.644319999999999,1.4039199999999998,4.16598,72.0
1774821814.436782,0.004060268402099609,2026-03-29T22:03:34.436,2026-03-29T18:03:34.436,-31865.039999999997,-50483.34,-86143.905,-50589.72,-16682.445,-21359.655,3932.5499999999997,-42667.74,-0.18440705101913143,0.6481736053329089,1.8233971711513883,1.7395981156091231,1.7865897562337696,3.439051243999745,0.8735130105554699,-0.9244889354377868,0.10021947,0.124572435,0.98229729,9.644319999999999,1.4039199999999998,4.16598,72.0
1774821814.4368043,2.2411346435546875e-05,2026-03-29T22:03:34.436,2026-03-29T18:03:34.436,-31886.864999999998,-50483.564999999995,-86133.33,-50581.845,-16681.14,-21370.95,3888.1349999999998,-42696.854999999996,2.662418808873022,1.6662284352752963,1.2263120608163884,1.1249853356937447,1.4954803319169319,3.434150781932433,-3.3115678343829758,1.3216451463401397,0.10021947,0.124572435,0.98229729,9.644319999999999,1.4039199999999998,4.16598,72.0
1774821814.4398873,0.0030829906463623047,2026-03-29T22:03:34.439,2026-03-29T18:03:34.439,-31897.71,-50488.38,-86125.905,-50569.875,-16667.64,-21358.485,3905.685,-42707.564999999995,4.583394020251193,1.8285702844899256,-0.29331471985028446,-0.4521952654210726,0.008096351533760237,1.2219275357922312,-6.175454599361119,3.441297689251358,0.10021947,0.124572435,0.98229729,9.644319999999999,1.4039199999999998,4.16598,72.0
1774821814.4398975,1.0251998901367188e-05,2026-03-29T22:03:34.439,2026-03-29T18:03:34.439,-31878.405,-50497.29,-86176.17,-50641.244999999995,-16751.34,-21446.954999999998,3888.1349999999998,-42678.854999999996,4.1865807689043315,1.051506683789854,-1.6872772087013403,-1.8643856091874187,-1.6415469022027376,-1.8328332932595452,-6.323354380620537,3.8668506881596354,0.10021947,0.124572435,0.98229729,9.644319999999999,1.4039199999999998,4.16598,72.0
1774821814.4435527,0.0036551952362060547,2026-03-29T22:03:34.443,2026-03-29T18:03:34.443,-31895.28,-50510.97,-86188.545,-50652.494999999995,-16761.195,-21453.66,3870.99,-42689.385,1.2688917132881528,-0.2629552589745462,-1.960771455399031,-2.0398918974058806,-2.2717841871458724,-3.8563459445831447,-3.5812191081947806,1.8904492089467737,0.10021947,0.124572435,0.98229729,9.644319999999999,1.4039199999999998,4.16598,72.0
1774821814.4435802,2.7418136596679688e-05,2026-03-29T22:03:34.443,2026-03-29T18:03:34.443,-31907.789999999997,-50489.46,-86129.055,-50572.395,-16668.09,-21354.93,3908.6549999999997,-42722.415,-2.9206421953432624,-1.43793465303296,-0.8018593216932592,-0.6591730893814325,-1.3008113516394244,-3.553784501371829,0.8714674871896042,-1.7835743225343457,0.10021947,0.124572435,0.98229729,9.644319999999999,1.4039199999999998,4.16598,72.0
1774821814.4481287,0.004548549652099609,2026-03-29T22:03:34.448,2026-03-29T18:03:34.448,-31911.344999999998,-50507.865,-86163.48,-50630.67,-16747.829999999998,-21452.579999999998,3886.1099999999997,-42717.78,-6.231634308468935,-1.8740901130811676,1.1850167802193783,1.5840223999440803,0.8466053517938066,-0.9744796789460367,5.017389915223198,-5.28919941082911,0.10192845,0.12243621,0.985776285,13.993419999999999,0.763,6.5770599999999995,72.0
1774821814.4481504,2.1696090698242188e-05,2026-03-29T22:03:34.448,2026-03-29T18:03:34.448,-31904.954999999998,-50507.369999999995,-86173.37999999999,-50644.89,-16765.559999999998,-21471.255,3875.805,-42711.345,-6.725979654150268,-1.3586123175526228,2.792870418858999,3.332090455743728,2.9276597072041,2.4784521946285714,6.936354152273613,-6.561464695126352,0.10192845,0.12243621,0.985776285,13.993419999999999,0.763,6.5770599999999995,72.0
1774821814.452546,0.004395484924316406,2026-03-29T22:03:34.452,2026-03-29T18:03:34.452,-31879.664999999997,-50489.955,-86154.03,-50611.365,-16720.695,-21410.91,3933.585,-42687.585,-3.7735180771514765,-0.16976769963502555,2.911146234305365,3.347424379261388,3.5806743376552124,4.810100556910837,5.716732981592037,-4.508852819532694,0.10192845,0.12243621,0.985776285,13.993419999999999,0.763,6.5770599999999995,72.0
1774821814.4525764,3.0517578125e-05,2026-03-29T22:03:34.452,2026-03-29T18:03:34.452,-31917.239999999998,-50518.439999999995,-86160.465,-50602.365,-16696.98,-21366.405,3942.225,-42694.965,1.4761546823270955,1.0752633828163525,1.217462691192307,1.2917134663746737,2.149462143688716,4.5550270059628515,1.9009328220206863,0.2545883488873395,0.10192845,0.12243621,0.985776285,13.993419999999999,0.763,6.5770599999999995,72.0
1774821814.4577894,0.005213022232055664,2026-03-29T22:03:34.457,2026-03-29T18:03:34.457,-31900.905,-50503.68,-86174.145,-50637.015,-16744.905,-21428.64,3907.845,-42698.564999999995,6.546460215058389,1.7459551664711441,-1.5448870603821712,-1.9604327862838289,-0.8441077708030893,1.6392150046368268,-2.7582058509818315,5.5601480770256595,0.10192845,0.12243621,0.985776285,13.993419999999999,0.763,6.5770599999999995,72.0
1774821814.457805,1.5497207641601562e-05,2026-03-29T22:03:34.457,2026-03-29T18:03:34.457,-31863.824999999997,-50474.52,-86145.795,-50607.405,-16718.805,-21420.809999999998,3895.47,-42681.51,8.82925168336909,1.5239142716509066,-3.8942457205700736,-4.69412499898248,-3.8797940191842506,-2.5053088212683448,-6.119735734590019,8.700853180405073,0.10192845,0.12243621,0.985776285,13.993419999999999,0.763,6.5770599999999995,72.0
1774821814.4616835,0.0038785934448242188,2026-03-29T22:03:34.461,2026-03-29T18:03:34.461,-31871.789999999997,-50484.825,-86133.78,-50581.17,-16682.489999999998,-21371.265,3914.055,-42673.905,6.933691325723964,0.5575827323402234,-4.398262819962856,-5.254387958778609,-5.215679765272532,-5.660788570362247,-6.662183649531758,7.823516949591123,0.10192845,0.12243621,0.985776285,13.993419999999999,0.763,6.5770599999999995,72.0
1774821814.4617057,2.2172927856445312e-05,2026-03-29T22:03:34.461,2026-03-29T18:03:34.461,-31907.114999999998,-50496.21,-86125.095,-50561.28,-16654.274999999998,-21331.755,3939.75,-42692.534999999996,1.4879145049854523,-0.6310560384922956,-2.5062366387162966,-3.0032864875250627,-3.86354841850823,-6.010282658676679,-4.191414040132794,2.976414875261846,0.10192845,0.12243621,0.985776285,13.993419999999999,0.763,6.5770599999999995,72.0
1774821814.4645824,0.002876758575439453,2026-03-29T22:03:34.464,2026-03-29T18:03:34.464,-31930.11,-50511.78,-86162.58,-50613.345,-16717.364999999998,-21397.905,3923.055,-42716.79,-5.053413757197445,-1.431864999994064,1.0427657581821321,1.2034113086050808,-0.2262319401381554,-3.156394136585386,0.08948439245666141,-3.763610257600015,0.10192845,0.12243621,0.985776285,13.993419999999999,0.763,6.5770599999999995,72.0
1774821814.4646053,2.288818359375e-05,2026-03-29T22:03:34.464,2026-03-29T18:03:34.464,-31953.059999999998,-50522.49,-86157.045,-50599.215,-16695.18,-21367.079999999998,3930.48,-42734.52,-9.544937477569595,-1.467273339534722,4.499576979462977,5.328572533265377,3.986602822445334,1.5889836295416597,4.1741436441758655,-9.205996884541221,0.10192845,0.12243621,0.985776285,13.993419999999999,0.763,6.5770599999999995,72.0
1774821814.4696388,0.0050334930419921875,2026-03-29T22:03:34.469,2026-03-29T18:03:34.469,-31925.655,-50503.86,-86142.33,-50588.865,-16689.059999999998,-21368.114999999998,3931.1549999999997,-42710.265,-9.69028905574209,-0.7768385118704977,5.971935738077481,7.148853969869574,6.573061223327026,5.82681501939928,6.213933143495304,-10.587473298335185,0.1037595,0.12524382,0.984189375,19.12078,-2.73154,4.76112,72.0
1774821814.469665,2.6226043701171875e-05,2026-03-29T22:03:34.469,2026-03-29T18:03:34.469,-31920.84,-50502.33,-86144.58,-50588.865,-16688.52,-21373.695,3927.825,-42705.09,-5.219982303472913,0.2277970993026319,4.447137893858647,5.442974728219396,5.991249482456468,7.301826952297892,5.376458063325775,-6.981568183033305,0.1037595,0.12524382,0.984189375,19.12078,-2.73154,4.76112,72.0
1774821814.4725013,0.0028362274169921875,2026-03-29T22:03:34.472,2026-03-29T18:03:34.472,-31921.559999999998,-50510.7,-86153.58,-50594.49,-16687.934999999998,-21370.14,3928.0499999999997,-42704.955,1.898290461613423,1.004118365866,0.42308334550706767,0.7422997777882417,2.246036406510785,5.103945729717742,2.19266079631693,0.14467263517299264,0.1037595,0.12524382,0.984189375,19.12078,-2.73154,4.76112,72.0
1774821814.4725225,2.1219253540039062e-05,2026-03-29T22:03:34.472,2026-03-29T18:03:34.472,-31907.385,-50509.485,-86160.69,-50606.595,-16699.274999999998,-21380.04,3903.5699999999997,-42690.645,8.35065594191309,1.1771038076768632,-4.22451279769481,-4.7951378233708,-2.987505015612476,0.20023696826196366,-1.7562563111806082,7.541767946085029,0.1037595,0.12524382,0.984189375,19.12078,-2.73154,4.76112,72.0
1774821814.4762275,0.0037050247192382812,2026-03-29T22:03:34.476,2026-03-29T18:03:34.476,-31895.1,-50502.6,-86174.415,-50639.67,-16753.68,-21450.915,3861.4049999999997,-42685.92,11.053558092741417,0.7291003299617566,-7.12381878240016,-8.385475315258109,-7.121769474080764,-5.003718426155062,-4.634847450186277,11.69377229892989,0.1037595,0.12524382,0.984189375,19.12078,-2.73154,4.76112,72.0
1774821814.4762447,1.71661376953125e-05,2026-03-29T22:03:34.476,2026-03-29T18:03:34.476,-31892.175,-50486.04,-86140.395,-50597.369999999995,-16711.155,-21411.585,3874.6349999999998,-42683.04,8.650431246493008,-0.01875857810502153,-6.6198321651848095,-8.026101870323785,-7.948909655649054,-7.868157841890121,-5.226975050067541,10.51610553640431,0.1037595,0.12524382,0.984189375,19.12078,-2.73154,4.76112,72.0
1774821814.48019,0.003945350646972656,2026-03-29T22:03:34.480,2026-03-29T18:03:34.480,-31894.559999999998,-50482.17,-86124.555,-50572.259999999995,-16677.54,-21373.29,3914.145,-42680.295,2.1920810235689157,-0.613669526543611,-2.6973882457954392,-3.5947991260851926,-4.817073970058584,-6.876618758697799,-3.461807603787607,4.404049496121072,0.1037595,0.12524382,0.984189375,19.12078,-2.73154,4.76112,72.0
1774821814.4802067,1.6689300537109375e-05,2026-03-29T22:03:34.480,2026-03-29T18:03:34.480,-31896.09,-50483.655,-86131.75499999999,-50584.77,-16693.965,-21391.695,3941.145,-42685.2,-5.340111755658723,-0.7409052271049841,2.8920522818435885,2.9551394974130183,0.9344927042444402,-2.441565868178284,-0.3585174035480112,-3.8957743323429757,0.1037595,0.12524382,0.984189375,19.12078,-2.73154,4.76112,72.0
1774821814.4842787,0.004071950912475586,2026-03-29T22:03:34.484,2026-03-29T18:03:34.484,-31903.289999999997,-50497.424999999996,-86143.905,-50591.97,-16694.145,-21386.7,3912.5699999999997,-42684.21,-10.442884575383276,-0.3980166958418436,7.416898451760854,8.461440004834003,6.54956570626817,3.2706007686420215,2.545740189579751,-10.54961250635666,0.1037595,0.12524382,0.984189375,19.12078,-2.73154,4.76112,72.0
1774821814.484308,2.9325485229492188e-05,2026-03-29T22:03:34.484,2026-03-29T18:03:34.484,-31898.61,-50499.09,-86152.68,-50607.765,-16716.825,-21409.739999999998,3904.245,-42675.57,-10.751052894632911,0.12548440217481377,8.510099771269267,10.094159399123711,9.191643026295186,7.419301515809843,3.969188512273973,-12.44025135489423,0.1037595,0.12524382,0.984189375,19.12078,-2.73154,4.76112,72.0
1774821814.4880416,0.0037336349487304688,2026-03-29T22:03:34.488,2026-03-29T18:03:34.488,-31893.614999999998,-50493.104999999996,-86135.94,-50582.79,-16685.415,-21371.219999999998,3931.3799999999997,-42667.244999999995,-6.148436625751699,0.4458011194875686,5.40585769320339,6.814190524569162,7.387982533621875,7.9274258370417305,3.4658414206056856,-8.646917927268154,0.11059542,0.12866178,0.98412834,20.79938,-3.54032,7.614739999999999,72.0
1774821814.4880552,1.3589859008789062e-05,2026-03-29T22:03:34.488,2026-03-29T18:03:34.488,-31887.765,-50486.22,-86138.415,-50583.6,-16678.89,-21354.434999999998,3939.2999999999997,-42662.475,1.1982541570471106,0.3370596625254776,-0.5769925653769588,-0.004232406890059452,1.8413564310853578,4.539387301107963,1.543016787315405,-0.890751352778378,0.11059542,0.12866178,0.98412834,20.79938,-3.54032,7.614739999999999,72.0
1774821814.4922633,0.004208087921142578,2026-03-29T22:03:34.492,2026-03-29T18:03:34.492,-31866.12,-50478.479999999996,-86147.81999999999,-50600.07,-16696.44,-21375.765,3934.935,-42647.715,7.884718695285006,-0.11802194299745507,-6.593110832059157,-7.146292395721833,-4.833826950833803,-1.0463993410834918,-0.7007521368006849,7.267675330576395,0.11059542,0.12866178,0.98412834,20.79938,-3.54032,7.614739999999999,72.0
1774821814.4922867,2.3365020751953125e-05,2026-03-29T22:03:34.492,2026-03-29T18:03:34.492,-31867.649999999998,-50499.314999999995,-86174.45999999999,-50630.445,-16736.579999999998,-21428.415,3901.95,-42637.994999999995,10.877526015781015,-0.5752868951860703,-9.635442314623416,-11.087679478420924,-9.357733548259935,-6.040688842359262,-2.1893962004668905,12.09402463649222,0.11059542,0.12866178,0.98412834,20.79938,-3.54032,7.614739999999999,72.0
1774821814.49634,0.004053354263305664,2026-03-29T22:03:34.496,2026-03-29T18:03:34.496,-31886.64,-50518.89,-86177.655,-50622.345,-16723.8,-21405.735,3911.04,-42633.18,8.911584133973832,-0.6510371116918453,-8.046761947107882,-9.747820394747935,-9.413162693786324,-7.978831284964368,-2.396701922213685,11.415519113903546,0.11059542,0.12866178,0.98412834,20.79938,-3.54032,7.614739999999999,72.0
1774821814.4963684,2.8371810913085938e-05,2026-03-29T22:03:34.496,2026-03-29T18:03:34.496,-31888.53,-50523.165,-86194.62,-50652.63,-16763.13,-21448.395,3895.1549999999997,-42630.255,3.0233496199911944,-0.18610937075935238,-2.4144605704781914,-3.5869429947428992,-4.840096793092689,-5.961206352398601,-1.523910819149922,5.6081299408726375,0.11059542,0.12866178,0.98412834,20.79938,-3.54032,7.614739999999999,72.0
1774821814.500327,0.003958702087402344,2026-03-29T22:03:34.500,2026-03-29T18:03:34.500,-31882.635,-50503.185,-86161.995,-50612.04,-16717.454999999998,-21404.745,3908.0249999999996,-42642.765,-4.003044032744028,0.6140979678496994,4.631244677884294,4.530766181114915,2.2219819074778004,-1.0847221354065288,-0.2722146824281025,-2.616077495822893,0.11059542,0.12866178,0.98412834,20.79938,-3.54032,7.614739999999999,72.0
1774821814.5003614,3.4332275390625e-05,2026-03-29T22:03:34.500,2026-03-29T18:03:34.500,-31910.94,-50497.38,-86125.095,-50561.009999999995,-16659.27,-21349.62,3931.83,-42681.33,-8.977531556240555,1.2639597950325887,9.65584119271356,10.681172816252538,8.344470020003195,4.147498596378715,0.6224425967758686,-9.499351384841507,0.11059542,0.12866178,0.98412834,20.79938,-3.54032,7.614739999999999,72.0
1774821814.5042129,0.0038514137268066406,2026-03-29T22:03:34.504,2026-03-29T18:03:34.504,-31925.114999999998,-50500.799999999996,-86138.45999999999,-50583.6,-16686.315,-21378.42,3912.0299999999997,-42682.814999999995,-9.775463555598291,1.2752450223372551,10.107708743177447,11.794748198629966,10.490850844885253,7.122607896432235,0.8089818414719172,-11.981231752116203,0.11059542,0.12866178,0.98412834,20.79938,-3.54032,7.614739999999999,72.0
1774821814.5042336,2.0742416381835938e-05,2026-03-29T22:03:34.504,2026-03-29T18:03:34.504,-31918.725,-50488.695,-86127.56999999999,-50576.445,-16684.47,-21381.48,3882.7799999999997,-42689.97,-6.249455888664696,0.4747530405939677,5.619152198844634,7.199516219944601,7.536654689811673,6.444622924395659,0.46066618039674617,-9.073867831584446,0.11059542,0.12866178,0.98412834,20.79938,-3.54032,7.614739999999999,72.0
1774821814.5094874,0.005253791809082031,2026-03-29T22:03:34.509,2026-03-29T18:03:34.509,-31925.34,-50496.345,-86119.425,-50555.475,-16654.454999999998,-21345.255,3882.96,-42696.045,-0.18928421330644005,-0.8307043761083162,-1.7444366835171332,-0.9879601689806781,0.8612678001606178,2.6089362770746973,0.07795865138859087,-2.2456782033672393,0.1135251,0.1281735,0.9863256,24.35496,-3.815,7.553699999999999,72.0
1774821814.5095198,3.24249267578125e-05,2026-03-29T22:03:34.509,2026-03-29T18:03:34.509,-31895.504999999997,-50496.119999999995,-86149.08,-50604.119999999995,-16716.015,-21406.905,3895.785,-42666.03,5.597027037628602,-1.9617473548372257,-8.442180538813044,-8.845327975110795,-6.300510320149841,-2.309357485881091,0.09982195615504198,5.328901870086864,0.1135251,0.1281735,0.9863256,24.35496,-3.815,7.553699999999999,72.0
1774821814.51257,0.003050088882446289,2026-03-29T22:03:34.512,2026-03-29T18:03:34.512,-31885.515,-50498.28,-86160.42,-50615.325,-16726.184999999998,-21412.62,3928.77,-42645.465,8.604246325125096,-2.2152309075221304,-11.174468232436588,-12.540591194766694,-10.439747342537814,-5.770516215182368,0.5775881686547981,10.265950300528445,0.1135251,0.1281735,0.9863256,24.35496,-3.815,7.553699999999999,72.0
1774821814.5125928,2.288818359375e-05,2026-03-29T22:03:34.512,2026-03-29T18:03:34.512,-31912.739999999998,-50502.42,-86149.935,-50598.494999999995,-16703.28,-21387.195,3956.7599999999998,-42654.42,7.7224193440180935,-1.2767976254547027,-8.519741876652168,-10.216850704037775,-9.50772656262084,-6.092040333982546,1.121187643465225,10.499673634833423,0.1135251,0.1281735,0.9863256,24.35496,-3.815,7.553699999999999,72.0
1774821814.5179963,0.0054035186767578125,2026-03-29T22:03:34.517,2026-03-29T18:03:34.517,-31914.675,-50503.5,-86155.83,-50606.595,-16711.965,-21399.39,3941.685,-42653.295,3.6214230266583316,0.5369569878656208,-1.6740784444577712,-2.93130629544083,-3.9390794513676552,-3.285366601241723,1.157444734074868,6.144632519238029,0.1135251,0.1281735,0.9863256,24.35496,-3.815,7.553699999999999,72.0
1774821814.5180125,1.621246337890625e-05,2026-03-29T22:03:34.518,2026-03-29T18:03:34.518,-31917.329999999998,-50508.945,-86156.64,-50607.99,-16716.195,-21407.13,3910.095,-42654.869999999995,-1.6890746406735182,2.367157624709361,6.091225143170801,5.82873832241572,3.5510829191099624,1.016310388705,0.344340603802323,-0.6646857181881847,0.1135251,0.1281735,0.9863256,24.35496,-3.815,7.553699999999999,72.0
1774821814.5205686,0.0025560855865478516,2026-03-29T22:03:34.520,2026-03-29T18:03:34.520,-31915.934999999998,-50510.25,-86160.23999999999,-50618.159999999996,-16732.98,-21426.795,3892.5899999999997,-42652.215,-5.854296222505903,3.2200194044515156,11.006121558486756,11.829425676125743,9.300655239089956,4.476881563644995,-1.1208293910268594,-6.829034480922292,0.1135251,0.1281735,0.9863256,24.35496,-3.815,7.553699999999999,72.0
1774821814.5205865,1.7881393432617188e-05,2026-03-29T22:03:34.520,2026-03-29T18:03:34.520,-31894.065,-50489.28,-86130.09,-50587.74,-16702.559999999998,-21397.725,3911.7599999999998,-42635.25,-7.226560274288301,2.4991216445068347,10.646018077597565,12.153506034899829,10.504498296441023,5.31637236070339,-2.512304993654124,-9.708002161611178,0.1135251,0.1281735,0.9863256,24.35496,-3.815,7.553699999999999,72.0
1774821814.5242598,0.0036733150482177734,2026-03-29T22:03:34.524,2026-03-29T18:03:34.524,-31897.98,-50493.465,-86140.62,-50597.729999999996,-16709.895,-21403.215,3911.4449999999997,-42635.655,-5.501492882448141,0.3796995616498437,5.134771343133357,6.629553920482819,6.593494407891232,3.2350743188326363,-2.9373941234493457,-8.252210249202168,0.1135251,0.1281735,0.9863256,24.35496,-3.815,7.553699999999999,72.0
1774821814.524286,2.6226043701171875e-05,2026-03-29T22:03:34.524,2026-03-29T18:03:34.524,-31890.914999999997,-50494.049999999996,-86159.205,-50616.54,-16725.015,-21416.04,3909.87,-42631.92,-1.7027995322803426,-2.1972604533401627,-2.8937684157010186,-2.0780444589150204,-0.4941534630109318,-0.4802256364092679,-1.8675345928500473,-3.3593077980244335,0.1135251,0.1281735,0.9863256,24.35496,-3.815,7.553699999999999,72.0
1774821814.5312195,0.006933450698852539,2026-03-29T22:03:34.531,2026-03-29T18:03:34.531,-31896.315,-50504.759999999995,-86168.025,-50624.505,-16730.145,-21416.535,3912.66,-42627.42,2.4012977070744648,-3.944883617272482,-9.566030482631007,-9.76490263967429,-7.279266353489529,-3.705161095567631,0.4637365935532867,2.6493735672689014,0.11120577,0.14050257,0.98278557,24.889059999999997,-4.577999999999999,4.440659999999999,72.0
1774821814.5312464,2.6941299438476562e-05,2026-03-29T22:03:34.531,2026-03-29T18:03:34.531,-31903.515,-50513.715,-86166.495,-50618.384999999995,-16718.579999999998,-21396.105,3918.96,-42621.39,5.1248818590018805,-3.8758035579302543,-11.65226610828774,-12.732385910878856,-10.46033585742271,-4.660540688023604,3.052077609452346,7.135514019718258,0.11120577,0.14050257,0.98278557,24.889059999999997,-4.577999999999999,4.440659999999999,72.0
1774821814.5312736,2.7179718017578125e-05,2026-03-29T22:03:34.531,2026-03-29T18:03:34.531,-31898.789999999997,-50512.95,-86169.33,-50623.11,-16727.715,-21406.95,3913.515,-42615.36,5.546013737632743,-1.8475888098059607,-8.14004541537611,-9.579921120291427,-8.52963071610621,-2.8813146102766636,4.559745522898844,8.303257907255606,0.11120577,0.14050257,0.98278557,24.889059999999997,-4.577999999999999,4.440659999999999,72.0
1774821814.5312843,1.0728836059570312e-05,2026-03-29T22:03:34.531,2026-03-29T18:03:34.531,-31902.434999999998,-50502.06,-86150.16,-50602.814999999995,-16710.345,-21394.215,3907.665,-42624.225,3.774826438693206,1.289146828890129,-0.7259687905668973,-1.8690881202113003,-2.490699423774161,0.5513379397756443,4.006143730565384,5.902204169913273,0.11120577,0.14050257,0.98278557,24.889059999999997,-4.577999999999999,4.440659999999999,72.0
1774821814.5363104,0.005026102066040039,2026-03-29T22:03:34.536,2026-03-29T18:03:34.536,-31896.27,-50474.475,-86109.03,-50560.064999999995,-16671.78,-21364.425,3913.92,-42630.03,0.7606520169507063,4.048237973659741,7.013436401456769,6.6566242917119185,4.665346425134406,3.6326588699640485,1.355192067210244,1.209190924014778,0.11120577,0.14050257,0.98278557,24.889059999999997,-4.577999999999999,4.440659999999999,72.0
1774821814.5363429,3.24249267578125e-05,2026-03-29T22:03:34.536,2026-03-29T18:03:34.536,-31894.289999999997,-50480.595,-86130.405,-50590.35,-16715.024999999998,-21426.21,3887.145,-42625.755,-2.2044033939985126,5.020478640443575,11.361594747953177,11.902847707743193,9.449837448211264,4.563801147822969,-2.336218108586701,-3.6384583709790173,0.11120577,0.14050257,0.98278557,24.889059999999997,-4.577999999999999,4.440659999999999,72.0
1774821814.54385,0.0075070858001708984,2026-03-29T22:03:34.543,2026-03-29T18:03:34.543,-31887.225,-50475.915,-86126.355,-50582.924999999996,-16702.29,-21411.27,3889.2149999999997,-42618.869999999995,-4.029764159488515,3.595261210728639,10.258617296255037,11.403354251976234,9.585658942874451,2.7654402282586346,-5.337480793665088,-6.613543140013016,0.11120577,0.14050257,0.98278557,24.889059999999997,-4.577999999999999,4.440659999999999,72.0
1774821814.5438805,3.0517578125e-05,2026-03-29T22:03:34.543,2026-03-29T18:03:34.543,-31903.829999999998,-50495.939999999995,-86137.29,-50581.034999999996,-16689.329999999998,-21394.8,3888.27,-42623.28,-4.1951177272364,0.3202246776216077,4.279996309619245,5.483862931789708,5.0934285328857865,-0.7833096370627741,-6.065772201030116,-6.634079353524721,0.11120577,0.14050257,0.98278557,24.889059999999997,-4.577999999999999,4.440659999999999,72.0
1774821814.5439053,2.47955322265625e-05,2026-03-29T22:03:34.543,2026-03-29T18:03:34.543,-31909.094999999998,-50504.58,-86149.08,-50588.955,-16688.61,-21380.715,3906.81,-42622.424999999996,-2.8404982898167415,-3.3055587612674904,-3.669331725939684,-2.9407570362243605,-1.7647168656291004,-4.071773861606718,-3.9150869076559562,-3.926977848628177,0.11120577,0.14050257,0.98278557,24.889059999999997,-4.577999999999999,4.440659999999999,72.0
1774821814.5439177,1.239776611328125e-05,2026-03-29T22:03:34.543,2026-03-29T18:03:34.543,-31913.19,-50515.064999999995,-86168.025,-50612.534999999996,-16711.515,-21384.045,3927.5099999999998,-42619.814999999995,-0.6083098237078267,-5.528801968615737,-9.780500065764471,-9.813113289797837,-7.631422870746416,-5.168556705717333,0.3392432527878012,0.1821208027874662,0.11120577,0.14050257,0.98278557,24.889059999999997,-4.577999999999999,4.440659999999999,72.0
1774821814.5482357,0.0043179988861083984,2026-03-29T22:03:34.548,2026-03-29T18:03:34.548,-31904.145,-50509.439999999995,-86173.065,-50628.78,-16733.16,-21409.245,3911.85,-42615.54,1.648304606254118,-5.199824668299418,-11.179104669039997,-11.8997419888714,-9.705483682418809,-3.311961377482585,4.805583869536557,3.907047046474298,0.111266805,0.14977989,0.9835179900000001,18.49512,-6.91278,6.24134,72.0
1774821814.5482597,2.4080276489257812e-05,2026-03-29T22:03:34.548,2026-03-29T18:03:34.548,-31902.344999999998,-50499.045,-86154.03,-50610.735,-16719.255,-21406.094999999998,3902.895,-42616.53,3.1643665976824185,-2.3661586883772343,-7.282060852092052,-8.317631843639052,-7.081349366410056,0.6211635646714955,7.327970186243112,5.7640177097200604,0.111266805,0.14977989,0.9835179900000001,18.49512,-6.91278,6.24134,72.0
1774821814.5524113,0.004151582717895508,2026-03-29T22:03:34.552,2026-03-29T18:03:34.552,-31899.78,-50491.395,-86142.33,-50596.155,-16703.954999999998,-21393.63,3908.16,-42611.67,3.4825510646537134,1.704947183012847,-0.02962987819171283,-0.8972811929631986,-1.1347131957509566,4.539546540721962,6.535888160797491,5.14115295589495,0.111266805,0.14977989,0.9835179900000001,18.49512,-6.91278,6.24134,72.0
1774821814.552444,3.266334533691406e-05,2026-03-29T22:03:34.552,2026-03-29T18:03:34.552,-31896.36,-50490.09,-86140.62,-50591.79,-16697.475,-21385.079999999998,3914.46,-42605.64,2.5583987726741046,5.104908080281527,7.093008666305979,6.760533135415739,5.204283704970171,6.244635713230823,2.5766294571061596,2.469792982978954,0.111266805,0.14977989,0.9835179900000001,18.49512,-6.91278,6.24134,72.0
1774821814.5595343,0.007090330123901367,2026-03-29T22:03:34.559,2026-03-29T18:03:34.559,-31909.23,-50501.97,-86144.12999999999,-50588.865,-16690.59,-21376.844999999998,3916.2599999999998,-42613.47,0.7504329284899408,6.193302627571027,10.745270657924872,11.044206068480596,8.903424903020932,4.635640761875048,-2.856401730668138,-1.0292467287376061,0.111266805,0.14977989,0.9835179900000001,18.49512,-6.91278,6.24134,72.0
1774821814.5595553,2.09808349609375e-05,2026-03-29T22:03:34.559,2026-03-29T18:03:34.559,-31918.14,-50512.455,-86161.77,-50611.14,-16717.86,-21406.454999999998,3900.825,-42621.75,-1.2934830379193143,4.397816513446122,9.305082134644381,10.040637655239431,8.281528592189263,0.36140301074297415,-7.2551658264916545,-3.8864106212497114,0.111266805,0.14977989,0.9835179900000001,18.49512,-6.91278,6.24134,72.0
1774821814.5595756,2.0265579223632812e-05,2026-03-29T22:03:34.559,2026-03-29T18:03:34.559,-31903.065,-50501.384999999995,-86151.33,-50605.695,-16716.735,-21407.309999999998,3901.23,-42609.104999999996,-2.8352119210816213,0.5100962892852328,3.5816074656138657,4.381922072175623,3.7638882371452262,-4.449233422250112,-8.468378950272053,-4.980020349848349,0.111266805,0.14977989,0.9835179900000001,18.49512,-6.91278,6.24134,72.0
1774821814.5595827,7.152557373046875e-06,2026-03-29T22:03:34.559,2026-03-29T18:03:34.559,-31902.39,-50507.595,-86157.855,-50617.439999999995,-16736.895,-21438.855,3885.12,-42604.424999999996,-3.2930379459408465,-3.6740203491663515,-3.6422878020866727,-3.1411160250410055,-2.394939768708091,-7.261762747986735,-5.759303923838307,-3.958954750923848,0.111266805,0.14977989,0.9835179900000001,18.49512,-6.91278,6.24134,72.0
1774821814.5657065,0.006123781204223633,2026-03-29T22:03:34.565,2026-03-29T18:03:34.565,-31891.454999999998,-50498.775,-86150.565,-50607.314999999995,-16722.54,-21421.8,3894.705,-42595.155,-2.4667293289861196,-6.20112550323659,-8.97861230643015,-8.967245977538106,-7.246436650122467,-6.466392172149265,-0.22732810271414494,-1.3436513659700788,0.111266805,0.14977989,0.9835179900000001,18.49512,-6.91278,6.24134,72.0
1774821814.565731,2.4557113647460938e-05,2026-03-29T22:03:34.565,2026-03-29T18:03:34.565,-31888.844999999998,-50505.21,-86165.595,-50615.64,-16719.165,-21401.864999999998,3910.455,-42585.615,-0.6503270996279331,-5.8863058472969465,-10.033092233105313,-10.458141833222601,-8.564531460380136,-2.267080117311581,5.639076812619211,1.7162902839488823,0.111266805,0.14977989,0.9835179900000001,18.49512,-6.91278,6.24134,72.0
1774821814.568363,0.0026319026947021484,2026-03-29T22:03:34.568,2026-03-29T18:03:34.568,-31895.414999999997,-50496.93,-86148.765,-50596.695,-16699.32,-21384.09,3908.205,-42597.63,1.4407885847894086,-2.8725941622938618,-6.474390653651744,-7.087209776353714,-5.859656996916656,3.351173325969551,9.095290809111473,3.9240990584091633,0.109924035,0.149718855,0.98156487,15.717799999999999,-7.53844,7.63,72.0
1774821814.5683763,1.33514404296875e-05,2026-03-29T22:03:34.568,2026-03-29T18:03:34.568,-31891.004999999997,-50481.765,-86123.745,-50575.905,-16685.28,-21376.53,3908.9249999999997,-42598.35,2.93525926022226,1.442598926316596,-0.09870566773500841,-0.5912272877235982,-0.5320913687878002,7.58411997767901,8.436939177428565,4.368142892289874,0.109924035,0.149718855,0.98156487,15.717799999999999,-7.53844,7.63,72.0
1774821814.572338,0.003961801528930664,2026-03-29T22:03:34.572,2026-03-29T18:03:34.572,-31904.954999999998,-50484.24,-86117.355,-50563.755,-16670.97,-21362.625,3926.6099999999997,-42615.045,3.1759054372850377,5.072710905035187,6.090614810775833,5.933999676648592,4.863309531933026,8.222242941045375,3.841717703503292,2.896493919459613,0.109924035,0.149718855,0.98156487,15.717799999999999,-7.53844,7.63,72.0
1774821814.572369,3.0994415283203125e-05,2026-03-29T22:03:34.572,2026-03-29T18:03:34.572,-31900.004999999997,-50491.08,-86130.81,-50575.68,-16681.184999999998,-21373.605,3919.14,-42609.78,2.034180650439771,6.374129299786119,9.310644618420573,9.518647907090394,7.850333359190132,4.797174551947206,-2.6597273425694667,0.1816844551586928,0.109924035,0.149718855,0.98156487,15.717799999999999,-7.53844,7.63,72.0
1774821814.576692,0.004323005676269531,2026-03-29T22:03:34.576,2026-03-29T18:03:34.576,-31877.954999999998,-50482.35,-86130.045,-50578.695,-16685.505,-21380.895,3906.54,-42589.89,0.0065899092022878615,4.799230372136328,8.248442094617227,8.66698005933606,7.1629360179303685,-1.1324637746912203,-8.092386303248787,-2.560088821671512,0.109924035,0.149718855,0.98156487,15.717799999999999,-7.53844,7.63,72.0
1774821814.5767071,1.5020370483398438e-05,2026-03-29T22:03:34.576,2026-03-29T18:03:34.576,-31889.565,-50491.439999999995,-86136.165,-50588.369999999995,-16699.095,-21396.42,3903.8849999999998,-42593.265,-1.9825397957212925,1.1207292306646943,3.5722702004920532,3.958229249131844,3.260348562908137,-6.7156044480196675,-9.912672248640485,-4.091820204039552,0.109924035,0.149718855,0.98156487,15.717799999999999,-7.53844,7.63,72.0
1774821814.5818083,0.005101203918457031,2026-03-29T22:03:34.581,2026-03-29T18:03:34.581,-31917.195,-50505.525,-86150.11499999999,-50605.424999999996,-16719.075,-21418.155,3903.75,-42616.755,-3.004669417050831,-2.96128276963027,-2.4800627469354266,-2.3272784250442533,-1.9710413309271544,-9.205373943032438,-7.208277265140005,-3.7076039418574163,0.109924035,0.149718855,0.98156487,15.717799999999999,-7.53844,7.63,72.0
1774821814.5818455,3.719329833984375e-05,2026-03-29T22:03:34.581,2026-03-29T18:03:34.581,-31920.12,-50515.064999999995,-86157.58499999999,-50607.09,-16714.485,-21403.844999999998,3915.45,-42616.71,-2.5823290771357135,-5.624093954546351,-7.1870866663993525,-7.324026209624267,-6.1407466420287475,-7.321770416456933,-1.1520024197019458,-1.5710025270686665,0.109924035,0.149718855,0.98156487,15.717799999999999,-7.53844,7.63,72.0
1774821814.585582,0.0037364959716796875,2026-03-29T22:03:34.585,2026-03-29T18:03:34.585,-31912.425,-50506.02,-86158.62,-50609.88,-16716.51,-21403.305,3912.165,-42608.97,-0.9434565021219377,-5.7489383213105345,-8.569587600346786,-8.88733205152706,-7.444952871674031,-1.898868383620014,5.51475788734648,1.3278484918518432,0.109924035,0.149718855,0.98156487,15.717799999999999,-7.53844,7.63,72.0
1774821814.5856009,1.8835067749023438e-05,2026-03-29T22:03:34.585,2026-03-29T18:03:34.585,-31903.469999999998,-50493.195,-86141.205,-50593.905,-16703.595,-21393.765,3903.8849999999998,-42602.895,1.0731710945617248,-3.3880956262257436,-6.203110597737575,-6.4942832548757945,-5.428051783065038,4.506857751062587,9.7371571207236,3.603921733560359,0.109924035,0.149718855,0.98156487,15.717799999999999,-7.53844,7.63,72.0
1774821814.588449,0.0028481483459472656,2026-03-29T22:03:34.588,2026-03-29T18:03:34.588,-31900.68,-50498.009999999995,-86141.43,-50587.83,-16694.82,-21386.16,3906.585,-42594.479999999996,2.4350649246135734,0.3209517096226278,-1.2948528941329918,-1.3723413410687724,-1.1042772097049849,8.85214022005944,9.559057166457546,4.123111762250314,0.10778781,0.146545035,0.980527275,14.43596,-9.67484,5.27996,72.0
1774821814.5884824,3.337860107421875e-05,2026-03-29T22:03:34.588,2026-03-29T18:03:34.588,-31877.28,-50483.564999999995,-86143.41,-50597.955,-16707.239999999998,-21402.719999999998,3905.055,-42577.56,2.4531452860014684,3.7206703302186113,3.944978005884479,4.140595490880158,3.564683488538381,9.075131251800698,5.0335516266734315,2.5683101466060303,0.10778781,0.146545035,0.980527275,14.43596,-9.67484,5.27996,72.0
1774821814.5922709,0.003788471221923828,2026-03-29T22:03:34.592,2026-03-29T18:03:34.592,-31897.89,-50485.095,-86114.87999999999,-50546.88,-16641.225,-21334.635,3924.315,-42587.46,1.1563378048554627,5.389715254453382,7.30475827323848,7.666686472240965,6.561724612069088,5.077388801537617,-1.793900358544199,-0.3572091926203038,0.10778781,0.146545035,0.980527275,14.43596,-9.67484,5.27996,72.0
1774821814.592291,2.0265579223632812e-05,2026-03-29T22:03:34.592,2026-03-29T18:03:34.592,-31918.77,-50505.615,-86141.565,-50581.35,-16687.035,-21387.149999999998,3905.46,-42602.58,-0.7091506206347861,4.737529254632854,7.488910324378099,7.797329450112855,6.669466279320612,-1.249864904880762,-7.82263817085112,-3.2195339944909174,0.10778781,0.146545035,0.980527275,14.43596,-9.67484,5.27996,72.0
1774821814.596519,0.004227876663208008,2026-03-29T22:03:34.596,2026-03-29T18:03:34.596,-31901.219999999998,-50497.965,-86156.415,-50616.494999999995,-16738.065,-21438.135,3887.7749999999996,-42592.68,-2.075519932768802,2.188319497765857,4.579845911662966,4.62213755565986,3.9354960681364104,-6.949978044368859,-10.318678402061508,-4.532784892587124,0.10778781,0.146545035,0.980527275,14.43596,-9.67484,5.27996,72.0
1774821814.5965488,2.9802322387695312e-05,2026-03-29T22:03:34.596,2026-03-29T18:03:34.596,-31893.254999999997,-50492.744999999995,-86149.89,-50604.57,-16720.155,-21412.215,3901.0049999999997,-42584.715,-2.1453519628604982,-1.0864226196841542,-0.09638231204338304,-0.39985990267579474,-0.4117511974936252,-9.410368815197229,-8.162673541195407,-3.5157627857239815,0.10778781,0.146545035,0.980527275,14.43596,-9.67484,5.27996,72.0
1774821814.600422,0.003873109817504883,2026-03-29T22:03:34.600,2026-03-29T18:03:34.600,-31891.14,-50492.115,-86146.245,-50592.555,-16702.965,-21393.899999999998,3909.105,-42580.89,-0.8584375008208192,-3.722846930405593,-4.584505585093107,-5.117534099376013,-4.520045849619135,-7.572227260785286,-2.3504892639733828,-0.546527438155327,0.10778781,0.146545035,0.980527275,14.43596,-9.67484,5.27996,72.0
1774821814.6004438,2.193450927734375e-05,2026-03-29T22:03:34.600,2026-03-29T18:03:34.600,-31910.895,-50514.03,-86166.855,-50604.795,-16708.86,-21395.745,3909.015,-42586.064999999995,1.038637501989958,-4.736502556738161,-7.105076317005509,-7.595804877945006,-6.688361639099673,-2.374586886100047,4.476593544750691,2.9452779527078534,0.10778781,0.146545035,0.980527275,14.43596,-9.67484,5.27996,72.0
1774821814.6044848,0.004040956497192383,2026-03-29T22:03:34.604,2026-03-29T18:03:34.604,-31909.905,-50506.92,-86154.885,-50596.47,-16703.235,-21386.16,3920.265,-42581.744999999995,2.3855138744294058,-3.8691619700090696,-6.726028929443452,-6.879057379289545,-6.044118681738851,3.746490375717404,9.245768214477978,5.141645232791739,0.10778781,0.146545035,0.980527275,14.43596,-9.67484,5.27996,72.0
1774821814.6045125,2.765655517578125e-05,2026-03-29T22:03:34.604,2026-03-29T18:03:34.604,-31902.75,-50502.78,-86158.035,-50609.52,-16740.225,-21394.665,3923.19,-42577.244999999995,2.2699158608485472,-1.601144478949803,-3.668121535028304,-3.3270065353801597,-2.8696091747092765,8.028259447867175,9.846265596785495,4.758500617680634,0.10778781,0.146545035,0.980527275,14.43596,-9.67484,5.27996,72.0
1774821814.6143057,0.009793281555175781,2026-03-29T22:03:34.614,2026-03-29T18:03:34.614,-31904.82,-50509.53,-86170.905,-50633.865,-16784.46,-21421.395,3912.5699999999997,-42576.84,0.5959154946790223,1.1217454220424474,0.8297774285518609,1.5739159257717028,1.528855721304463,8.645519175208461,6.065581939997958,1.7678545102877579,0.11315889,0.137633925,0.980038995,13.94764,-10.08686,3.3419399999999997,72.0
1774821814.6143286,2.288818359375e-05,2026-03-29T22:03:34.614,2026-03-29T18:03:34.614,-31902.48,-50496.884999999995,-86146.965,-50598.9,-16715.79,-21397.32,3901.815,-42581.655,-1.779097928270621,3.2898111091279327,5.002661499661032,5.82181728162055,5.344986895812644,5.482051467272778,-0.3476816037219523,-2.4767661913068695,0.11315889,0.137633925,0.980038995,13.94764,-10.08686,3.3419399999999997,72.0
1774821814.6143477,1.9073486328125e-05,2026-03-29T22:03:34.614,2026-03-29T18:03:34.614,-31904.774999999998,-50500.755,-86150.655,-50592.015,-16687.395,-21425.13,3894.66,-42581.564999999995,-3.456854521524044,4.185180388202959,7.219331945505528,7.688576242271171,6.988003818509606,0.08768560960865193,-6.504296514906575,-5.831035621533136,0.11315889,0.137633925,0.980038995,13.94764,-10.08686,3.3419399999999997,72.0
1774821814.6143544,6.67572021484375e-06,2026-03-29T22:03:34.614,2026-03-29T18:03:34.614,-31899.69,-50503.455,-86156.685,-50601.96,-16710.66,-21414.059999999998,3892.77,-42576.119999999995,-3.27246552991022,3.5774632194163942,6.5836995634918045,6.393299318904832,5.7224308647427105,-5.104346059681246,-9.68770954398698,-6.4203133426171135,0.11315889,0.137633925,0.980038995,13.94764,-10.08686,3.3419399999999997,72.0
1774821814.6202412,0.00588679313659668,2026-03-29T22:03:34.620,2026-03-29T18:03:34.620,-31906.98,-50493.555,-86123.79,-50567.31,-16678.395,-21376.53,3897.855,-42577.74,-1.0174825536637964,1.7350566450733687,3.2782687494774483,2.415473248899247,1.9889787848119653,-7.894274529194064,-8.557665728323594,-3.653997754341964,0.11315889,0.137633925,0.980038995,13.94764,-10.08686,3.3419399999999997,72.0
1774821814.6202736,3.24249267578125e-05,2026-03-29T22:03:34.620,2026-03-29T18:03:34.620,-31896.539999999997,-50481.63,-86113.62,-50564.295,-16683.03,-21385.89,3897.495,-42570.045,2.3117482668538027,-0.7036505220698539,-1.4707498827948762,-2.670110365859649,-2.7292138447482572,-7.244996734473921,-3.708663333288526,1.3440809753486522,0.11315889,0.137633925,0.980038995,13.94764,-10.08686,3.3419399999999997,72.0
1774821814.620303,2.9325485229492188e-05,2026-03-29T22:03:34.620,2026-03-29T18:03:34.620,-31879.44,-50487.21,-86134.31999999999,-50584.68,-16699.274999999998,-21397.274999999998,3906.72,-42556.005,4.934705497814627,-2.9326095887311427,-5.8133455578855555,-6.788196029084843,-6.468127479546603,-3.633578888522201,2.6460373376771686,6.167524886336486,0.11315889,0.137633925,0.980038995,13.94764,-10.08686,3.3419399999999997,72.0
1774821814.6203187,1.5735626220703125e-05,2026-03-29T22:03:34.620,2026-03-29T18:03:34.620,-31886.864999999998,-50505.93,-86147.28,-50588.415,-16694.954999999998,-21387.465,3913.92,-42555.375,5.209646373653632,-4.201394395082848,-7.959418479762993,-8.181043900920505,-7.577203806479346,1.271198264807343,7.695814773094077,8.27096994034366,0.11315889,0.137633925,0.980038995,13.94764,-10.08686,3.3419399999999997,72.0
1774821814.628716,0.008397340774536133,2026-03-29T22:03:34.628,2026-03-29T18:03:34.628,-31895.73,-50486.354999999996,-86114.61,-50550.255,-16653.105,-21338.055,3912.66,-42561.9,2.590773806827204,-4.026758692971015,-6.896443050729154,-6.144614445787447,-5.439324858059661,5.398155806099286,9.282917025366858,6.288320344854797,0.11315889,0.137633925,0.980038995,13.94764,-10.08686,3.3419399999999997,72.0
1774821814.6287513,3.528594970703125e-05,2026-03-29T22:03:34.628,2026-03-29T18:03:34.628,-31894.965,-50480.729999999996,-86125.05,-50566.14,-16668.809999999998,-21353.535,3902.625,-42567.39,-1.9163312822350653,-2.360941180184318,-2.8649953187268227,-1.38240805893966,-0.8070488598423174,7.147965269125374,6.8221966089114625,0.8513066078172011,0.11315889,0.137633925,0.980038995,13.94764,-10.08686,3.3419399999999997,72.0
1774821814.6287792,2.7894973754882812e-05,2026-03-29T22:03:34.628,2026-03-29T18:03:34.628,-31887.719999999998,-50485.59,-86152.995,-50611.77,-16727.085,-21417.93,3893.535,-42561.63,-6.112088457351293,0.3319270660242144,2.6308818750641985,4.20095869182438,4.4261651553020664,5.984354309512745,1.4999346984521302,-5.561022392571562,0.119689635,0.128722815,0.980161065,13.94764,-8.255659999999999,4.8069,72.0
1774821814.6287916,1.239776611328125e-05,2026-03-29T22:03:34.628,2026-03-29T18:03:34.628,-31895.73,-50483.97,-86118.03,-50557.005,-16658.774999999998,-21339.495,3942.1349999999998,-42552.63,-7.664870588994423,3.149947051344841,7.343659730911882,8.231802326778196,7.975581864148603,2.5421689726059475,-4.305097389630725,-9.744154093421162,0.119689635,0.128722815,0.980161065,13.94764,-8.255659999999999,4.8069,72.0
1774821814.639851,0.01105952262878418,2026-03-29T22:03:34.639,2026-03-29T18:03:34.639,-31895.684999999998,-50496.795,-86138.37,-50580.674999999996,-16687.395,-21372.93,3949.47,-42545.295,-5.369560307086487,5.009437875901922,9.17918674425892,8.86209626594102,8.154009052248531,-1.7245538764654185,-8.092741400382836,-9.358291537575838,0.119689635,0.128722815,0.980161065,13.94764,-8.255659999999999,4.8069,72.0
1774821814.6398816,3.0517578125e-05,2026-03-29T22:03:34.639,2026-03-29T18:03:34.639,-31874.085,-50477.895,-86141.565,-50600.43,-16722.315,-21425.535,3919.6349999999998,-42539.534999999996,0.06406321984930459,5.041142230832146,7.125484558840468,5.618193173062932,4.676827662774765,-5.157612839049442,-8.318907513707337,-4.201460955862897,0.119689635,0.128722815,0.980161065,13.94764,-8.255659999999999,4.8069,72.0
1774821814.6399097,2.8133392333984375e-05,2026-03-29T22:03:34.639,2026-03-29T18:03:34.639,-31894.425,-50484.465,-86131.935,-50578.29,-16696.079999999998,-21398.85,3901.815,-42557.985,6.169737394660624,2.9941909303852756,1.801991838326336,-0.2876937704344909,-1.1030403080052422,-6.512803549110305,-5.015275355201669,3.515463197327583,0.119689635,0.128722815,0.980161065,13.94764,-8.255659999999999,4.8069,72.0
1774821814.6399224,1.2636184692382812e-05,2026-03-29T22:03:34.639,2026-03-29T18:03:34.639,-31901.895,-50498.595,-86145.435,-50592.42,-16708.995,-21403.89,3894.75,-42561.54,9.840602868373338,-0.5390294345319685,-4.666493617624199,-6.3756420489765775,-6.693091320029685,-5.367680887345896,0.291636513470941,10.107983723783507,0.119689635,0.128722815,0.980161065,13.94764,-8.255659999999999,4.8069,72.0
1774821814.6399367,1.430511474609375e-05,2026-03-29T22:03:34.639,2026-03-29T18:03:34.639,-31885.965,-50489.595,-86128.515,-50568.39,-16675.38,-21357.989999999998,3917.8799999999997,-42544.08,8.90000691152373,-4.232232678512048,-9.472419237118121,-9.924484611148,-9.52725933858676,-2.2143670761633247,5.292002702124242,12.178202436061659,0.119689635,0.128722815,0.980161065,13.94764,-8.255659999999999,4.8069,72.0
1774821814.6399472,1.049041748046875e-05,2026-03-29T22:03:34.639,2026-03-29T18:03:34.639,-31877.594999999998,-50494.005,-86152.36499999999,-50607.27,-16728.255,-21421.71,3913.83,-42531.39,3.3362928744666753,-6.495984841412734,-10.34133822195735,-9.19047465960896,-8.149444725756414,1.752927372645871,7.900509366189867,8.354332689588103,0.119689635,0.128722815,0.980161065,13.94764,-8.255659999999999,4.8069,72.0
1774821814.6446474,0.004700183868408203,2026-03-29T22:03:34.644,2026-03-29T18:03:34.644,-31874.715,-50511.195,-86187.19499999999,-50643.134999999995,-16767.63,-21462.48,3901.095,-42519.6,-4.480435614278368,-6.159185738261961,-6.615719419836281,-4.270716484870613,-2.965481504021336,5.063711152334142,7.1201103411004345,0.12231330223696524,0.119689635,0.128722815,0.980161065,13.94764,-8.255659999999999,4.8069,72.0
1774821814.6446772,2.9802322387695312e-05,2026-03-29T22:03:34.644,2026-03-29T18:03:34.644,-31873.364999999998,-50516.189999999995,-86191.155,-50641.83,-16761.645,-21456.405,3873.87,-42512.31,-10.80227542459506,-3.0704960005842734,0.31421988904638626,2.8204143212807495,3.8275356993144194,6.475874465339365,3.4077826987983637,-8.731367645468985,0.119689635,0.128722815,0.980161065,13.94764,-8.255659999999999,4.8069,72.0
1774821814.6483428,0.0036656856536865234,2026-03-29T22:03:34.648,2026-03-29T18:03:34.648,-31891.68,-50517.765,-86186.11499999999,-50635.71,-16757.73,-21464.01,3836.565,-42529.59,-12.30709255081,1.6878756416550418,7.49625605835534,8.959575195632294,9.162594272996467,5.412706474306431,-1.582618146938952,-13.869707331991142,0.11694306,0.123351735,0.983090745,11.68916,-6.83648,5.58516,72.0
1774821814.648357,1.4066696166992188e-05,2026-03-29T22:03:34.648,2026-03-29T18:03:34.648,-31912.965,-50500.845,-86147.19,-50595.93,-16722.945,-21448.035,3832.605,-42566.174999999996,-7.830620973881709,6.141389137254459,11.669494218772028,11.2931586751937,10.494608367859842,2.197320479740964,-5.7394527360244405,-12.535711204511385,0.11694306,0.123351735,0.983090745,11.68916,-6.83648,5.58516,72.0
1774821814.652408,0.0040509700775146484,2026-03-29T22:03:34.652,2026-03-29T18:03:34.652,-31897.89,-50492.52,-86134.455,-50578.29,-16696.62,-21420.855,3869.5049999999997,-42547.68,0.8717057168823442,8.23596896044671,10.755553174873768,8.576089313552304,7.027402231172267,-2.010179498947524,-7.383448852479895,-5.013188809437755,0.11694306,0.123351735,0.983090745,11.68916,-6.83648,5.58516,72.0
1774821814.652429,2.1219253540039062e-05,2026-03-29T22:03:34.652,2026-03-29T18:03:34.652,-31898.204999999998,-50506.02,-86148.765,-50584.14,-16682.399999999998,-21367.844999999998,3929.49,-42534.854999999996,9.794497176897895,6.791496542677106,4.899756076637519,1.8355896437001709,0.17727041907845842,-5.589294499010408,-5.936304174727298,5.350489103999629,0.11694306,0.123351735,0.983090745,11.68916,-6.83648,5.58516,72.0
1774821814.6564903,0.004061222076416016,2026-03-29T22:03:34.656,2026-03-29T18:03:34.656,-31904.504999999997,-50512.725,-86153.08499999999,-50584.455,-16676.505,-21344.715,3968.73,-42538.5,14.539927318215343,2.1502957163328107,-3.4630515096113097,-5.994838658909557,-6.992874206183014,-7.055761531625965,-2.107599816119457,13.643529595890028,0.11694306,0.123351735,0.983090745,11.68916,-6.83648,5.58516,72.0
1774821814.6565132,2.288818359375e-05,2026-03-29T22:03:34.656,2026-03-29T18:03:34.656,-31907.52,-50514.659999999996,-86163.61499999999,-50608.665,-16714.8,-21397.094999999998,3929.7599999999998,-42545.88,12.495403826643106,-3.829990634572165,-10.61369317911636,-11.355135447213659,-11.150776680462057,-5.676137130249127,2.4501788692622326,15.73543880562303,0.11694306,0.123351735,0.983090745,11.68916,-6.83648,5.58516,72.0
