unix_time_s,dt_s,UTC,LOCAL,EMG1_Raw,EMG2_Raw,EMG3_Raw,EMG4_Raw,EMG5_Raw,EMG6_Raw,EMG7_Raw,EMG8_Raw,EMG1_Filtered,EMG2_Filtered,EMG3_Filtered,EMG4_Filtered,EMG5_Filtered,EMG6_Filtered,EMG7_Filtered,EMG8_Filtered,Accel1_Raw,Accel2_Raw,Accel3_Raw,Gyro1_Raw,Gyro2_Raw,Gyro3_Raw,Battery
1774823366.9583127,,2026-03-29T22:29:26.958,2026-03-29T18:29:26.958,-24388.065,-42753.689999999995,-78527.79,-49436.685,-9618.074999999999,-16992.809999999998,7208.28,-56738.115,0.6983104327412665,0.2887657232687848,-1.0157169890687174,-0.9271889936889619,-1.1447380029365601,-1.288109100159666,-0.5169170732719769,0.4829186417448101,0.58483737,0.08435037000000001,0.823911465,-4.41014,-7.172199999999999,-1.43444,68.0
1774823366.9583268,1.4066696166992188e-05,2026-03-29T22:29:26.958,2026-03-29T18:29:26.958,-24379.605,-42757.604999999996,-78546.915,-49441.814999999995,-9613.664999999999,-16987.005,7208.46,-56732.354999999996,6.230800263541547,-1.8395910080829438,-7.082266741171151,-6.168229704854549,-2.7264775523537472,-1.5054366016833807,-0.4847616721445454,10.297906014000056,0.58483737,0.08435037000000001,0.823911465,-4.41014,-7.172199999999999,-1.43444,68.0
1774823366.96123,0.0029032230377197266,2026-03-29T22:29:26.961,2026-03-29T18:29:26.961,-24378.3,-42752.7,-78535.215,-49431.915,-9597.06,-16968.78,7209.719999999999,-56731.59,8.603617301613557,-3.2796359480017285,-9.722095700204525,-8.343252757124732,-2.7415531519237435,-0.7366491066814173,-0.0838650587350566,15.149836063220386,0.58483737,0.08435037000000001,0.823911465,-4.41014,-7.172199999999999,-1.43444,68.0
1774823366.961252,2.193450927734375e-05,2026-03-29T22:29:26.961,2026-03-29T18:29:26.961,-24384.915,-42751.665,-78518.745,-49435.2,-9587.43,-16952.22,7221.33,-56736.134999999995,6.495544646700109,-3.6286225770084832,-7.91417621653129,-6.582835417479279,-1.2002979923250652,0.7604654145000003,0.5573191472880824,12.66665738805022,0.58483737,0.08435037000000001,0.823911465,-4.41014,-7.172199999999999,-1.43444,68.0
1774823366.970425,0.009172916412353516,2026-03-29T22:29:26.970,2026-03-29T18:29:26.970,-24383.925,-42761.07,-78529.14,-49461.659999999996,-9602.595,-16959.87,7218.315,-56733.93,0.906992818744917,-2.8044218022695446,-2.7058072815060705,-1.9095646921277571,1.0186552021809778,2.2099031268461324,1.1050796771588733,4.055121511503829,0.58483737,0.08435037000000001,0.823911465,-4.41014,-7.172199999999999,-1.43444,68.0
1774823366.9704528,2.7894973754882812e-05,2026-03-29T22:29:26.970,2026-03-29T18:29:26.970,-24391.89,-42765.57,-78527.34,-49459.455,-9608.49,-16960.005,7212.825,-56744.369999999995,-5.322995208211917,-1.0436661777858645,3.3810817372207866,3.3413323135592625,2.6596611462359627,2.7208666637096246,1.1924860275621825,-6.494973421987538,0.58483737,0.08435037000000001,0.823911465,-4.41014,-7.172199999999999,-1.43444,68.0
1774823366.9704807,2.7894973754882812e-05,2026-03-29T22:29:26.970,2026-03-29T18:29:26.970,-24373.98,-42742.979999999996,-78499.98,-49421.97,-9596.115,-16960.14,7217.46,-56736.18,-8.962733743565355,1.146477696378211,7.590271085421683,6.7049491089733735,2.7895888888316893,1.807671992526332,0.6431197204178056,-13.867890456230121,0.590757765,0.070129215,0.81603795,7.9352,-7.53844,-2.86888,68.0
1774823366.9704921,1.1444091796875e-05,2026-03-29T22:29:26.970,2026-03-29T18:29:26.970,-24366.915,-42738.93,-78516.045,-49434.39,-9604.574999999999,-16971.12,7220.25,-56737.53,-8.058069638018347,3.0871029816768325,8.199847876352095,6.767653133453103,1.3201557789838,-0.268260210493824,-0.3832597660036665,-14.521728391634399,0.590757765,0.070129215,0.81603795,7.9352,-7.53844,-2.86888,68.0
1774823366.9728029,0.0023107528686523438,2026-03-29T22:29:26.972,2026-03-29T18:29:26.972,-24356.475,-42739.424999999996,-78527.43,-49452.479999999996,-9613.215,-16976.79,7214.219999999999,-56730.96,-2.9648653855933795,4.0924518016848275,5.225236477682452,3.7693646468170106,-0.9363572368598972,-2.549216396327037,-1.4213576705712254,-8.200075116550012,0.590757765,0.070129215,0.81603795,7.9352,-7.53844,-2.86888,68.0
1774823366.9728277,2.47955322265625e-05,2026-03-29T22:29:26.972,2026-03-29T18:29:26.972,-24342.21,-42733.485,-78523.65,-49465.799999999996,-9622.89,-16984.035,7210.44,-56717.28,3.796368238811111,3.69239227829004,0.27010713292540006,-0.6341343015986312,-2.7121335681954775,-3.8327231826277792,-1.9133946008391485,1.9768747641239355,0.590757765,0.070129215,0.81603795,7.9352,-7.53844,-2.86888,68.0
1774823366.9766767,0.003849029541015625,2026-03-29T22:29:26.976,2026-03-29T18:29:26.976,-24315.344999999998,-42716.7,-78515.45999999999,-49475.34,-9638.505,-16997.445,7210.304999999999,-56688.795,8.801197785463282,1.8525333243129796,-4.337424008733305,-4.278800515620553,-2.987785169833147,-3.3065703584302453,-1.505984379052863,11.068302891730387,0.590757765,0.070129215,0.81603795,7.9352,-7.53844,-2.86888,68.0
1774823366.976698,2.1219253540039062e-05,2026-03-29T22:29:26.976,2026-03-29T18:29:26.976,-24313.725,-42721.604999999996,-78522.435,-49464.585,-9629.414999999999,-16990.695,7206.884999999999,-56674.89,9.460774007443565,-0.9114304087092228,-6.658796031181139,-5.575802156098819,-1.5679409288737864,-1.031366711732244,-0.27368958931501336,14.732881412178967,0.590757765,0.070129215,0.81603795,7.9352,-7.53844,-2.86888,68.0
1774823366.9803095,0.0036115646362304688,2026-03-29T22:29:26.980,2026-03-29T18:29:26.980,-24362.64,-42752.25,-78552.855,-49474.305,-9633.465,-16992.495,7208.325,-56707.515,5.353593108959063,-3.6231416412030897,-5.966894016127635,-4.22011253833979,0.7927798250425343,2.005995012148547,1.2635116676009532,11.317638592796847,0.590757765,0.070129215,0.81603795,7.9352,-7.53844,-2.86888,68.0
1774823366.980324,1.4543533325195312e-05,2026-03-29T22:29:26.980,2026-03-29T18:29:26.980,-24414.344999999998,-42755.939999999995,-78530.31,-49452.795,-9592.605,-16945.829999999998,7225.469999999999,-56772.314999999995,-1.5335537097597554,-5.164909035788069,-2.9239108199787807,-1.200093483374843,2.790785271781677,4.330102006293649,2.361182211295443,2.6028781933108647,0.590757765,0.070129215,0.81603795,7.9352,-7.53844,-2.86888,68.0
1774823366.9942415,0.01391744613647461,2026-03-29T22:29:26.994,2026-03-29T18:29:26.994,-24409.89,-42742.08,-78504.84,-49448.88,-9587.925,-16947.18,7228.9349999999995,-56796.93,-7.78511768211745,-4.73802462508405,0.893747318448673,1.8371609993099696,3.2888338336719567,4.707251721154714,2.415166403858216,-7.13224018870152,0.590757765,0.070129215,0.81603795,7.9352,-7.53844,-2.86888,68.0
1774823366.9942691,2.765655517578125e-05,2026-03-29T22:29:26.994,2026-03-29T18:29:26.994,-24389.055,-42749.729999999996,-78515.055,-49444.155,-9598.545,-16964.91,7221.105,-56770.965,-10.265927046722434,-2.274723591127447,3.819668932006112,3.4832938141088197,1.9553982750119365,2.8008605294302105,1.2894014650769954,-13.230733417257701,0.590757765,0.070129215,0.81603795,7.9352,-7.53844,-2.86888,68.0
1774823366.9942882,1.9073486328125e-05,2026-03-29T22:29:26.994,2026-03-29T18:29:26.994,-24375.555,-42739.515,-78501.465,-49406.445,-9587.25,-16965.899999999998,7214.175,-56762.189999999995,-7.697905975287408,1.4102047748521767,4.836943010980421,3.2411437518677984,-0.5279063455054245,-0.5965012786002777,-0.5695020998102047,-12.905266596348927,0.591246045,0.06872541,0.810849975,17.03016,-5.60042,-4.6085199999999995,68.0
1774823366.994295,6.67572021484375e-06,2026-03-29T22:29:26.994,2026-03-29T18:29:26.994,-24372.765,-42730.515,-78491.295,-49417.56,-9592.065,-16964.19,7215.3,-56759.174999999996,-1.309049064773656,4.853782532580135,3.8985970423934266,1.6423426496111044,-2.8158256607080276,-3.8986723177852554,-2.308484511001472,-6.518349103178989,0.591246045,0.06872541,0.810849975,17.03016,-5.60042,-4.6085199999999995,68.0
1774823366.9943027,7.867813110351562e-06,2026-03-29T22:29:26.994,2026-03-29T18:29:26.994,-24365.79,-42723.09,-78474.465,-49411.305,-9586.305,-16957.079999999998,7220.34,-56748.78,5.771577020737195,6.52030015525269,1.7483682813905903,-0.19619516983819832,-3.626430397206258,-5.483994472016199,-3.066075507922439,2.6955663564473444,0.591246045,0.06872541,0.810849975,17.03016,-5.60042,-4.6085199999999995,68.0
1774823366.9943087,5.9604644775390625e-06,2026-03-29T22:29:26.994,2026-03-29T18:29:26.994,-24367.05,-42738.93,-78501.735,-49421.205,-9591.795,-16964.505,7215.48,-56747.744999999995,10.067151245749985,5.494505961141276,-0.5786033076181333,-1.2774361884384131,-2.4538087842935457,-4.505762048534523,-2.4033993267968703,10.280085929983265,0.591246045,0.06872541,0.810849975,17.03016,-5.60042,-4.6085199999999995,68.0
1774823366.9968112,0.00250244140625,2026-03-29T22:29:26.996,2026-03-29T18:29:26.996,-24369.165,-42766.74,-78542.64,-49429.08,-9599.4,-16978.05,7211.025,-56742.39,9.474804205938936,1.9757609391945068,-2.2655851827237474,-1.2700035848878195,0.126990415685202,-1.3439562633873994,-0.5505129355210481,12.732287470259067,0.591246045,0.06872541,0.810849975,17.03016,-5.60042,-4.6085199999999995,68.0
1774823366.996834,2.288818359375e-05,2026-03-29T22:29:26.996,2026-03-29T18:29:26.996,-24379.29,-42778.619999999995,-78526.485,-49419.72,-9589.095,-16962.345,7218.045,-56744.505,4.296900077481205,-2.690449447383926,-2.9783518138624445,-0.5947785798021654,2.7420178615078834,2.542625683006417,1.6675100735477226,9.132756431848238,0.591246045,0.06872541,0.810849975,17.03016,-5.60042,-4.6085199999999995,68.0
1774823367.003812,0.006978034973144531,2026-03-29T22:29:27.003,2026-03-29T18:29:27.003,-24386.489999999998,-42777.854999999996,-78509.565,-49416.705,-9584.46,-16954.29,7223.3099999999995,-56753.82,-2.92470814275393,-6.514700708818279,-2.8117407320572605,-0.03847856949601841,3.9490765494802713,5.306108103790006,3.204588384545711,1.4663578908333423,0.591246045,0.06872541,0.810849975,17.03016,-5.60042,-4.6085199999999995,68.0
1774823367.0038311,1.9073486328125e-05,2026-03-29T22:29:27.003,2026-03-29T18:29:27.003,-24394.815,-42753.689999999995,-78493.72499999999,-49412.115,-9582.119999999999,-16954.92,7217.325,-56762.954999999994,-8.676631584930716,-7.719016994393322,-2.0419228207620588,-0.16250564215310945,3.0288551280464326,5.6074579928689054,3.2949917998901124,-6.462923916752986,0.591246045,0.06872541,0.810849975,17.03016,-5.60042,-4.6085199999999995,68.0
1774823367.0038457,1.4543533325195312e-05,2026-03-29T22:29:27.003,2026-03-29T18:29:27.003,-24386.489999999998,-42744.42,-78503.535,-49431.15,-9597.195,-16967.97,7209.585,-56755.395,-10.203252691622415,-5.574334705909775,-0.8983512774011395,-0.8908789471310791,0.40469577579119576,3.2777734874642914,1.8380501418995414,-10.93384907930741,0.591246045,0.06872541,0.810849975,17.03016,-5.60042,-4.6085199999999995,68.0
1774823367.0038505,4.76837158203125e-06,2026-03-29T22:29:27.003,2026-03-29T18:29:27.003,-24368.625,-42735.015,-78504.705,-49431.689999999995,-9602.82,-16978.14,7202.61,-56740.68,-6.837882591393933,-0.82086705274826,0.48804598429730167,-1.5447202542383913,-2.5498461023377597,-0.5889679892712598,-0.5285839139925351,-10.069622604146815,0.591246045,0.06872541,0.810849975,17.03016,-5.60042,-4.6085199999999995,68.0
1774823367.0090768,0.0052263736724853516,2026-03-29T22:29:27.009,2026-03-29T18:29:27.009,-24361.965,-42741.945,-78531.56999999999,-49455.945,-9623.88,-16999.515,7198.155,-56729.88,-0.2882845517865807,4.5635719094781395,1.9599692312832144,-1.3116463808471923,-4.229151758784018,-4.161859109786736,-2.71336909281852,-4.618898504018378,0.59264985,0.082336215,0.80700477,14.252839999999999,-2.65524,-7.18746,68.0
1774823367.0091045,2.765655517578125e-05,2026-03-29T22:29:27.009,2026-03-29T18:29:27.009,-24355.035,-42744.915,-78540.3,-49474.439999999995,-9634.14,-16996.095,7205.3099999999995,-56719.259999999995,6.242202114179597,8.189479148601237,3.1777687783873088,0.13908843551688013,-3.663992528538054,-5.75931573628092,-3.6834825093960553,2.564331154685367,0.59264985,0.082336215,0.80700477,14.252839999999999,-2.65524,-7.18746,68.0
1774823367.0126753,0.0035707950592041016,2026-03-29T22:29:27.012,2026-03-29T18:29:27.012,-24361.379999999997,-42736.229999999996,-78521.355,-49469.759999999995,-9635.22,-16990.245,7218.045,-56727.72,9.640837618360893,8.329707768592304,3.614451974000524,2.2945429506859845,-1.072321642818423,-4.658110095272816,-2.96057948117606,8.01379386909202,0.59264985,0.082336215,0.80700477,14.252839999999999,-2.65524,-7.18746,68.0
1774823367.0127575,8.225440979003906e-05,2026-03-29T22:29:27.012,2026-03-29T18:29:27.012,-24354.765,-42726.24,-78502.59,-49449.24,-9613.08,-16978.68,7218.36,-56724.435,8.385621531782581,4.752772286496638,2.7822881132099213,3.957671098656773,2.2166698172873622,-1.4282524704378918,-0.8582974641085817,9.33661200177293,0.59264985,0.082336215,0.80700477,14.252839999999999,-2.65524,-7.18746,68.0
1774823367.0168726,0.004115104675292969,2026-03-29T22:29:27.016,2026-03-29T18:29:27.016,-24367.95,-42740.64,-78502.23,-49426.064999999995,-9593.369999999999,-16971.704999999998,7210.98,-56724.704999999994,3.2298447376137456,-1.091014005859268,0.5944263551385403,3.8930056822910073,4.4437114665809645,2.3645557936688784,1.6571743251266142,6.266590310258854,0.59264985,0.082336215,0.80700477,14.252839999999999,-2.65524,-7.18746,68.0
1774823367.0170348,0.0001621246337890625,2026-03-29T22:29:27.017,2026-03-29T18:29:27.017,-24407.82,-42765.93,-78512.985,-49414.365,-9582.255,-16952.94,7222.545,-56758.95,-3.237331754559329,-6.654569911319165,-2.3716179382677742,1.6163058325016342,4.35640039668228,4.932365959678318,3.419761453974748,0.6213167379381851,0.59264985,0.082336215,0.80700477,14.252839999999999,-2.65524,-7.18746,68.0
1774823367.0204802,0.0034453868865966797,2026-03-29T22:29:27.020,2026-03-29T18:29:27.020,-24391.079999999998,-42762.015,-78535.44,-49453.74,-9607.545,-16957.89,7224.884999999999,-56744.145,-7.902804576607126,-9.416144788634634,-4.938051407589882,-2.1412413619438633,1.9042751510153226,5.125924487001514,3.613290668143727,-4.735761362104337,0.59264985,0.082336215,0.80700477,14.252839999999999,-2.65524,-7.18746,68.0
1774823367.0204985,1.8358230590820312e-05,2026-03-29T22:29:27.020,2026-03-29T18:29:27.020,-24383.295,-42751.935,-78547.05,-49463.46,-9616.949999999999,-16966.079999999998,7220.5199999999995,-56744.595,-8.644657395329563,-8.038824022362386,-5.785383902227091,-5.623144128671101,-1.68991424954603,2.960646564338992,2.154914005724963,-7.349526646305994,0.59264985,0.082336215,0.80700477,14.252839999999999,-2.65524,-7.18746,68.0
1774823367.0273993,0.006900787353515625,2026-03-29T22:29:27.027,2026-03-29T18:29:27.027,-24384.465,-42753.915,-78545.43,-49448.52,-9610.109999999999,-16969.95,7218.54,-56746.35,-5.306595181644202,-3.027060011779152,-4.132200875353847,-6.873101517288082,-4.5406374916878915,-0.438202163019006,-0.27045417272328404,-6.304776515683071,0.59264985,0.082336215,0.80700477,14.252839999999999,-2.65524,-7.18746,68.0
1774823367.027413,1.3589859008789062e-05,2026-03-29T22:29:27.027,2026-03-29T18:29:27.027,-24377.94,-42746.58,-78529.00499999999,-49444.02,-9600.48,-16963.065,7220.429999999999,-56737.35,0.31907150883691865,3.445921928189467,-0.2849970541213656,-4.805280189216063,-5.085925713431491,-3.4232167097671526,-2.538343774030816,-2.5116615729023435,0.59264985,0.082336215,0.80700477,14.252839999999999,-2.65524,-7.18746,68.0
1774823367.0274255,1.2636184692382812e-05,2026-03-29T22:29:27.027,2026-03-29T18:29:27.027,-24370.965,-42736.049999999996,-78509.025,-49445.955,-9602.82,-16967.34,7211.5199999999995,-56732.895,5.4480059564358445,8.488285783118885,4.2889752640508885,0.056562676580229586,-2.9341110077803565,-4.637072849135225,-3.6152829374100004,1.9205733265005365,0.59338227,0.097472895,0.80517372,-0.21364,-2.8078399999999997,-5.2646999999999995,68.0
1774823367.0274303,4.76837158203125e-06,2026-03-29T22:29:27.027,2026-03-29T18:29:27.027,-24376.32,-42751.619999999995,-78516.315,-49433.49,-9590.895,-16960.725,7208.955,-56729.88,7.69175961877883,9.798526028009803,7.501910907218245,5.625653867284618,0.8846970761799714,-3.6429179051086016,-3.03711631716066,4.831659410687841,0.59338227,0.097472895,0.80517372,-0.21364,-2.8078399999999997,-5.2646999999999995,68.0
1774823367.0326238,0.005193471908569336,2026-03-29T22:29:27.032,2026-03-29T18:29:27.032,-24367.05,-42746.31,-78522.3,-49454.009999999995,-9598.815,-16957.575,7214.3099999999995,-56721.555,6.181563423604238,6.733164434997613,7.611139700209897,9.152794774649744,4.414206828744512,-1.0744390851828232,-1.110321094495521,5.064815855423324,0.59338227,0.097472895,0.80517372,-0.21364,-2.8078399999999997,-5.2646999999999995,68.0
1774823367.0326393,1.5497207641601562e-05,2026-03-29T22:29:27.032,2026-03-29T18:29:27.032,-24344.73,-42715.305,-78486.66,-49452.93,-9613.529999999999,-16968.015,7216.425,-56710.079999999994,1.8950840301763245,0.6302860319716564,4.15734979477401,8.589535851818594,5.774388244800703,1.7412793119146122,1.2514650019126754,2.9129634146720815,0.59338227,0.097472895,0.80517372,-0.21364,-2.8078399999999997,-5.2646999999999995,68.0
1774823367.03859,0.0059506893157958984,2026-03-29T22:29:27.038,2026-03-29T18:29:27.038,-24335.594999999998,-42717.825,-78484.995,-49429.935,-9605.115,-16974.855,7208.235,-56698.829999999994,-2.930142735612952,-5.776724561873169,-1.6274696388060466,3.7344172311732278,4.156061655379245,3.4719161711142816,2.96807454256713,-0.20654146274819402,0.59338227,0.097472895,0.80517372,-0.21364,-2.8078399999999997,-5.2646999999999995,68.0
1774823367.0386064,1.6450881958007812e-05,2026-03-29T22:29:27.038,2026-03-29T18:29:27.038,-24333.344999999998,-42731.729999999996,-78510.42,-49440.15,-9602.46,-16970.76,7212.195,-56689.424999999996,-5.959388995667706,-9.59768427567418,-7.226295022187421,-3.4645975231513693,0.28356673636907537,3.4210636943746207,3.2947167268736126,-2.6065490956130173,0.59338227,0.097472895,0.80517372,-0.21364,-2.8078399999999997,-5.2646999999999995,68.0
1774823367.0431356,0.004529237747192383,2026-03-29T22:29:27.043,2026-03-29T18:29:27.043,-24356.16,-42747.119999999995,-78525.62999999999,-49461.345,-9614.97,-16976.655,7213.995,-56705.759999999995,-5.897641407413244,-9.108887394573813,-9.944039664017001,-9.68785147799946,-3.9123317366610486,1.8093569405734906,2.1483150394454946,-3.223800214832562,0.59338227,0.097472895,0.80517372,-0.21364,-2.8078399999999997,-5.2646999999999995,68.0
1774823367.0431607,2.5033950805664062e-05,2026-03-29T22:29:27.043,2026-03-29T18:29:27.043,-24375.329999999998,-42747.39,-78523.56,-49473.765,-9632.34,-16991.864999999998,7209.179999999999,-56727.225,-3.0447750266889297,-4.546512445153718,-8.222327098546105,-11.79312927488198,-6.261709165954196,-0.4177654851833491,0.11389148256257617,-2.085749791985315,0.59338227,0.097472895,0.80517372,-0.21364,-2.8078399999999997,-5.2646999999999995,68.0
1774823367.04493,0.0017693042755126953,2026-03-29T22:29:27.044,2026-03-29T18:29:27.044,-24377.67,-42741.945,-78517.125,-49459.32,-9625.815,-16993.305,7206.3,-56736.0,0.9685387226217625,2.002294114460261,-2.5123139108451698,-8.404125395910784,-5.475446281661809,-2.124061522750381,-1.8564448944957452,-0.14887267573690746,0.59338227,0.097472895,0.80517372,-0.21364,-2.8078399999999997,-5.2646999999999995,68.0
1774823367.0449505,2.0503997802734375e-05,2026-03-29T22:29:27.044,2026-03-29T18:29:27.044,-24367.364999999998,-42751.89,-78527.34,-49446.27,-9616.77,-16992.36,7198.335,-56718.854999999996,4.082526537742814,7.562811605418642,4.775993987622207,-0.7333409853601495,-1.8398714434909842,-2.5634393787162333,-2.895911597561492,1.34413934425211,0.59338227,0.097472895,0.80517372,-0.21364,-2.8078399999999997,-5.2646999999999995,68.0
1774823367.0487397,0.003789186477661133,2026-03-29T22:29:27.048,2026-03-29T18:29:27.048,-24379.379999999997,-42749.505,-78509.11499999999,-49419.72,-9596.88,-16972.785,7204.005,-56731.14,4.859714181992206,9.642236550915296,10.298192715644214,7.829180525383205,2.883783201259028,-1.7103245285230733,-2.6087825666776965,1.5961297922241786,0.589537065,0.09423804,0.80590614,-6.60758,-3.17408,-3.92182,68.0
1774823367.0487597,2.002716064453125e-05,2026-03-29T22:29:27.048,2026-03-29T18:29:27.048,-24392.475,-42751.17,-78516.315,-49402.755,-9578.52,-16957.845,7219.17,-56760.75,3.1519803473675805,7.366576727459116,11.334349212116123,13.234484111668376,6.3214350323355815,-0.19176025113848416,-1.2157926459655608,0.6661805879494634,0.589537065,0.09423804,0.80590614,-6.60758,-3.17408,-3.92182,68.0
1774823367.052678,0.00391840934753418,2026-03-29T22:29:27.052,2026-03-29T18:29:27.052,-24386.265,-42766.92,-78547.5,-49402.08,-9572.94,-16959.915,7227.2699999999995,-56746.845,0.07308388235345048,1.8574417109435746,7.143781572704932,12.710082408562432,6.683124709248256,1.1102016920920306,0.5909284455394186,-0.6461485823420647,0.589537065,0.09423804,0.80590614,-6.60758,-3.17408,-3.92182,68.0
1774823367.0527484,7.033348083496094e-05,2026-03-29T22:29:27.052,2026-03-29T18:29:27.052,-24389.504999999997,-42770.115,-78545.52,-49416.345,-9580.68,-16969.23,7216.695,-56745.854999999996,-2.6655863524022827,-4.318703901209213,-0.5662974275104634,6.176879318186867,3.688899007697395,1.5507157102808786,1.994853085430635,-1.343899009399339,0.589537065,0.09423804,0.80590614,-6.60758,-3.17408,-3.92182,68.0
1774823367.0575013,0.0047528743743896484,2026-03-29T22:29:27.057,2026-03-29T18:29:27.057,-24385.32,-42776.729999999996,-78559.515,-49487.445,-9619.109999999999,-16982.73,7212.509999999999,-56741.13,-3.678868237937192,-8.359214039737854,-8.33706595420625,-3.5753725386333324,-1.2535308592826901,1.0410652306511188,2.4286058190506936,-0.8692053654928006,0.589537065,0.09423804,0.80590614,-6.60758,-3.17408,-3.92182,68.0
1774823367.057521,1.9788742065429688e-05,2026-03-29T22:29:27.057,2026-03-29T18:29:27.057,-24371.73,-42775.65,-78553.08,-49490.865,-9620.1,-16975.755,7215.48,-56731.454999999994,-2.602494651768403,-8.51681271786761,-12.534800816618542,-12.096014282267316,-5.722168758794261,0.037048025988393504,1.8011313868816705,0.5409037301048888,0.589537065,0.09423804,0.80590614,-6.60758,-3.17408,-3.92182,68.0
1774823367.0687876,0.011266469955444336,2026-03-29T22:29:27.068,2026-03-29T18:29:27.068,-24378.57,-42787.08,-78535.935,-49444.74,-9607.859999999999,-16964.64,7214.13,-56739.24,-0.2130090848213851,-4.869679861644779,-11.07677681185549,-15.333065159879736,-7.4772669118802675,-0.7726040608516049,0.48895999640438764,1.984102227186603,0.589537065,0.09423804,0.80590614,-6.60758,-3.17408,-3.92182,68.0
1774823367.0688152,2.765655517578125e-05,2026-03-29T22:29:27.068,2026-03-29T18:29:27.068,-24384.96,-42789.24,-78536.06999999999,-49397.354999999996,-9582.84,-16955.01,7210.755,-56741.354999999996,2.058891717381486,0.7765911904709417,-4.4736433199898125,-11.577609845167549,-5.584932359447046,-0.8861162922614639,-0.8801897593333821,2.432269785752853,0.589537065,0.09423804,0.80590614,-6.60758,-3.17408,-3.92182,68.0
1774823367.068843,2.765655517578125e-05,2026-03-29T22:29:27.068,2026-03-29T18:29:27.068,-24380.055,-42750.494999999995,-78543.045,-49412.97,-9584.369999999999,-16958.655,7206.075,-56738.07,2.9369223370384936,5.784505500793011,4.337958523231149,-2.3515192697833154,-0.9029851289712773,-0.27586533085534637,-1.7303269238140793,1.3706951587378495,0.589537065,0.09423804,0.80590614,-6.60758,-3.17408,-3.92182,68.0
1774823367.0688536,1.0728836059570312e-05,2026-03-29T22:29:27.068,2026-03-29T18:29:27.068,-24361.2,-42710.805,-78512.48999999999,-49443.525,-9597.734999999999,-16971.39,7192.485,-56738.204999999994,1.9885665028000559,7.932623314199883,11.324390100069543,8.217714772137908,4.3197729833152465,0.6139445045480525,-1.7792646835783552,-0.8339183303811599,0.589537065,0.09423804,0.80590614,-6.60758,-3.17408,-3.92182,68.0
1774823367.0688665,1.2874603271484375e-05,2026-03-29T22:29:27.068,2026-03-29T18:29:27.068,-24369.344999999998,-42713.955,-78495.12,-49465.935,-9611.369999999999,-16984.17,7200.495,-56750.805,-0.16727000187347665,6.418161710660407,13.232713552955408,15.273224780236976,7.537748477405172,1.1487773591179515,-1.1184945697699658,-3.0616990038451752,0.59399262,0.085143825,0.8079202950000001,-0.97664,-4.21176,-6.302379999999999,68.0
1774823367.068877,1.049041748046875e-05,2026-03-29T22:29:27.068,2026-03-29T18:29:27.068,-24381.0,-42741.99,-78502.14,-49446.945,-9613.08,-16986.555,7210.17,-56757.735,-2.231298468906563,2.153355081566433,9.127696988655773,15.488771529853205,7.1570608378243765,0.8974032624906388,-0.11760733784977048,-4.016210993599124,0.59399262,0.085143825,0.8079202950000001,-0.97664,-4.21176,-6.302379999999999,68.0
1774823367.0740964,0.005219459533691406,2026-03-29T22:29:27.074,2026-03-29T18:29:27.074,-24372.989999999998,-42757.604999999996,-78511.36499999999,-49430.025,-9614.789999999999,-16986.87,7210.665,-56743.65,-2.961198470291493,-2.7524927816867857,0.8508861261470491,8.64751685145459,3.322073745216617,-0.09043027863812632,0.7771161486950383,-2.949227157905332,0.59399262,0.085143825,0.8079202950000001,-0.97664,-4.21176,-6.302379999999999,68.0
1774823367.0741155,1.9073486328125e-05,2026-03-29T22:29:27.074,2026-03-29T18:29:27.074,-24368.04,-42745.77,-78507.765,-49460.445,-9635.175,-16992.54,7204.724999999999,-56736.63,-1.8717342272607367,-6.041463099130289,-7.824391341628063,-2.2149629752460087,-2.147304893507738,-1.2843322130669241,1.2420299827734413,-0.13883179867790318,0.59399262,0.085143825,0.8079202950000001,-0.97664,-4.21176,-6.302379999999999,68.0
1774823367.0765815,0.002465963363647461,2026-03-29T22:29:27.076,2026-03-29T18:29:27.076,-24363.54,-42743.25,-78520.455,-49464.18,-9627.57,-16983.045,7208.235,-56736.134999999995,0.4814192492640137,-6.362253453897588,-12.945165382039885,-12.184417150023908,-6.6353671588943115,-1.9580840226441691,1.18432359322468,3.1573269267753674,0.59399262,0.085143825,0.8079202950000001,-0.97664,-4.21176,-6.302379999999999,68.0
1774823367.0766032,2.1696090698242188e-05,2026-03-29T22:29:27.076,2026-03-29T18:29:27.076,-24360.57,-42742.215,-78528.105,-49463.1,-9624.555,-16975.8,7213.32,-56738.43,2.7889324526317507,-3.8314018854745853,-12.208941892640137,-16.723717750946456,-7.994650628684787,-1.6057150176614616,0.7286300084723394,5.2818284491481675,0.59399262,0.085143825,0.8079202950000001,-0.97664,-4.21176,-6.302379999999999,68.0
1774823367.0808153,0.004212141036987305,2026-03-29T22:29:27.080,2026-03-29T18:29:27.080,-24372.719999999998,-42755.85,-78538.59,-49462.064999999995,-9618.975,-16972.515,7217.639999999999,-56749.32,3.696052352531701,0.136081390801647,-6.010223818692493,-13.759761845052784,-5.5772830875147505,-0.25857511386380816,0.11476542796586958,5.01471486225539,0.59399262,0.085143825,0.8079202950000001,-0.97664,-4.21176,-6.302379999999999,68.0
1774823367.0808454,3.0040740966796875e-05,2026-03-29T22:29:27.080,2026-03-29T18:29:27.080,-24369.48,-42739.515,-78510.78,-49448.7,-9612.359999999999,-16975.079999999998,7225.965,-56760.255,2.5558889034478294,3.59733436408182,2.777999584058267,-4.631146587774595,-0.5363978047731619,1.479177954741491,-0.4253881849924039,2.243680843684194,0.59399262,0.085143825,0.8079202950000001,-0.97664,-4.21176,-6.302379999999999,68.0
1774823367.0915856,0.010740280151367188,2026-03-29T22:29:27.091,2026-03-29T18:29:27.091,-24355.89,-42723.72,-78483.465,-49430.97,-9606.824999999999,-16978.725,7221.96,-56757.284999999996,-0.1770780169735528,5.0409050107379105,10.16468230523668,6.5370338024276125,4.739203886146041,2.7114272409854543,-0.7498054771451539,-1.8903323799039742,0.59399262,0.085143825,0.8079202950000001,-0.97664,-4.21176,-6.302379999999999,68.0
1774823367.091617,3.147125244140625e-05,2026-03-29T22:29:27.091,2026-03-29T18:29:27.091,-24365.835,-42745.14,-78507.98999999999,-49427.909999999996,-9602.414999999999,-16972.695,7213.95,-56760.84,-3.134440962030431,4.057224723496765,12.885218329864436,14.729612102808046,7.7731936342732615,2.7118453407431624,-0.8217632709243371,-5.475954249066392,0.59399262,0.085143825,0.8079202950000001,-0.97664,-4.21176,-6.302379999999999,68.0
1774823367.091642,2.47955322265625e-05,2026-03-29T22:29:27.091,2026-03-29T18:29:27.091,-24369.254999999997,-42749.415,-78511.59,-49408.695,-9598.77,-16976.295,7205.04,-56765.97,-4.721251804354125,1.4174955484796865,9.861850600451683,16.32187863946067,7.173498129591239,1.3285494928233712,-0.675574585312883,-6.730954798000615,0.59643402,0.080138955,0.813779655,7.56896,-3.2045999999999997,-3.815,68.0
1774823367.0916533,1.1444091796875e-05,2026-03-29T22:29:27.091,2026-03-29T18:29:27.091,-24356.879999999997,-42733.845,-78506.37,-49413.509999999995,-9606.779999999999,-16977.6,7207.29,-56763.63,-3.9571994182318493,-1.42769771461474,2.6177251471222425,10.693706730526715,3.2689652066437564,-0.8861039723459326,-0.3720580600895591,-4.888148784535107,0.59643402,0.080138955,0.813779655,7.56896,-3.2045999999999997,-3.815,68.0
1774823367.0972247,0.0055713653564453125,2026-03-29T22:29:27.097,2026-03-29T18:29:27.097,-24354.27,-42740.865,-78535.53,-49424.985,-9606.69,-16971.165,7210.755,-56760.93,-1.034898881150779,-3.13073820326439,-5.506954579671216,0.4536095568346261,-2.079086518215155,-2.9036183353519336,0.023431153178148343,-0.6274456847185093,0.59643402,0.080138955,0.813779655,7.56896,-3.2045999999999997,-3.815,68.0
1774823367.097253,2.8371810913085938e-05,2026-03-29T22:29:27.097,2026-03-29T18:29:27.097,-24358.995,-42754.005,-78556.995,-49469.085,-9626.715,-16982.73,7209.99,-56761.244999999995,2.7078753281120056,-3.09338116036451,-10.92657336146131,-9.797375869171525,-6.3803116801592115,-3.706637342162753,0.4346229797678131,4.177401279654394,0.59643402,0.080138955,0.813779655,7.56896,-3.2045999999999997,-3.815,68.0
1774823367.0972755,2.2411346435546875e-05,2026-03-29T22:29:27.097,2026-03-29T18:29:27.097,-24377.805,-42747.435,-78527.43,-49468.77,-9602.91,-16968.105,7215.75,-56781.314999999995,5.412101101159509,-1.6631734228895962,-11.415021787383909,-15.56389493603841,-7.688190727912919,-2.800208151688908,0.7607122057839035,7.300313193359042,0.59643402,0.080138955,0.813779655,7.56896,-3.2045999999999997,-3.815,68.0
1774823367.0972865,1.0967254638671875e-05,2026-03-29T22:29:27.097,2026-03-29T18:29:27.097,-24388.2,-42741.405,-78513.165,-49479.345,-9603.494999999999,-16965.855,7223.3099999999995,-56803.814999999995,5.621615287477892,0.17678499298818234,-7.014205839157845,-14.445113255563333,-5.484065086286565,-0.49078594334452924,0.8845854726758527,7.206479873100497,0.59643402,0.080138955,0.813779655,7.56896,-3.2045999999999997,-3.815,68.0
1774823367.1054745,0.008188009262084961,2026-03-29T22:29:27.105,2026-03-29T18:29:27.105,-24361.379999999997,-42732.63,-78489.0,-49450.5,-9615.914999999999,-16983.989999999998,7215.255,-56780.685,3.0478939603404367,1.412454249347163,0.1213115352084669,-7.125949737880726,-0.8697406226157208,2.216166256018767,0.7157192429253942,3.803702772640297,0.59643402,0.080138955,0.813779655,7.56896,-3.2045999999999997,-3.815,68.0
1774823367.1054993,2.47955322265625e-05,2026-03-29T22:29:27.105,2026-03-29T18:29:27.105,-24354.495,-42750.045,-78511.14,-49439.52,-9622.98,-16998.21,7207.469999999999,-56765.115,-1.219117317826197,1.5469877983302427,6.8020486694077595,3.033662469502248,3.9946684650482105,4.065154301603007,0.2511252366706602,-1.4647961959130003,0.59643402,0.080138955,0.813779655,7.56896,-3.2045999999999997,-3.815,68.0
1774823367.1055224,2.3126602172851562e-05,2026-03-29T22:29:27.105,2026-03-29T18:29:27.105,-24368.355,-42769.755,-78537.95999999999,-49453.515,-9621.855,-16993.98,7207.245,-56772.36,-5.182897562292458,0.7996814134514356,10.25469540351093,11.569867097465265,6.916414117611552,4.140309899519976,-0.38456921604593497,-6.2466023548193075,0.59643402,0.080138955,0.813779655,7.56896,-3.2045999999999997,-3.815,68.0
1774823367.105533,1.049041748046875e-05,2026-03-29T22:29:27.105,2026-03-29T18:29:27.105,-24384.105,-42771.78,-78532.56,-49459.68,-9618.48,-16975.17,7209.315,-56791.53,-6.885731442141525,-0.12369070514803161,9.273894213604795,14.898472357489181,6.666044961582544,2.315733652505735,-0.9571517074730361,-8.346582963813596,0.59643402,0.080138955,0.813779655,7.56896,-3.2045999999999997,-3.815,68.0
1774823367.1137476,0.008214712142944336,2026-03-29T22:29:27.113,2026-03-29T18:29:27.113,-24392.34,-42770.97,-78528.87,-49443.975,-9617.535,-16981.515,7218.224999999999,-56811.645,-5.375383827475731,-0.5236267822752328,4.5962480583549645,11.818897658753555,3.4881800475213995,-0.653371739518971,-1.2081592817809002,-6.743055910961153,0.59228364,0.088439715,0.814390005,9.11022,-1.7549,-6.4855,68.0
1774823367.1137817,3.409385681152344e-05,2026-03-29T22:29:27.113,2026-03-29T18:29:27.113,-24387.57,-42763.32,-78530.48999999999,-49418.64,-9608.445,-16982.864999999998,7224.12,-56813.67,-1.2159958842125502,-0.15668231839730934,-1.5889835713615077,3.908397207573786,-1.0809970924559975,-3.451962651028326,-0.9765820304709304,-2.0799834452656856,0.59228364,0.088439715,0.814390005,9.11022,-1.7549,-6.4855,68.0
1774823367.1138113,2.956390380859375e-05,2026-03-29T22:29:27.113,2026-03-29T18:29:27.113,-24370.605,-42755.534999999996,-78547.14,-49429.935,-9605.52,-16978.14,7215.48,-56798.82,3.7234916180663524,0.6253725023406084,-6.68795530704003,-5.298214806247376,-4.9680891807776195,-4.7975491672832336,-0.29720918806400504,3.5996302821121064,0.59228364,0.088439715,0.814390005,9.11022,-1.7549,-6.4855,68.0
1774823367.1138232,1.1920928955078125e-05,2026-03-29T22:29:27.113,2026-03-29T18:29:27.113,-24358.23,-42742.53,-78536.47499999999,-49443.299999999996,-9595.755,-16967.655,7203.78,-56792.07,7.123155963585004,1.1238106928053284,-8.79661922266038,-11.912152037941926,-6.513517658409113,-4.032478912875331,0.5824887249732401,7.764213200381537,0.59228364,0.088439715,0.814390005,9.11022,-1.7549,-6.4855,68.0
1774823367.119224,0.005400896072387695,2026-03-29T22:29:27.119,2026-03-29T18:29:27.119,-24358.184999999998,-42740.415,-78530.715,-49472.325,-9606.645,-16958.07,7215.12,-56793.645,7.312071900676952,0.7730580033288,-7.376404763574401,-13.338651485910589,-5.178782159960579,-1.440976520729759,1.2898978252023443,8.535258965219814,0.59228364,0.088439715,0.814390005,9.11022,-1.7549,-6.4855,68.0
1774823367.119242,1.7881393432617188e-05,2026-03-29T22:29:27.119,2026-03-29T18:29:27.119,-24352.605,-42730.74,-78495.075,-49464.045,-9594.99,-16934.579999999998,7225.155,-56799.27,4.088777856239518,-0.44362851590824304,-3.2928090180864262,-9.26857460925154,-1.709892144606638,1.8597789894761951,1.4893913586416132,5.539757646081397,0.59228364,0.088439715,0.814390005,9.11022,-1.7549,-6.4855,68.0
1774823367.1216404,0.0023984909057617188,2026-03-29T22:29:27.121,2026-03-29T18:29:27.121,-24375.87,-42748.515,-78477.3,-49430.88,-9580.365,-16928.37,7226.505,-56819.655,-1.1402205261895866,-1.9072081467656816,1.6979169584077045,-1.6500071045192304,2.2764461293354774,4.410269818056707,1.0461370329549384,0.08482907055756969,0.59228364,0.088439715,0.814390005,9.11022,-1.7549,-6.4855,68.0
1774823367.1216667,2.6226043701171875e-05,2026-03-29T22:29:27.121,2026-03-29T18:29:27.121,-24377.579999999998,-42749.505,-78467.58,-49403.79,-9585.09,-16953.345,7224.255,-56819.384999999995,-5.985944463942222,-2.680458088512427,5.715822218407957,6.262326874400997,5.056249260534452,5.061324079482098,0.10962015181113272,-5.424585639137142,0.59228364,0.088439715,0.814390005,9.11022,-1.7549,-6.4855,68.0
1774823367.1250117,0.003345012664794922,2026-03-29T22:29:27.125,2026-03-29T18:29:27.125,-24387.66,-42742.89,-78491.52,-49406.265,-9591.39,-16970.715,7212.735,-56825.82,-8.183006034041197,-2.0661535295948408,7.4373351037974595,11.308073777178144,5.546793288499858,3.4940983182847054,-0.9322539902301404,-8.560075691817467,0.59228364,0.088439715,0.814390005,9.11022,-1.7549,-6.4855,68.0
1774823367.125028,1.621246337890625e-05,2026-03-29T22:29:27.125,2026-03-29T18:29:27.125,-24369.885,-42723.72,-78488.64,-49423.005,-9600.795,-16977.149999999998,7208.1449999999995,-56820.284999999996,-6.658077505999694,-0.08714347728714841,6.4591554500954995,11.664464489682565,3.7144984478666543,0.3716586491283589,-1.6168406571326341,-7.9501615783006185,0.59228364,0.088439715,0.814390005,9.11022,-1.7549,-6.4855,68.0
1774823367.1289687,0.0039408206939697266,2026-03-29T22:29:27.128,2026-03-29T18:29:27.128,-24345.495,-42704.549999999996,-78465.23999999999,-49427.28,-9600.705,-16970.13,7214.804999999999,-56803.994999999995,-2.0530927575401994,2.407905382959191,3.2950128711496816,7.453614178189139,0.4969144107641345,-2.9477314690271688,-1.6173103499274026,-3.8820328900007053,0.588438435,0.10400364000000001,0.81347448,1.11398,-3.8760399999999997,-6.53128,68.0
1774823367.1289957,2.6941299438476562e-05,2026-03-29T22:29:27.128,2026-03-29T18:29:27.128,-24345.09,-42715.53,-78475.68,-49432.86,-9607.005,-16985.07,7209.855,-56798.46,3.5513247020576126,4.114424683605201,-0.9003334517771024,0.5434646080094204,-2.679445965460995,-5.008588355869025,-0.901682664539539,1.839781314359152,0.588438435,0.10400364000000001,0.81347448,1.11398,-3.8760399999999997,-6.53128,68.0
1774823367.1356795,0.006683826446533203,2026-03-29T22:29:27.135,2026-03-29T18:29:27.135,-24345.0,-42724.17,-78488.19,-49433.13,-9605.115,-16986.42,7211.835,-56791.305,7.589988906301334,3.95315575534844,-4.729856345459007,-6.294069405698915,-4.536954964820727,-4.9012478549360035,0.2383065586207068,6.705772114499329,0.588438435,0.10400364000000001,0.81347448,1.11398,-3.8760399999999997,-6.53128,68.0
1774823367.1357183,3.886222839355469e-05,2026-03-29T22:29:27.135,2026-03-29T18:29:27.135,-24363.09,-42744.104999999996,-78513.93,-49444.92,-9612.63,-16987.454999999998,7215.884999999999,-56801.295,8.201328316680145,1.7072639065368673,-6.952012471265299,-10.481969884678625,-4.453230837292945,-2.664264859523764,1.307985344989476,8.613997464970677,0.588438435,0.10400364000000001,0.81347448,1.11398,-3.8760399999999997,-6.53128,68.0
1774823367.145634,0.009915590286254883,2026-03-29T22:29:27.145,2026-03-29T18:29:27.145,-24375.69,-42754.409999999996,-78527.06999999999,-49470.615,-9635.039999999999,-16992.495,7223.3099999999995,-56816.729999999996,5.093460231806569,-1.7457082056826165,-6.809293553227367,-10.565811941630763,-2.6400592525534106,0.731667408602106,1.8288623522968515,6.784611806791714,0.588438435,0.10400364000000001,0.81347448,1.11398,-3.8760399999999997,-6.53128,68.0
1774823367.1456602,2.6226043701171875e-05,2026-03-29T22:29:27.145,2026-03-29T18:29:27.145,-24367.454999999998,-42751.575,-78528.42,-49469.354999999996,-9619.244999999999,-16962.93,7229.88,-56812.049999999996,-0.3179634398091623,-4.774445050052092,-4.25143399461429,-6.662288773634485,0.03696649801150382,3.8100151015444457,1.556608212143965,2.0759300517664427,0.588438435,0.10400364000000001,0.81347448,1.11398,-3.8760399999999997,-6.53128,68.0
1774823367.1456819,2.1696090698242188e-05,2026-03-29T22:29:27.145,2026-03-29T18:29:27.145,-24371.28,-42746.67,-78518.43,-49437.63,-9586.08,-16943.22,7222.41,-56823.659999999996,-5.564538053557219,-5.775574599254433,-0.010384913243452974,-0.32685976836767194,2.4752312710198967,5.235549274448583,0.5966853799917373,-3.42438575661484,0.588438435,0.10400364000000001,0.81347448,1.11398,-3.8760399999999997,-6.53128,68.0
1774823367.1456892,7.3909759521484375e-06,2026-03-29T22:29:27.145,2026-03-29T18:29:27.145,-24366.375,-42751.305,-78518.655,-49428.99,-9586.755,-16951.364999999998,7219.035,-56812.68,-8.265432679104189,-4.016796296320154,4.531645653767065,6.058481978581448,3.7865262683166865,4.396859543226165,-0.6374231701162395,-7.335860330871036,0.588438435,0.10400364000000001,0.81347448,1.11398,-3.8760399999999997,-6.53128,68.0
1774823367.1456969,7.62939453125e-06,2026-03-29T22:29:27.145,2026-03-29T18:29:27.145,-24369.57,-42752.744999999995,-78511.995,-49431.24,-9590.4,-16951.815,7216.605,-56809.395,-7.22047482785311,-0.1002722296156056,7.716769720626913,10.140655870550399,3.6003636074631484,1.6691576694200505,-1.6059722997131523,-8.024746923625326,0.588438435,0.10400364000000001,0.81347448,1.11398,-3.8760399999999997,-6.53128,68.0
1774823367.1457028,5.9604644775390625e-06,2026-03-29T22:29:27.145,2026-03-29T18:29:27.145,-24370.515,-42749.505,-78513.48,-49455.72,-9612.494999999999,-16967.52,7219.304999999999,-56812.905,-2.9488930782977993,4.2263058159492815,8.178447302287816,10.41084402792717,2.1280279811504283,-1.7554655473093894,-1.8827143061694047,-5.288775504068524,0.588438435,0.10400364000000001,0.81347448,1.11398,-3.8760399999999997,-6.53128,68.0
1774823367.1498325,0.004129648208618164,2026-03-29T22:29:27.149,2026-03-29T18:29:27.149,-24366.059999999998,-42747.615,-78519.285,-49460.58,-9620.279999999999,-16980.075,7216.425,-56809.89,2.5703053760371217,6.861437449607109,5.429871903900236,6.728742356246644,0.0071152464438475746,-4.392714813521994,-1.3442214664859415,-0.39936718531273635,0.593321235,0.10400364000000001,0.8058451050000001,-5.66146,-2.79258,-3.02148,68.0
1774823367.1498437,1.1205673217773438e-05,2026-03-29T22:29:27.149,2026-03-29T18:29:27.149,-24357.239999999998,-42748.02,-78524.145,-49457.564999999995,-9622.619999999999,-16990.065,7209.63,-56800.17,6.825865834628105,6.379670480454668,0.21870441032489718,0.39390979925198405,-1.974895300054021,-5.11345338228197,-0.2239119656418052,4.495272365687475,0.593321235,0.10400364000000001,0.8058451050000001,-5.66146,-2.79258,-3.02148,68.0
1774823367.153623,0.0037794113159179688,2026-03-29T22:29:27.153,2026-03-29T18:29:27.153,-24337.934999999998,-42729.03,-78500.295,-49455.27,-9627.074999999999,-16993.665,7209.585,-56780.28,7.930579922976921,2.7907848099092205,-5.579070730300743,-6.271625848517105,-3.1585557108915503,-3.630087405925746,0.9921326593961974,7.323547813121894,0.593321235,0.10400364000000001,0.8058451050000001,-5.66146,-2.79258,-3.02148,68.0
1774823367.1536655,4.2438507080078125e-05,2026-03-29T22:29:27.153,2026-03-29T18:29:27.153,-24328.71,-42715.35,-78476.04,-49448.88,-9629.82,-16992.315,7205.58,-56769.075,5.468232263063734,-2.3713892083246675,-9.58891743511229,-10.721503091120018,-3.2026509111748735,-0.6115242369593509,1.779303135190763,6.97323430734514,0.593321235,0.10400364000000001,0.8058451050000001,-5.66146,-2.79258,-3.02148,68.0
1774823367.1567016,0.003036022186279297,2026-03-29T22:29:27.156,2026-03-29T18:29:27.156,-24342.614999999998,-42743.79,-78512.44499999999,-49457.79,-9626.895,-16993.215,7202.88,-56779.92,0.6469019256507544,-6.712463718110128,-9.907140883266976,-11.121937757981005,-2.150708999092714,2.6192333406910446,1.8024330614216884,3.724974363194986,0.593321235,0.10400364000000001,0.8058451050000001,-5.66146,-2.79258,-3.02148,68.0
1774823367.1567223,2.0742416381835938e-05,2026-03-29T22:29:27.156,2026-03-29T18:29:27.156,-24366.195,-42756.705,-78521.265,-49452.345,-9620.955,-16992.045,7199.009999999999,-56801.115,-4.2957435797385575,-8.101722684545749,-6.015203014982311,-7.103759549447109,-0.38382068187429513,4.667967775500708,1.057714923033494,-0.9302247887122228,0.593321235,0.10400364000000001,0.8058451050000001,-5.66146,-2.79258,-3.02148,68.0
1774823367.1608517,0.0041294097900390625,2026-03-29T22:29:27.160,2026-03-29T18:29:27.160,-24386.579999999998,-42756.255,-78519.19499999999,-49435.47,-9599.175,-16973.145,7206.3,-56828.835,-7.141561724128092,-5.722676278438069,0.8059413434143656,-0.023173626699750788,1.5072169156608055,4.674820454717266,-0.13093263888586895,-4.98144067204636,0.593321235,0.10400364000000001,0.8058451050000001,-5.66146,-2.79258,-3.02148,68.0
1774823367.160872,2.0265579223632812e-05,2026-03-29T22:29:27.160,2026-03-29T18:29:27.160,-24389.594999999998,-42754.185,-78515.145,-49421.564999999995,-9583.38,-16958.835,7215.57,-56837.88,-6.699186192051875,-0.5298793464342968,7.837010776918127,7.434180895926281,2.8941570141852866,2.6781287264811997,-1.2556172518030655,-6.774046288966475,0.593321235,0.10400364000000001,0.8058451050000001,-5.66146,-2.79258,-3.02148,68.0
1774823367.174562,0.013689994812011719,2026-03-29T22:29:27.174,2026-03-29T18:29:27.174,-24369.795,-42754.095,-78521.44499999999,-49442.265,-9600.39,-16970.579999999998,7218.585,-56813.805,-3.307052882513041,5.135289245370428,11.99453122613823,12.231151173149637,3.294124753190382,-0.41862937630953906,-1.8429395780764175,-5.686677207170576,0.593321235,0.10400364000000001,0.8058451050000001,-5.66146,-2.79258,-3.02148,68.0
1774823367.1746247,6.270408630371094e-05,2026-03-29T22:29:27.174,2026-03-29T18:29:27.174,-24368.355,-42757.064999999995,-78524.415,-49452.84,-9610.425,-16977.6,7215.12,-56807.954999999994,1.3819264473674824,8.613663254194106,11.198306883721157,12.206939634830364,2.5261006212690598,-3.256004098569819,-1.652409376929161,-2.331665670063537,0.593321235,0.10400364000000001,0.8058451050000001,-5.66146,-2.79258,-3.02148,68.0
1774823367.1746683,4.363059997558594e-05,2026-03-29T22:29:27.174,2026-03-29T18:29:27.174,-24387.704999999998,-42762.96,-78522.48,-49425.705,-9587.609999999999,-16961.76,7215.705,-56833.47,5.208083373628877,8.187209842598687,5.417295115799799,7.063502667608094,0.7968508187008395,-4.618593653927384,-0.7722053849301097,1.7769911307260597,0.594419865,0.09606909,0.799741605,-1.6175599999999999,-0.74774,-2.10588,68.0
1774823367.174682,1.3589859008789062e-05,2026-03-29T22:29:27.174,2026-03-29T18:29:27.174,-24380.504999999997,-42763.905,-78525.62999999999,-49393.979999999996,-9579.51,-16964.19,7213.95,-56824.515,6.509372321470454,3.926796740388883,-3.1351453666062157,-1.3464242435615468,-1.3266053684640617,-3.9599082605963707,0.4241415946347759,4.91253259990162,0.594419865,0.09606909,0.799741605,-1.6175599999999999,-0.74774,-2.10588,68.0
1774823367.1746998,1.7881393432617188e-05,2026-03-29T22:29:27.174,2026-03-29T18:29:27.174,-24372.855,-42757.155,-78555.23999999999,-49428.134999999995,-9605.115,-16980.39,7212.014999999999,-56813.13,4.851254702264787,-2.2890046394812362,-10.83027828158547,-9.637114808393235,-3.0771526416931447,-1.6236444130817245,1.4376235265597193,5.865326522014366,0.594419865,0.09606909,0.799741605,-1.6175599999999999,-0.74774,-2.10588,68.0
1774823367.1747115,1.1682510375976562e-05,2026-03-29T22:29:27.174,2026-03-29T18:29:27.174,-24379.245,-42757.784999999996,-78565.545,-49453.29,-9598.095,-16965.18,7217.55,-56818.89,1.1582337596749313,-7.613024088753481,-14.176124981068087,-14.238188932949678,-3.7516787304179626,1.3293303765710995,1.8509797049427277,4.403448633031528,0.594419865,0.09606909,0.799741605,-1.6175599999999999,-0.74774,-2.10588,68.0
1774823367.1788986,0.004187107086181641,2026-03-29T22:29:27.178,2026-03-29T18:29:27.178,-24360.165,-42742.53,-78533.055,-49464.72,-9588.645,-16951.05,7225.38,-56803.005,-2.7844202282262493,-9.545725451942433,-11.421332656543356,-12.94464513953828,-2.9953884004720273,3.603469176683847,1.4977557679828255,1.2919157695734933,0.594419865,0.09606909,0.799741605,-1.6175599999999999,-0.74774,-2.10588,68.0
1774823367.1789129,1.430511474609375e-05,2026-03-29T22:29:27.178,2026-03-29T18:29:27.178,-24357.645,-42747.165,-78532.065,-49515.299999999996,-9629.685,-16982.954999999998,7216.785,-56791.215,-5.195953203263681,-7.114095381672737,-3.4639865312693385,-5.989038444759514,-0.9899464927664263,4.240859594353574,0.5263334673177776,-2.100754082300672,0.594419865,0.09606909,0.799741605,-1.6175599999999999,-0.74774,-2.10588,68.0
1774823367.1810184,0.0021054744720458984,2026-03-29T22:29:27.181,2026-03-29T18:29:27.181,-24370.469999999998,-42730.38,-78480.765,-49476.42,-9634.635,-16988.309999999998,7214.13,-56818.619999999995,-5.111985126753421,-1.3548579613952034,6.403795875829047,3.8930215746616494,1.5550013704715546,3.0288767309731046,-0.6638297125064144,-4.408754988396808,0.594419865,0.09606909,0.799741605,-1.6175599999999999,-0.74774,-2.10588,68.0
1774823367.1810353,1.6927719116210938e-05,2026-03-29T22:29:27.181,2026-03-29T18:29:27.181,-24364.8,-42718.68,-78438.95999999999,-49400.1,-9602.234999999999,-16973.145,7216.11,-56819.295,-2.769658360954763,5.13472434225007,13.865426262310793,12.51773100805777,3.6375225449813122,0.5677166618160296,-1.5855349258169802,-4.817541128274979,0.594419865,0.09606909,0.799741605,-1.6175599999999999,-0.74774,-2.10588,68.0
1774823367.2167635,0.03572821617126465,2026-03-29T22:29:27.216,2026-03-29T18:29:27.216,-24358.184999999998,-42722.865,-78460.245,-49419.27,-9597.015,-16971.345,7217.46,-56807.685,0.5871049964330605,9.379216825094145,15.488493617541637,16.03334776736296,4.356849938456371,-2.022153737169887,-1.8604815645132207,-3.335230933135866,0.594419865,0.09606909,0.799741605,-1.6175599999999999,-0.74774,-2.10588,68.0
1774823367.2167852,2.1696090698242188e-05,2026-03-29T22:29:27.216,2026-03-29T18:29:27.216,-24362.19,-42735.15,-78481.98,-49433.805,-9604.35,-16981.245,7215.075,-56809.89,3.3548856228095314,9.3964541139678,10.317404903233532,12.663355725034664,3.3101820265263693,-3.6118047886459808,-1.3714751953465942,-0.7056834946541939,0.594419865,0.09606909,0.799741605,-1.6175599999999999,-0.74774,-2.10588,68.0
1774823367.2168033,1.811981201171875e-05,2026-03-29T22:29:27.216,2026-03-29T18:29:27.216,-24358.77,-42751.08,-78506.055,-49426.74,-9598.32,-16977.059999999998,7218.315,-56802.915,4.338309252064814,5.1225527716590324,0.40407128866244907,3.611841089428174,0.8142480786472911,-3.5603661999043545,-0.31076094267655113,1.9609653703529015,0.59850921,0.09252906,0.79565226,2.0295799999999997,-0.07629999999999999,-2.86888,68.0
1774823367.2168105,7.152557373046875e-06,2026-03-29T22:29:27.216,2026-03-29T18:29:27.216,-24351.84,-42771.869999999995,-78538.995,-49433.85,-9596.835,-16973.28,7218.99,-56791.305,3.2696654931433713,-1.5403322356074298,-10.007206757774584,-7.334036967134325,-2.168787067259979,-1.975809664504563,0.8945317922421769,3.6580547275190085,0.59850921,0.09252906,0.79565226,2.0295799999999997,-0.07629999999999999,-2.86888,68.0
1774823367.2168183,7.867813110351562e-06,2026-03-29T22:29:27.216,2026-03-29T18:29:27.216,-24369.795,-42811.695,-78575.12999999999,-49450.59,-9609.525,-16983.0,7210.035,-56797.604999999996,0.8535039274108375,-7.579642083662527,-16.314519466170893,-15.393278825228776,-4.398416361533392,0.36751494777508475,1.751485739871084,3.853236001746724,0.59850921,0.09252906,0.79565226,2.0295799999999997,-0.07629999999999999,-2.86888,68.0
1774823367.2168245,6.198883056640625e-06,2026-03-29T22:29:27.216,2026-03-29T18:29:27.216,-24396.75,-42819.57,-78573.87,-49450.14,-9609.3,-16977.465,7204.95,-56812.409999999996,-1.6501260365417612,-10.241383075420499,-15.609419738714877,-16.90224042447694,-4.877423217265234,2.404033382015732,1.8997773853235493,2.6289064946099114,0.59850921,0.09252906,0.79565226,2.0295799999999997,-0.07629999999999999,-2.86888,68.0
1774823367.216832,7.3909759521484375e-06,2026-03-29T22:29:27.216,2026-03-29T18:29:27.216,-24408.09,-42785.549999999996,-78549.12,-49447.979999999996,-9610.695,-16977.51,7207.74,-56824.74,-3.070878573350115,-8.286876296952562,-8.021289224853797,-11.00344727360367,-3.305406923155457,3.2641799098592617,1.2613580774511253,0.5721892059943252,0.59850921,0.09252906,0.79565226,2.0295799999999997,-0.07629999999999999,-2.86888,68.0
1774823367.2168376,5.7220458984375e-06,2026-03-29T22:29:27.216,2026-03-29T18:29:27.216,-24385.59,-42765.255,-78540.165,-49441.005,-9601.92,-16970.445,7213.23,-56817.494999999995,-2.8754685413204233,-2.563852620429479,3.2676289924125093,-0.12179599061257707,-0.25425383682617503,2.6495788951315657,0.08027861363203587,-1.504213351406523,0.59850921,0.09252906,0.79565226,2.0295799999999997,-0.07629999999999999,-2.86888,68.0
1774823367.2168443,6.67572021484375e-06,2026-03-29T22:29:27.216,2026-03-29T18:29:27.216,-24372.809999999998,-42759.854999999996,-78527.97,-49435.02,-9590.94,-16969.005,7210.53,-56810.159999999996,-1.3611348000457884,4.368037645148647,13.369970358686933,11.032357881144723,3.0327088571010314,0.9322867704316993,-1.1672678228532145,-2.8783330120781394,0.59850921,0.09252906,0.79565226,2.0295799999999997,-0.07629999999999999,-2.86888,68.0
1774823367.2168498,5.4836273193359375e-06,2026-03-29T22:29:27.216,2026-03-29T18:29:27.216,-24360.254999999997,-42726.51,-78495.84,-49455.854999999996,-9603.045,-16980.57,7208.91,-56806.155,0.5708174055619568,9.387481649014708,17.824510190080858,17.52291095935034,5.1509091572508785,-1.0529199618073672,-1.9615297783469205,-3.1520018207159817,0.59850921,0.09252906,0.79565226,2.0295799999999997,-0.07629999999999999,-2.86888,68.0
1774823367.216857,7.152557373046875e-06,2026-03-29T22:29:27.216,2026-03-29T18:29:27.216,-24346.665,-42696.405,-78474.42,-49449.509999999995,-9612.63,-16994.25,7213.32,-56798.1,1.9174929146021211,10.217594466925565,14.573177499263688,16.39874573856149,5.1424129683923825,-2.412575203829454,-1.9537148288061743,-2.3361312959929488,0.59850921,0.09252906,0.79565226,2.0295799999999997,-0.07629999999999999,-2.86888,68.0
1774823367.2168624,5.4836273193359375e-06,2026-03-29T22:29:27.216,2026-03-29T18:29:27.216,-24341.399999999998,-42704.28,-78490.935,-49474.395,-9632.295,-17000.595,7220.07,-56792.07,2.083288469357396,6.454490278962716,4.904756759910932,8.05177337227777,2.9343810220080555,-2.5997406278003306,-1.1190451174148541,-0.7905630398235179,0.59850921,0.09252906,0.79565226,2.0295799999999997,-0.07629999999999999,-2.86888,68.0
1774823367.216869,6.67572021484375e-06,2026-03-29T22:29:27.216,2026-03-29T18:29:27.216,-24343.739999999998,-42722.865,-78507.495,-49484.295,-9623.43,-16983.54,7219.44,-56789.28,1.1410808974527302,-0.24336306331675764,-7.06296238305452,-3.910710085541905,-0.5949938007195497,-1.634971725861338,0.2187947960756032,0.9313203502530307,0.6008895750000001,0.096008055,0.7974833100000001,2.76206,0.9003399999999999,-0.82404,68.0
1774823367.2168746,5.4836273193359375e-06,2026-03-29T22:29:27.216,2026-03-29T18:29:27.216,-24339.195,-42722.549999999996,-78495.75,-49471.83,-9621.585,-16985.16,7217.054999999999,-56783.384999999995,-0.2674582063169602,-6.889717074097068,-16.14843046368995,-14.242620094205513,-3.966964008207673,-0.05301931396287988,1.5092496279971734,2.2676550612106094,0.6008895750000001,0.096008055,0.7974833100000001,2.76206,0.9003399999999999,-0.82404,68.0
1774823367.2168815,6.9141387939453125e-06,2026-03-29T22:29:27.216,2026-03-29T18:29:27.216,-24337.35,-42726.78,-78489.18,-49460.49,-9632.07,-16997.85,7219.035,-56776.77,-1.3164566186282418,-10.501303210377529,-18.355409990654998,-18.385986268939178,-5.728039756600989,1.3821346371942578,2.19920471229582,2.8088012522685886,0.6008895750000001,0.096008055,0.7974833100000001,2.76206,0.9003399999999999,-0.82404,68.0
1774823367.2168868,5.245208740234375e-06,2026-03-29T22:29:27.216,2026-03-29T18:29:27.216,-24345.989999999998,-42745.635,-78514.73999999999,-49464.405,-9629.64,-16988.579999999998,7220.969999999999,-56778.704999999994,-1.4492446448164176,-9.432288472785281,-12.62721040354554,-14.50233706264098,-5.082807351216965,2.0457566791976505,1.9699266103961075,2.4019303291896126,0.6008895750000001,0.096008055,0.7974833100000001,2.76206,0.9003399999999999,-0.82404,68.0
1774823367.216894,7.152557373046875e-06,2026-03-29T22:29:27.216,2026-03-29T18:29:27.216,-24352.559999999998,-42740.46,-78505.33499999999,-49457.43,-9614.205,-16972.739999999998,7215.929999999999,-56788.29,-0.6612889276278058,-4.118600134044832,-1.3392517905113874,-4.292717508328908,-2.2551444158221696,1.7264411217578954,0.8852026505377188,1.1860987492235244,0.6008895750000001,0.096008055,0.7974833100000001,2.76206,0.9003399999999999,-0.82404,68.0
1774823367.2168996,5.7220458984375e-06,2026-03-29T22:29:27.216,2026-03-29T18:29:27.216,-24368.94,-42741.27,-78491.16,-49436.415,-9594.81,-16960.59,7215.929999999999,-56803.545,0.5267405312677572,3.1007727350452075,10.692231673390717,7.7613016154498355,1.5868753559616684,0.6842655882668209,-0.6187054209490086,-0.44565318183646496,0.6008895750000001,0.096008055,0.7974833100000001,2.76206,0.9003399999999999,-0.82404,68.0
1774823367.2209883,0.004088640213012695,2026-03-29T22:29:27.220,2026-03-29T18:29:27.220,-24368.985,-42758.145,-78508.89,-49422.689999999995,-9585.81,-16956.045,7218.945,-56797.515,1.3782997840303348,9.010939966785676,18.267005779438087,16.38941211175872,4.817889175934117,-0.517486116991451,-1.9058333984914622,-1.9535447785013957,0.6008895750000001,0.096008055,0.7974833100000001,2.76206,0.9003399999999999,-0.82404,68.0
1774823367.2210107,2.2411346435546875e-05,2026-03-29T22:29:27.221,2026-03-29T18:29:27.221,-24375.239999999998,-42780.645,-78550.515,-49422.465,-9596.115,-16973.055,7209.9,-56796.075,1.358929160949655,10.946953306872187,18.044035113021117,17.859012898043723,6.048303504307005,-1.3084098896140421,-2.4091640938818037,-2.81136875318976,0.6008895750000001,0.096008055,0.7974833100000001,2.76206,0.9003399999999999,-0.82404,68.0
1774823367.224824,0.0038132667541503906,2026-03-29T22:29:27.224,2026-03-29T18:29:27.224,-24376.094999999998,-42782.085,-78578.19,-49430.655,-9595.305,-16974.495,7209.045,-56795.67,0.4372185205747418,7.98957877223193,10.007227398426107,11.597941699367352,4.725143584677974,-1.3818871271677784,-1.8818564914179372,-2.6833336282889277,0.6008895750000001,0.096008055,0.7974833100000001,2.76206,0.9003399999999999,-0.82404,68.0
1774823367.224851,2.6941299438476562e-05,2026-03-29T22:29:27.224,2026-03-29T18:29:27.224,-24368.535,-42757.244999999995,-78558.3,-49439.43,-9592.38,-16969.905,7210.8,-56793.689999999995,-0.8906690875492341,1.398291483695844,-2.4834351956225267,0.40421561258908817,1.3795511094461204,-0.8116852230311501,-0.518976761012622,-1.5614563264961758,0.6008895750000001,0.096008055,0.7974833100000001,2.76206,0.9003399999999999,-0.82404,68.0
1774823367.2293935,0.00454258918762207,2026-03-29T22:29:27.229,2026-03-29T18:29:27.229,-24355.98,-42740.549999999996,-78533.685,-49480.515,-9614.295,-16985.745,7209.855,-56785.725,-1.8650340166904538,-5.920296446770463,-14.092911432860832,-10.825581456060426,-2.5889546744124106,0.029084699761837012,1.1107203699145503,0.1960088272731995,0.6005844,0.09472632,0.7985209050000001,0.51884,3.92182,0.15259999999999999,68.0
1774823367.229419,2.5510787963867188e-05,2026-03-29T22:29:27.229,2026-03-29T18:29:27.229,-24344.594999999998,-42740.82,-78524.28,-49526.055,-9629.55,-16985.34,7215.57,-56769.119999999995,-1.8758456047759537,-10.686742234966726,-19.781933490322512,-17.260326476439086,-5.501923552544588,0.6885275668024099,2.3015288543725148,1.9606843811694854,0.6005844,0.09472632,0.7985209050000001,0.51884,3.92182,0.15259999999999999,68.0
1774823367.232988,0.0035691261291503906,2026-03-29T22:29:27.232,2026-03-29T18:29:27.232,-24330.015,-42728.31,-78485.12999999999,-49482.09,-9628.92,-16993.755,7215.974999999999,-56754.09,-0.8074214620843627,-10.71158605270539,-16.986611398168964,-16.22297256974735,-6.114603287946989,0.8725233507934527,2.5178978975025226,3.0508065141956306,0.6005844,0.09472632,0.7985209050000001,0.51884,3.92182,0.15259999999999999,68.0
1774823367.233009,2.09808349609375e-05,2026-03-29T22:29:27.233,2026-03-29T18:29:27.233,-24321.105,-42714.18,-78445.305,-49390.02,-9599.805,-16994.43,7204.815,-56748.689999999995,0.8691623789725994,-5.898422406018813,-6.7701343792291615,-8.29578557226681,-4.147962750486378,0.5753657597257869,1.637505254804381,2.997998459288953,0.6005844,0.09472632,0.7985209050000001,0.51884,3.92182,0.15259999999999999,68.0
1774823367.2381375,0.005128383636474609,2026-03-29T22:29:27.238,2026-03-29T18:29:27.238,-24311.43,-42720.795,-78468.795,-49393.53,-9614.52,-17018.505,7190.91,-56736.314999999995,2.3114369989691643,1.6704349677006742,6.567452085805288,3.0087411680398946,-0.4130956622549937,0.04645454243695131,0.018849286033718268,1.7575505808422358,0.6005844,0.09472632,0.7985209050000001,0.51884,3.92182,0.15259999999999999,68.0
1774823367.2381487,1.1205673217773438e-05,2026-03-29T22:29:27.238,2026-03-29T18:29:27.238,-24322.68,-42736.77,-78495.61499999999,-49418.595,-9636.615,-17028.18,7193.384999999999,-56738.295,2.7266931921141238,8.625221340290913,17.285798656830384,12.82456890680521,3.5257819513141335,-0.37520271730774823,-1.6434692123910801,-0.23643661279856756,0.6005844,0.09472632,0.7985209050000001,0.51884,3.92182,0.15259999999999999,68.0
1774823367.2413468,0.0031981468200683594,2026-03-29T22:29:27.241,2026-03-29T18:29:27.241,-24331.725,-42736.814999999995,-78500.61,-49429.755,-9636.705,-17023.545,7192.215,-56741.085,1.7893202135037587,11.801117833921513,20.664812054222374,17.038158955353587,6.008088061295265,-0.4593197163573474,-2.6180996892651196,-2.213636652282095,0.6005844,0.09472632,0.7985209050000001,0.51884,3.92182,0.15259999999999999,68.0
1774823367.2413585,1.1682510375976562e-05,2026-03-29T22:29:27.241,2026-03-29T18:29:27.241,-24359.94,-42742.755,-78500.47499999999,-49443.75,-9611.505,-16993.934999999998,7199.955,-56763.72,-0.1589552611786093,9.675702830912382,15.081799682783576,14.006700193369277,5.976831145306907,-0.20505156491183926,-2.461312953735877,-3.3661693111450117,0.6005844,0.09472632,0.7985209050000001,0.51884,3.92182,0.15259999999999999,68.0
1774823367.246058,0.0046994686126708984,2026-03-29T22:29:27.246,2026-03-29T18:29:27.246,-24400.395,-42760.845,-78500.34,-49429.125,-9561.869999999999,-16940.565,7217.865,-56809.35,-2.236307503470474,3.1005139672581166,2.7936151531904496,5.174633570256907,3.4271498082018623,0.17768371019541096,-1.2212544758757211,-3.186571382729563,0.6005844,0.09472632,0.7985209050000001,0.51884,3.92182,0.15259999999999999,68.0
1774823367.2460887,3.075599670410156e-05,2026-03-29T22:29:27.246,2026-03-29T18:29:27.246,-24383.79,-42772.59,-78520.23,-49447.935,-9587.52,-16959.329999999998,7221.285,-56791.034999999996,-3.426050333775092,-5.025641536227923,-10.954082383047242,-5.627992386815539,-0.5856439715661523,0.4082238723165418,0.5730144398708543,-1.6995391648347817,0.6005844,0.09472632,0.7985209050000001,0.51884,3.92182,0.15259999999999999,68.0
1774823367.2528799,0.006791114807128906,2026-03-29T22:29:27.252,2026-03-29T18:29:27.252,-24361.2,-42774.705,-78540.93,-49457.34,-9606.465,-16971.345,7221.285,-56762.415,-3.0712239017722323,-11.02532046332393,-20.15187512381935,-13.857983687755251,-4.383238866639455,0.31159613748051695,2.1379592855243663,0.5220251536567185,0.59826507,0.097106685,0.7958964000000001,-5.0358,4.2728,-0.6714399999999999,68.0
1774823367.2529087,2.8848648071289062e-05,2026-03-29T22:29:27.252,2026-03-29T18:29:27.252,-24347.655,-42773.985,-78573.465,-49482.945,-9630.449999999999,-16987.815,7220.61,-56746.17,-1.2194851651186835,-12.103577801462587,-20.651594205537975,-16.166199338422267,-6.365313893516197,-0.07154869832177399,2.78027125600204,2.5768169574580218,0.59826507,0.097106685,0.7958964000000001,-5.0358,4.2728,-0.6714399999999999,68.0
1774823367.2529352,2.6464462280273438e-05,2026-03-29T22:29:27.252,2026-03-29T18:29:27.252,-24358.995,-42774.39,-78576.705,-49461.975,-9601.785,-16969.995,7220.16,-56763.18,1.3564152165122538,-7.653439217594832,-12.047434403048658,-11.741513487723804,-5.682276742735368,-0.5048823307999993,2.206986009875209,3.6064622393691064,0.59826507,0.097106685,0.7958964000000001,-5.0358,4.2728,-0.6714399999999999,68.0
1774823367.2529476,1.239776611328125e-05,2026-03-29T22:29:27.252,2026-03-29T18:29:27.252,-24367.545,-42771.465,-78553.935,-49461.165,-9586.89,-16950.105,7229.745,-56773.35,3.486925480007001,0.40569244993251774,2.0441653768452777,-2.5637158349249445,-2.598206832017016,-0.6952268654399459,0.6609110268386555,3.1621920889380912,0.59826507,0.097106685,0.7958964000000001,-5.0358,4.2728,-0.6714399999999999,68.0
1774823367.2569487,0.004001140594482422,2026-03-29T22:29:27.256,2026-03-29T18:29:27.256,-24362.145,-42763.68,-78520.00499999999,-49479.345,-9605.43,-16959.42,7234.11,-56765.25,4.14070387331839,8.444252418721467,15.48423651525044,7.492043125785542,1.6100513199883686,-0.4713328106934775,-1.1820718962894134,1.406281606488115,0.59826507,0.097106685,0.7958964000000001,-5.0358,4.2728,-0.6714399999999999,68.0
1774823367.256968,1.9311904907226562e-05,2026-03-29T22:29:27.256,2026-03-29T18:29:27.256,-24353.504999999997,-42725.43,-78472.08,-49464.72,-9613.845,-16971.075,7219.71,-56757.689999999995,2.9204901417280418,12.753483536777685,22.281372243718195,14.289338161988832,5.179504262094345,0.10038076544841715,-2.5105038082305393,-0.9444910102639905,0.59826507,0.097106685,0.7958964000000001,-5.0358,4.2728,-0.6714399999999999,68.0
1774823367.2611136,0.004145622253417969,2026-03-29T22:29:27.261,2026-03-29T18:29:27.261,-24340.454999999998,-42706.125,-78459.75,-49433.265,-9604.529999999999,-16977.105,7213.724999999999,-56749.095,0.28333186385459047,11.260887393959361,19.274918825955083,15.115855494351257,6.5972950793940175,0.7328726692671671,-2.7377740686125422,-2.9147018149076063,0.59826507,0.097106685,0.7958964000000001,-5.0358,4.2728,-0.6714399999999999,68.0
1774823367.261142,2.8371810913085938e-05,2026-03-29T22:29:27.261,2026-03-29T18:29:27.261,-24341.219999999998,-42715.665,-78473.52,-49440.195,-9608.355,-16982.73,7214.535,-56746.665,-2.6302725403010045,4.534695158207106,7.624446246489571,9.743213342534478,5.240671069858436,1.0652709898335273,-1.7639388063649102,-3.6812385289387675,0.59826507,0.097106685,0.7958964000000001,-5.0358,4.2728,-0.6714399999999999,68.0
1774823367.2654564,0.004314422607421875,2026-03-29T22:29:27.265,2026-03-29T18:29:27.265,-24354.675,-42725.564999999995,-78480.09,-49438.71,-9606.465,-16981.605,7216.5599999999995,-56757.195,-4.494556826315593,-4.413555666405869,-7.605966952433597,0.4605544028311354,1.650903149722984,0.8633863828979433,-0.020793585663718903,-2.923035774756979,0.59826507,0.097106685,0.7958964000000001,-5.0358,4.2728,-0.6714399999999999,68.0
1774823367.265486,2.956390380859375e-05,2026-03-29T22:29:27.265,2026-03-29T18:29:27.265,-24350.265,-42736.994999999995,-78503.715,-49451.265,-9613.26,-16985.745,7213.5,-56750.22,-4.404813713574397,-11.472670228264608,-19.64031012988379,-8.899275556805684,-2.679320073038753,0.1646506434108489,1.7206505249890196,-0.9584343927415436,0.59826507,0.097106685,0.7958964000000001,-5.0358,4.2728,-0.6714399999999999,68.0
1774823367.2832367,0.01775074005126953,2026-03-29T22:29:27.283,2026-03-29T18:29:27.283,-24358.95,-42761.205,-78531.795,-49449.555,-9603.18,-16975.575,7212.735,-56752.38,-2.3140523616149546,-13.325493841513687,-23.016946051750605,-14.528052113171006,-5.923346507921766,-0.7163417752339418,2.6939737274835083,1.38940728874407,0.597349545,0.09899877,0.793455,-8.27092,4.1202,-0.6714399999999999,68.0
1774823367.283256,1.9311904907226562e-05,2026-03-29T22:29:27.283,2026-03-29T18:29:27.283,-24361.649999999998,-42772.814999999995,-78546.915,-49459.365,-9604.98,-16975.395,7218.179999999999,-56747.88,0.9093671310301166,-9.018298172838165,-16.092235236959162,-14.172053181221392,-6.689373742944909,-1.3335058695191813,2.4778711259775434,3.1411170532305728,0.597349545,0.09899877,0.793455,-8.27092,4.1202,-0.6714399999999999,68.0
1774823367.2832744,1.8358230590820312e-05,2026-03-29T22:29:27.283,2026-03-29T18:29:27.283,-24363.45,-42759.45,-78531.39,-49453.56,-9600.795,-16976.204999999998,7218.99,-56755.395,3.844454611277788,-0.4578764237515098,-1.8616212153492768,-8.020585521695164,-4.618238261123665,-1.3367941280694504,1.1806334707212915,3.574026280313276,0.597349545,0.09899877,0.793455,-8.27092,4.1202,-0.6714399999999999,68.0
1774823367.2832823,7.867813110351562e-06,2026-03-29T22:29:27.283,2026-03-29T18:29:27.283,-24364.844999999998,-42742.305,-78507.135,-49441.455,-9592.335,-16972.695,7215.705,-56764.439999999995,5.148819800909907,8.425966514436956,13.32185021415337,1.3891365017373545,-0.5533022917630509,-0.6649401172403128,-0.6131770448185123,2.5233630717435487,0.597349545,0.09899877,0.793455,-8.27092,4.1202,-0.6714399999999999,68.0
1774823367.2832909,8.58306884765625e-06,2026-03-29T22:29:27.283,2026-03-29T18:29:27.283,-24362.46,-42739.83,-78500.79,-49454.729999999996,-9598.59,-16974.63,7209.54,-56761.335,4.176767751941191,13.489158847835075,22.592417751120678,10.205255524717872,3.79859097495141,0.4004982751304546,-2.1079341168060206,0.44524615524371075,0.597349545,0.09899877,0.793455,-8.27092,4.1202,-0.6714399999999999,68.0
1774823367.283298,7.152557373046875e-06,2026-03-29T22:29:27.283,2026-03-29T18:29:27.283,-24354.675,-42735.96,-78484.545,-49447.71,-9598.815,-16973.1,7213.815,-56752.829999999994,1.2985599268264687,12.319036301392506,21.702669924490284,14.82005890058796,6.581311772398597,1.3558148421157281,-2.652914565420669,-1.7821516827413755,0.597349545,0.09899877,0.793455,-8.27092,4.1202,-0.6714399999999999,68.0
1774823367.2833064,8.344650268554688e-06,2026-03-29T22:29:27.283,2026-03-29T18:29:27.283,-24355.395,-42740.01,-78474.06,-49402.395,-9589.41,-16975.26,7209.764999999999,-56753.595,-2.236732810429702,5.397169851714275,11.000025543431292,13.334282880078161,6.581500853567355,1.7172971771706929,-2.028381888606582,-3.2317762451375533,0.597349545,0.09899877,0.793455,-8.27092,4.1202,-0.6714399999999999,68.0
1774823367.283314,7.62939453125e-06,2026-03-29T22:29:27.283,2026-03-29T18:29:27.283,-24355.98,-42742.215,-78506.055,-49421.61,-9595.664999999999,-16974.585,7215.21,-56750.534999999996,-4.846634512104766,-4.087993412512662,-4.686454874198382,6.339632381390623,3.760486624831486,1.2666316850642174,-0.534740077013592,-3.315676737385653,0.597349545,0.09899877,0.793455,-8.27092,4.1202,-0.6714399999999999,68.0
1774823367.2849655,0.0016515254974365234,2026-03-29T22:29:27.284,2026-03-29T18:29:27.284,-24359.355,-42745.994999999995,-78534.94499999999,-49465.259999999995,-9604.845,-16967.385,7220.655,-56751.119999999995,-5.330151927669533,-11.713249299349032,-18.228302721014224,-3.303632478236387,-0.7085144497178738,0.1749127117579898,1.1516955210367112,-2.02486829633892,0.597349545,0.09899877,0.793455,-8.27092,4.1202,-0.6714399999999999,68.0
1774823367.2849765,1.0967254638671875e-05,2026-03-29T22:29:27.284,2026-03-29T18:29:27.284,-24348.329999999998,-42734.744999999995,-78515.28,-49471.155,-9610.515,-16973.954999999998,7218.585,-56743.604999999996,-3.4270873549348555,-13.896852447712535,-23.462078909763214,-11.619039368381939,-4.9249350720778216,-1.0624807412944295,2.287126366904514,0.07683492402725614,0.597349545,0.09899877,0.793455,-8.27092,4.1202,-0.6714399999999999,68.0
1774823367.2921836,0.007207155227661133,2026-03-29T22:29:27.292,2026-03-29T18:29:27.292,-24346.98,-42737.445,-78517.17,-49486.68,-9622.08,-16986.87,7214.67,-56738.43,0.04123481747526878,-9.597799558153895,-18.02907396131142,-15.14241597842966,-7.069036201842444,-1.854937443383183,2.3912602224556188,2.0982530806241266,0.597837825,0.09582495,0.7971171,-6.928039999999999,3.8760399999999997,-1.4802199999999999,68.0
1774823367.2921977,1.4066696166992188e-05,2026-03-29T22:29:27.292,2026-03-29T18:29:27.292,-24349.995,-42742.034999999996,-78512.355,-49477.5,-9621.63,-16986.465,7217.325,-56736.765,3.526179916750303,-0.8234180505665427,-4.464623675172321,-12.366330585166809,-6.190294458880241,-1.8015794781617336,1.4522550327121608,3.1989604591154635,0.597837825,0.09582495,0.7971171,-6.928039999999999,3.8760399999999997,-1.4802199999999999,68.0
1774823367.293497,0.0012993812561035156,2026-03-29T22:29:27.293,2026-03-29T18:29:27.293,-24340.905,-42726.645,-78480.27,-49439.07,-9612.81,-16986.555,7216.335,-56735.055,5.4491216053659395,8.308270312604273,10.979855373002088,-4.397451247610052,-2.6329445906350104,-0.8932527021557407,-0.08264852825770706,2.939899229146858,0.597837825,0.09582495,0.7971171,-6.928039999999999,3.8760399999999997,-1.4802199999999999,68.0
1774823367.2935057,8.58306884765625e-06,2026-03-29T22:29:27.293,2026-03-29T18:29:27.293,-24342.165,-42725.34,-78475.77,-49427.189999999995,-9599.265,-16980.93,7210.08,-56740.814999999995,4.9260487950436795,13.514020417004918,21.23797278094549,5.466792791576794,2.0939941239447792,0.46990119798439944,-1.5203449513115683,1.4602301912927493,0.597837825,0.09582495,0.7971171,-6.928039999999999,3.8760399999999997,-1.4802199999999999,68.0
1774823367.302453,0.008947372436523438,2026-03-29T22:29:27.302,2026-03-29T18:29:27.302,-24345.585,-42729.165,-78483.51,-49431.104999999996,-9597.195,-16978.725,7210.304999999999,-56742.299999999996,2.1831052101296167,12.373758695930444,21.696890083658392,13.091559586150689,5.9561534941902865,1.6584766943706273,-2.237144705642551,-0.5912216575377837,0.597837825,0.09582495,0.7971171,-6.928039999999999,3.8760399999999997,-1.4802199999999999,68.0
1774823367.3024948,4.172325134277344e-05,2026-03-29T22:29:27.302,2026-03-29T18:29:27.302,-24350.67,-42737.985,-78490.89,-49420.35,-9590.4,-16976.745,7212.105,-56743.2,-1.536260390707201,5.471848243725925,12.303913585962814,15.239252533878549,7.27231938837114,2.108460483483922,-1.9516791569231133,-2.3379778148728865,0.597837825,0.09582495,0.7971171,-6.928039999999999,3.8760399999999997,-1.4802199999999999,68.0
1774823367.3025312,3.647804260253906e-05,2026-03-29T22:29:27.302,2026-03-29T18:29:27.302,-24361.155,-42772.545,-78529.995,-49414.409999999996,-9585.225,-16971.84,7217.865,-56742.615,-4.537476833185454,-3.895428786594418,-2.467634736903974,10.957174313442463,5.451200215273144,1.5906042677114072,-0.8349660914586939,-3.0501196556912356,0.597837825,0.09582495,0.7971171,-6.928039999999999,3.8760399999999997,-1.4802199999999999,68.0
1774823367.3025477,1.6450881958007812e-05,2026-03-29T22:29:27.302,2026-03-29T18:29:27.302,-24367.14,-42787.26,-78550.11,-49419.27,-9600.885,-16982.64,7215.974999999999,-56742.84,-5.456108977116963,-11.303276688892943,-15.75819744622758,2.0162696997265597,1.2610005016016343,0.3250356513092048,0.5852102330638187,-2.4515265775244663,0.597837825,0.09582495,0.7971171,-6.928039999999999,3.8760399999999997,-1.4802199999999999,68.0
1774823367.3058343,0.003286600112915039,2026-03-29T22:29:27.305,2026-03-29T18:29:27.305,-24368.67,-42787.665,-78554.025,-49444.965,-9615.555,-16985.34,7215.795,-56742.93,-3.8903888529550024,-13.308212274841717,-21.539624808550016,-7.809572926994025,-3.493220232594773,-1.1153217493364926,1.674269283136723,-0.8301896292022184,0.597837825,0.09582495,0.7971171,-6.928039999999999,3.8760399999999997,-1.4802199999999999,68.0
1774823367.30585,1.5735626220703125e-05,2026-03-29T22:29:27.305,2026-03-29T18:29:27.305,-24351.254999999997,-42753.555,-78528.06,-49465.395,-9611.279999999999,-16976.385,7214.13,-56735.82,-0.58645564930524,-9.06901175109207,-17.38578188981718,-14.337613350505153,-6.749897622341368,-2.0684745053838274,1.9764916006779718,1.0940979299607392,0.597837825,0.09582495,0.7971171,-6.928039999999999,3.8760399999999997,-1.4802199999999999,68.0
1774823367.3097706,0.003920555114746094,2026-03-29T22:29:27.309,2026-03-29T18:29:27.309,-24341.715,-42743.159999999996,-78523.29,-49470.119999999995,-9615.69,-16982.415,7214.3099999999995,-56729.61,2.913779557637213,-0.7056305665450775,-5.504296513479693,-14.770177693345108,-7.090400309002424,-2.0906606481679737,1.406838364788851,2.4864225909606157,0.595396425,0.092468025,0.80261025,-5.24944,5.4020399999999995,-1.31236,68.0
1774823367.3097856,1.5020370483398438e-05,2026-03-29T22:29:27.309,2026-03-29T18:29:27.309,-24339.239999999998,-42734.43,-78509.295,-49459.14,-9606.824999999999,-16978.184999999998,7215.389999999999,-56728.935,4.997778700487036,7.761130412711573,8.417787120150233,-8.91185372838977,-4.362319580699714,-1.1630708851760758,0.26768933602286255,2.7600603435106894,0.595396425,0.092468025,0.80261025,-5.24944,5.4020399999999995,-1.31236,68.0
1774823367.3133729,0.0035872459411621094,2026-03-29T22:29:27.313,2026-03-29T18:29:27.313,-24332.219999999998,-42718.77,-78492.23999999999,-49453.965,-9601.605,-16972.965,7219.755,-56726.82,4.737412919104151,12.359100179390987,17.958251403336693,0.7296252771020599,0.2501395169547497,0.2984093383217241,-0.9078291955371275,1.8281537456877646,0.595396425,0.092468025,0.80261025,-5.24944,5.4020399999999995,-1.31236,68.0
1774823367.313394,2.1219253540039062e-05,2026-03-29T22:29:27.313,2026-03-29T18:29:27.313,-24326.19,-42716.25,-78489.54,-49473.314999999995,-9617.76,-16983.0,7214.67,-56719.89,2.315119795274282,11.050737976317684,18.959230414836316,10.016883235703094,4.7425121239723635,1.6340726054802086,-1.6060759042031967,0.13380463913332466,0.595396425,0.092468025,0.80261025,-5.24944,5.4020399999999995,-1.31236,68.0
1774823367.3170865,0.0036923885345458984,2026-03-29T22:29:27.317,2026-03-29T18:29:27.317,-24329.43,-42723.225,-78485.44499999999,-49454.909999999996,-9607.815,-16975.89,7209.63,-56718.27,-1.0805102776413482,4.649423886053564,11.362956168910213,14.971795500453705,7.167105890028053,2.2421100531905775,-1.5588836813403972,-1.5541530502060537,0.595396425,0.092468025,0.80261025,-5.24944,5.4020399999999995,-1.31236,68.0
1774823367.3171089,2.2411346435546875e-05,2026-03-29T22:29:27.317,2026-03-29T18:29:27.317,-24351.21,-42741.45,-78493.275,-49440.509999999995,-9601.02,-16972.38,7215.75,-56734.604999999996,-3.836104022868944,-3.6532331426618736,-0.9396337067171099,13.49940377794636,6.484042253707487,1.8512428873348352,-0.8451756449116574,-2.4883528566776696,0.595396425,0.092468025,0.80261025,-5.24944,5.4020399999999995,-1.31236,68.0
1774823367.3213203,0.00421142578125,2026-03-29T22:29:27.321,2026-03-29T18:29:27.321,-24359.805,-42754.77,-78513.20999999999,-49448.025,-9608.445,-16982.055,7215.75,-56739.465,-4.688274963406982,-9.88573583971175,-12.098982649460636,6.289035456223815,3.010932016730808,0.6399856510825842,0.16957310476491982,-2.277136302063863,0.595396425,0.092468025,0.80261025,-5.24944,5.4020399999999995,-1.31236,68.0
1774823367.321351,3.075599670410156e-05,2026-03-29T22:29:27.321,2026-03-29T18:29:27.321,-24373.395,-42749.685,-78496.785,-49421.115,-9579.42,-16956.36,7220.5199999999995,-56761.92,-3.316211793619137,-11.217277164649119,-17.118713482024056,-3.503815433516654,-1.7255047785297182,-0.8490498984795029,1.0177963023668124,-1.0548465703179686,0.595396425,0.092468025,0.80261025,-5.24944,5.4020399999999995,-1.31236,68.0
1774823367.3280153,0.006664276123046875,2026-03-29T22:29:27.328,2026-03-29T18:29:27.328,-24359.805,-42734.744999999995,-78479.86499999999,-49406.625,-9566.955,-16946.415,7226.009999999999,-56752.424999999996,-0.4680669824515552,-7.262216386764455,-14.123171918533844,-11.65063467949667,-5.666562519046409,-1.9568248349008088,1.3460629062136185,0.5890005888253551,0.595396425,0.092468025,0.80261025,-5.24944,5.4020399999999995,-1.31236,68.0
1774823367.3280416,2.6226043701171875e-05,2026-03-29T22:29:27.328,2026-03-29T18:29:27.328,-24352.469999999998,-42731.28,-78478.605,-49415.939999999995,-9582.57,-16963.739999999998,7220.384999999999,-56741.31,2.4324528367592952,-0.15802948487301688,-5.036108187508026,-14.697093140126935,-7.124326530773993,-2.202262348105585,1.062691857996927,1.8885164417750429,0.595396425,0.092468025,0.80261025,-5.24944,5.4020399999999995,-1.31236,68.0
1774823367.3280706,2.9087066650390625e-05,2026-03-29T22:29:27.328,2026-03-29T18:29:27.328,-24361.155,-42752.655,-78511.59,-49451.805,-9608.94,-16982.145,7216.2,-56742.615,3.9974563664470417,6.575559821152799,5.563759621109025,-11.446200526212,-5.510158614788118,-1.4904866476926226,0.3549359638540793,2.258564939207965,0.59484711,0.097228755,0.810605835,-8.179359999999999,6.4855,-0.763,68.0
1774823367.3280883,1.7642974853515625e-05,2026-03-29T22:29:27.328,2026-03-29T18:29:27.328,-24350.805,-42743.34,-78505.83,-49457.88,-9611.865,-16977.239999999998,7218.585,-56733.615,3.548623891345816,9.793042656696674,12.759291333552339,-3.4302341791288056,-1.5713082668674174,-0.1450588071493597,-0.4215578061182013,1.5633781527237824,0.59484711,0.097228755,0.810605835,-8.179359999999999,6.4855,-0.763,68.0
1774823367.3336034,0.005515098571777344,2026-03-29T22:29:27.333,2026-03-29T18:29:27.333,-24343.155,-42742.17,-78503.175,-49429.485,-9596.52,-16974.809999999998,7217.73,-56725.56,1.421938868754399,8.213134474228212,13.607165628258569,5.816757994152717,2.9593725512825757,1.243992221714383,-0.9195655300696726,0.17076408884849503,0.59484711,0.097228755,0.810605835,-8.179359999999999,6.4855,-0.763,68.0
1774823367.3336332,2.9802322387695312e-05,2026-03-29T22:29:27.333,2026-03-29T18:29:27.333,-24353.145,-42771.015,-78548.67,-49419.27,-9593.145,-16983.09,7210.844999999999,-56727.765,-1.2388885856149106,2.9268510810948545,8.343511250550982,12.338290514106502,6.134713564415627,2.082796505935322,-0.9561184188647812,-1.2327751346524465,0.59484711,0.097228755,0.810605835,-8.179359999999999,6.4855,-0.763,68.0
1774823367.3372216,0.003588438034057617,2026-03-29T22:29:27.337,2026-03-29T18:29:27.337,-24354.045,-42784.83,-78587.145,-49442.445,-9604.305,-16989.84,7211.79,-56721.869999999995,-3.084423227754227,-3.2771924383660616,-0.012642650736780872,13.470211676387562,6.637890850913498,2.028134941217476,-0.5771142220279943,-1.9765287288253943,0.59484711,0.097228755,0.810605835,-8.179359999999999,6.4855,-0.763,68.0
1774823367.3372412,1.9550323486328125e-05,2026-03-29T22:29:27.337,2026-03-29T18:29:27.337,-24355.125,-42787.755,-78591.375,-49479.705,-9630.855,-17007.93,7207.065,-56721.015,-3.2444794284436025,-7.377130390397004,-7.341912612309705,8.935896324375685,4.329864517081218,1.1243872083142132,-0.009306692268278793,-1.7279407301987408,0.59484711,0.097228755,0.810605835,-8.179359999999999,6.4855,-0.763,68.0
1774823367.3425848,0.00534367561340332,2026-03-29T22:29:27.342,2026-03-29T18:29:27.342,-24352.92,-42771.96,-78564.23999999999,-49503.645,-9635.039999999999,-17003.52,7210.9349999999995,-56724.93,-1.7477139683998517,-7.6055886959438554,-10.473451617854545,0.8668964679682958,0.27081119789294533,-0.22986412222274602,0.46660108706383047,-0.6466801267522456,0.59484711,0.097228755,0.810605835,-8.179359999999999,6.4855,-0.763,68.0
1774823367.3426027,1.7881393432617188e-05,2026-03-29T22:29:27.342,2026-03-29T18:29:27.342,-24356.43,-42763.725,-78551.64,-49506.255,-9618.705,-16974.899999999998,7215.525,-56744.145,0.5307981981655854,-4.221361961802778,-8.572981541617006,-7.213836700977966,-3.7749326696096923,-1.4624252194152463,0.6535015712492406,0.7038271016065404,0.59484711,0.097228755,0.810605835,-8.179359999999999,6.4855,-0.763,68.0
1774823367.3477752,0.0051724910736083984,2026-03-29T22:29:27.347,2026-03-29T18:29:27.347,-24331.86,-42760.17,-78531.97499999999,-49485.33,-9628.965,-16981.515,7217.235,-56718.045,2.3551894512290437,0.7769966410620823,-3.2538673427928115,-11.954457671404123,-6.115728707509375,-2.071224769591187,0.5190493719271588,1.6425043085241318,0.59484711,0.097228755,0.810605835,-8.179359999999999,6.4855,-0.763,68.0
1774823367.3477895,1.430511474609375e-05,2026-03-29T22:29:27.347,2026-03-29T18:29:27.347,-24338.024999999998,-42754.095,-78498.675,-49440.869999999995,-9613.529999999999,-16983.18,7215.795,-56716.92,2.7864827633980123,4.786054455908268,2.5159176353596977,-11.57696428016017,-5.844201299542844,-1.8263443976159086,0.1872122786913301,1.711600288531874,0.59484711,0.097228755,0.810605835,-8.179359999999999,6.4855,-0.763,68.0
1774823367.3478034,1.3828277587890625e-05,2026-03-29T22:29:27.347,2026-03-29T18:29:27.347,-24357.645,-42734.34,-78495.795,-49466.07,-9605.205,-16970.579999999998,7216.335,-56739.42,1.6664728949154881,5.952666517711953,6.039621377401459,-6.525706091760261,-3.1815974056188434,-0.8503275889697149,-0.14571430917972997,0.9022569910016651,0.591856395,0.102721905,0.81225378,-10.2242,7.5079199999999995,1.38866,68.0
1774823367.34781,6.67572021484375e-06,2026-03-29T22:29:27.347,2026-03-29T18:29:27.347,-24347.79,-42719.715,-78485.67,-49467.33,-9609.795,-16972.965,7216.469999999999,-56735.189999999995,-0.3222153258907374,4.044375579646937,6.17124307897779,0.8655687432040478,0.6721574596396385,0.44740441684662413,-0.3201824746970362,-0.3480255801767515,0.591856395,0.102721905,0.81225378,-10.2242,7.5079199999999995,1.38866,68.0
1774823367.353197,0.005387067794799805,2026-03-29T22:29:27.353,2026-03-29T18:29:27.353,-24350.129999999997,-42727.635,-78479.91,-49442.174999999996,-9597.734999999999,-16966.485,7219.844999999999,-56740.59,-2.0444366837901478,0.4198281776463974,3.6328179369388787,7.473351220392047,4.089853621026978,1.5455973300309331,-0.28916911091481284,-1.3839573417849875,0.591856395,0.102721905,0.81225378,-10.2242,7.5079199999999995,1.38866,68.0
1774823367.3532236,2.6464462280273438e-05,2026-03-29T22:29:27.353,2026-03-29T18:29:27.353,-24347.34,-42735.015,-78475.23,-49416.84,-9587.835,-16962.03,7220.34,-56735.235,-2.5370374766317534,-2.825155867631376,0.3172345174706488,10.72254117008862,5.711531928748054,2.019171480627451,-0.12483165455924118,-1.6704330261621285,0.591856395,0.102721905,0.81225378,-10.2242,7.5079199999999995,1.38866,68.0
1774823367.3575935,0.004369974136352539,2026-03-29T22:29:27.357,2026-03-29T18:29:27.357,-24348.195,-42736.095,-78471.98999999999,-49415.895,-9588.105,-16963.829999999998,7222.815,-56730.689999999995,-1.533688040424192,-4.032701822566888,-1.9302251076673578,9.579895323360995,4.981652842461822,1.6978734166443334,0.0403099618494874,-1.0672075190802697,0.591856395,0.102721905,0.81225378,-10.2242,7.5079199999999995,1.38866,68.0
1774823367.357606,1.239776611328125e-05,2026-03-29T22:29:27.357,2026-03-29T18:29:27.357,-24347.52,-42732.09,-78477.48,-49439.115,-9601.02,-16968.78,7220.429999999999,-56731.86,0.3915001864430902,-2.8337563759836337,-2.3224383601588063,4.8239342282121225,2.318394418821082,0.7196642285368066,0.09921699679062183,0.10069119466395564,0.591856395,0.102721905,0.81225378,-10.2242,7.5079199999999995,1.38866,68.0
1774823367.362004,0.0043981075286865234,2026-03-29T22:29:27.362,2026-03-29T18:29:27.362,-24341.715,-42726.015,-78475.31999999999,-49441.455,-9609.57,-16984.215,7213.23,-56731.095,2.139167776512001,-0.23646750259603513,-1.3860999826504783,-1.440535044468353,-1.1235944965236289,-0.5328786798729617,0.032723052822094964,1.2134340741297471,0.591856395,0.102721905,0.81225378,-10.2242,7.5079199999999995,1.38866,68.0
1774823367.362023,1.9073486328125e-05,2026-03-29T22:29:27.362,2026-03-29T18:29:27.362,-24345.045,-42734.07,-78486.39,-49445.235,-9613.755,-16992.0,7209.495,-56730.689999999995,2.690281241333393,2.052639844106439,-0.3912482676712931,-6.735447584927493,-3.963940279861199,-1.5818343562692152,-0.08591839449003329,1.6802637656315935,0.591856395,0.102721905,0.81225378,-10.2242,7.5079199999999995,1.38866,68.0
1774823367.3655345,0.0035114288330078125,2026-03-29T22:29:27.365,2026-03-29T18:29:27.365,-24352.425,-42755.174999999996,-78514.73999999999,-49452.435,-9612.404999999999,-16988.94,7211.16,-56727.945,1.6759816733899975,2.6597563735885865,-0.3715352365231654,-9.187847230045156,-5.149810488149679,-2.030767979094993,-0.1443031017875652,1.2492571687442613,0.591856395,0.102721905,0.81225378,-10.2242,7.5079199999999995,1.38866,68.0
1774823367.3655553,2.0742416381835938e-05,2026-03-29T22:29:27.365,2026-03-29T18:29:27.365,-24359.129999999997,-42763.229999999996,-78523.65,-49449.24,-9605.654999999999,-16981.92,7215.929999999999,-56728.53,-0.3990358551485561,1.333079208903511,-1.3747875698506853,-8.147371266544166,-4.329723684906211,-1.7067994189485864,-0.06853003184046348,0.14151152576511378,0.591856395,0.102721905,0.81225378,-10.2242,7.5079199999999995,1.38866,68.0
1774823367.377653,0.012097597122192383,2026-03-29T22:29:27.377,2026-03-29T18:29:27.377,-24362.415,-42767.055,-78533.81999999999,-49463.505,-9614.609999999999,-16986.825,7213.86,-56729.295,-2.408196693981147,-0.9507015804999722,-2.4205360556682805,-4.265554708434729,-1.9243159992657128,-0.7215625606609615,0.12216305663647166,-1.0616562838973713,0.590269485,0.100890855,0.811216185,-14.115499999999999,6.271859999999999,0.48832,68.0
1774823367.3776736,2.0742416381835938e-05,2026-03-29T22:29:27.377,2026-03-29T18:29:27.377,-24349.905,-42754.455,-78512.31,-49452.705,-9609.029999999999,-16982.055,7215.57,-56720.43,-3.2042824250601467,-2.6088542135119903,-2.194739476374217,0.8969922497144752,1.0955782305331991,0.5670397375415237,0.3180792265303491,-1.7216452076919095,0.590269485,0.100890855,0.811216185,-14.115499999999999,6.271859999999999,0.48832,68.0
1774823367.377694,2.0265579223632812e-05,2026-03-29T22:29:27.377,2026-03-29T18:29:27.377,-24345.315,-42747.075,-78496.92,-49441.005,-9602.595,-16978.274999999998,7215.525,-56715.57,-2.2531544220883784,-2.434695650867721,-0.04600016678493025,5.505006102022019,3.604425212839286,1.679049970010268,0.3803640329721412,-1.4787301829484876,0.590269485,0.100890855,0.811216185,-14.115499999999999,6.271859999999999,0.48832,68.0
1774823367.3777008,6.9141387939453125e-06,2026-03-29T22:29:27.377,2026-03-29T18:29:27.377,-24341.355,-42749.189999999995,-78507.94499999999,-49443.975,-9603.225,-16978.23,7209.585,-56711.25,0.042851667475749394,-0.3647205041730374,3.3618609063575335,8.062227128703004,4.727746425772285,2.1828713757650027,0.22755547824866904,-0.4453522325246541,0.590269485,0.100890855,0.811216185,-14.115499999999999,6.271859999999999,0.48832,68.0
1774823367.377709,8.106231689453125e-06,2026-03-29T22:29:27.377,2026-03-29T18:29:27.377,-24336.855,-42751.35,-78527.06999999999,-49459.229999999996,-9613.664999999999,-16987.545,7205.13,-56707.2,2.5174915795688815,2.4247212544502172,6.208346138265636,7.821288450283376,4.119333726221806,1.8563196529977517,-0.10290852015642087,0.8467257508208896,0.590269485,0.100890855,0.811216185,-14.115499999999999,6.271859999999999,0.48832,68.0
1774823367.3777149,5.9604644775390625e-06,2026-03-29T22:29:27.377,2026-03-29T18:29:27.377,-24334.965,-42757.2,-78541.02,-49476.195,-9629.279999999999,-17000.46,7201.889999999999,-56699.729999999996,3.8342983205245296,4.1678165406410415,6.480331543765501,4.9272662178900966,2.0389316071302734,0.7820076848898934,-0.4574899953652337,1.7207176285574424,0.590269485,0.100890855,0.811216185,-14.115499999999999,6.271859999999999,0.48832,68.0
1774823367.3813288,0.0036139488220214844,2026-03-29T22:29:27.381,2026-03-29T18:29:27.381,-24342.254999999997,-42755.58,-78532.065,-49478.04,-9624.24,-16991.954999999998,7211.5199999999995,-56701.395,3.1987990592459674,3.5537292131596896,3.2341774754308292,0.32369780127927744,-0.7660074463644272,-0.6626249402626028,-0.6388211272749954,1.7091932631207427,0.590269485,0.100890855,0.811216185,-14.115499999999999,6.271859999999999,0.48832,68.0
1774823367.3813577,2.8848648071289062e-05,2026-03-29T22:29:27.381,2026-03-29T18:29:27.381,-24343.829999999998,-42741.405,-78504.75,-49459.455,-9611.595,-16981.515,7218.495,-56706.84,0.8132708240978779,0.5715880935749421,-2.587427681767861,-4.51760406403988,-3.317111345796624,-1.9278790167700524,-0.5132009535638891,0.8031701801459854,0.590269485,0.100890855,0.811216185,-14.115499999999999,6.271859999999999,0.48832,68.0
1774823367.3858585,0.004500865936279297,2026-03-29T22:29:27.385,2026-03-29T18:29:27.385,-24360.39,-42748.47,-78503.535,-49451.805,-9605.205,-16976.61,7215.66,-56724.255,-2.178177147563224,-3.3492895518649526,-8.341375517821739,-7.988410922528796,-4.71868171005896,-2.493355991424206,-0.09591891695023465,-0.5365840129524098,0.590269485,0.100890855,0.811216185,-14.115499999999999,6.271859999999999,0.48832,68.0
1774823367.3858745,1.5974044799804688e-05,2026-03-29T22:29:27.385,2026-03-29T18:29:27.385,-24371.19,-42751.034999999996,-78500.43,-49441.455,-9595.26,-16968.285,7218.36,-56739.915,-4.245545510552681,-6.031738198937396,-10.900473328658089,-8.805032939040183,-4.444295445423619,-2.0791553231837665,0.4360381660668699,-1.6152306518873651,0.590269485,0.100890855,0.811216185,-14.115499999999999,6.271859999999999,0.48832,68.0
1774823367.3892796,0.0034050941467285156,2026-03-29T22:29:27.389,2026-03-29T18:29:27.389,-24367.5,-42761.205,-78515.325,-49443.57,-9597.33,-16971.434999999998,7216.335,-56734.2,-4.256933905066872,-5.737079580404238,-8.332787312657247,-6.453902144599788,-2.5219483872026576,-0.7826460150760305,0.8189585007705139,-1.8658397546616374,0.591001905,0.093078375,0.81103308,-13.94764,3.78448,-0.06104,68.0
1774823367.3893104,3.075599670410156e-05,2026-03-29T22:29:27.389,2026-03-29T18:29:27.389,-24361.2,-42766.784999999996,-78527.97,-49445.955,-9596.16,-16969.274999999998,7216.695,-56726.685,-2.08843715203263,-2.207486919568271,-1.1497003790365719,-1.4849571740551084,0.43977109533620873,0.9254856069996807,0.8334913890316737,-1.1488352454318862,0.591001905,0.093078375,0.81103308,-13.94764,3.78448,-0.06104,68.0
1774823367.3934076,0.0040972232818603516,2026-03-29T22:29:27.393,2026-03-29T18:29:27.393,-24350.309999999998,-42757.47,-78523.02,-49455.09,-9598.095,-16968.285,7219.349999999999,-56717.369999999995,1.264945205885657,3.033145670608897,7.625114841679062,4.505989358548677,3.4121245733342804,2.362480248284915,0.4267816466354118,0.1695815099508899,0.591001905,0.093078375,0.81103308,-13.94764,3.78448,-0.06104,68.0
1774823367.393442,3.4332275390625e-05,2026-03-29T22:29:27.393,2026-03-29T18:29:27.393,-24341.895,-42740.865,-78498.62999999999,-49451.67,-9600.074999999999,-16970.94,7219.17,-56709.36,4.153387058920193,7.343977456199316,13.738053017623157,9.303631260196488,5.272089114368054,2.902767959675379,-0.24075647989173704,1.4042380660678944,0.591001905,0.093078375,0.81103308,-13.94764,3.78448,-0.06104,68.0
1774823367.3973577,0.0039157867431640625,2026-03-29T22:29:27.397,2026-03-29T18:29:27.397,-24335.82,-42721.47,-78473.655,-49428.81,-9589.32,-16965.18,7218.855,-56705.354999999996,5.091666407381019,8.30438318956539,13.790717837677253,10.851590210434471,5.209814211735687,2.251294411735943,-0.8563853511910815,1.9080444574753341,0.591001905,0.093078375,0.81103308,-13.94764,3.78448,-0.06104,68.0
1774823367.3973775,1.9788742065429688e-05,2026-03-29T22:29:27.397,2026-03-29T18:29:27.397,-24338.34,-42729.84,-78487.785,-49424.58,-9584.055,-16962.614999999998,7215.75,-56703.24,3.523980441789668,5.043755743808823,7.0954212003457915,8.13356066773228,3.0796482339667746,0.6010319840520677,-1.10193083451039,1.4132297783910126,0.591001905,0.093078375,0.81103308,-13.94764,3.78448,-0.06104,68.0
1774823367.4047172,0.0073397159576416016,2026-03-29T22:29:27.404,2026-03-29T18:29:27.404,-24351.48,-42750.27,-78512.76,-49446.72,-9598.095,-16971.3,7210.98,-56705.715,0.14012004494217828,-1.1556051847384263,-3.699600444183321,1.7799498735957338,-0.45669642509830777,-1.40836612979211,-0.8176322739336781,0.17646401608993093,0.591001905,0.093078375,0.81103308,-13.94764,3.78448,-0.06104,68.0
1774823367.40475,3.2901763916015625e-05,2026-03-29T22:29:27.404,2026-03-29T18:29:27.404,-24352.875,-42750.314999999995,-78509.06999999999,-49454.82,-9604.755,-16974.09,7213.275,-56702.7,-3.432088796582038,-7.356722518156254,-13.649160952320603,-5.943928035143458,-4.094712494156672,-2.933484890752368,-0.09908466564470539,-1.1514223318255674,0.591001905,0.093078375,0.81103308,-13.94764,3.78448,-0.06104,68.0
1774823367.4047813,3.123283386230469e-05,2026-03-29T22:29:27.404,2026-03-29T18:29:27.404,-24351.39,-42751.125,-78514.37999999999,-49468.77,-9619.92,-16987.635,7212.915,-56699.82,-5.419083027985416,-10.377057181614184,-17.81144298508002,-11.88972177384326,-6.346242816154491,-3.2825136167310527,0.7288722673044216,-1.8660170453776692,0.591001905,0.093078375,0.81103308,-13.94764,3.78448,-0.06104,68.0
1774823367.4047928,1.1444091796875e-05,2026-03-29T22:29:27.404,2026-03-29T18:29:27.404,-24347.204999999998,-42744.375,-78502.455,-49448.97,-9604.395,-16978.905,7210.485,-56695.5,-4.789206214023774,-8.4246183198166,-13.723564803970204,-13.302250065572444,-6.1445573768957855,-2.232832228527209,1.258289653715387,-1.582877568224312,0.591001905,0.093078375,0.81103308,-13.94764,3.78448,-0.06104,68.0
1774823367.4133735,0.008580684661865234,2026-03-29T22:29:27.413,2026-03-29T18:29:27.413,-24344.55,-42734.159999999996,-78480.72,-49423.095,-9588.33,-16970.22,7209.8099999999995,-56688.345,-1.7888328465032397,-2.1188637894904496,-2.80313060929837,-9.106845376500042,-3.3513751293698077,-0.16314283664545076,1.1989661845329986,-0.44645537195784474,0.592222605,0.08593728,0.81408483,-16.14508,2.1364,-1.77016,68.0
1774823367.4133923,1.8835067749023438e-05,2026-03-29T22:29:27.413,2026-03-29T18:29:27.413,-24343.739999999998,-42739.784999999996,-78497.685,-49440.24,-9601.02,-16979.355,7213.7699999999995,-56679.615,2.151430442518988,5.670148225290355,10.102309000236955,-0.6011470341158894,1.076259282860045,2.0753970265798642,0.5353643097162513,0.9392881020637801,0.592222605,0.08593728,0.81408483,-16.14508,2.1364,-1.77016,68.0
1774823367.4134364,4.410743713378906e-05,2026-03-29T22:29:27.413,2026-03-29T18:29:27.413,-24343.785,-42748.965,-78511.23,-49449.42,-9607.14,-16982.64,7216.11,-56671.155,5.106067641069992,11.146430303271282,18.89992539806837,8.860424477865223,5.383204186782524,3.510162045850523,-0.44414302738311023,1.8266706672828512,0.592222605,0.08593728,0.81408483,-16.14508,2.1364,-1.77016,68.0
1774823367.413444,7.62939453125e-06,2026-03-29T22:29:27.413,2026-03-29T18:29:27.413,-24353.64,-42761.115,-78519.19499999999,-49431.42,-9593.865,-16976.43,7208.009999999999,-56675.295,5.60423394655267,11.45672890450834,19.170406447930517,15.171827749235968,7.70431549609554,3.475251082803331,-1.2703553128572047,1.7231441826291165,0.592222605,0.08593728,0.81408483,-16.14508,2.1364,-1.77016,68.0
1774823367.420405,0.006960868835449219,2026-03-29T22:29:27.420,2026-03-29T18:29:27.420,-24356.879999999997,-42765.435,-78526.305,-49431.33,-9587.52,-16965.945,7212.33,-56674.485,3.367890642130154,6.1753144443297545,10.403725149073502,15.272401476193176,6.8779485948974655,1.925701680455202,-1.5172795697636914,0.6623352926321138,0.592222605,0.08593728,0.81408483,-16.14508,2.1364,-1.77016,68.0
1774823367.420427,2.2172927856445312e-05,2026-03-29T22:29:27.420,2026-03-29T18:29:27.420,-24343.29,-42753.645,-78529.36499999999,-49462.515,-9612.945,-16976.79,7215.344999999999,-56659.77,-0.5339704498045351,-2.3668899735707196,-3.5860252299221296,8.641941286032282,3.027162884535522,-0.513101325272465,-1.0205150310781799,-0.8004126225624298,0.592222605,0.08593728,0.81408483,-16.14508,2.1364,-1.77016,68.0
1774823367.4204485,2.1457672119140625e-05,2026-03-29T22:29:27.420,2026-03-29T18:29:27.420,-24333.03,-42762.869999999995,-78558.165,-49471.83,-9625.23,-16992.315,7206.21,-56642.13,-4.199611514592467,-10.123784115925483,-16.34333830919098,-2.2417437485412903,-2.3826090642146727,-2.7976632084567763,0.021312509099436144,-1.8727652801160888,0.592222605,0.08593728,0.81408483,-16.14508,2.1364,-1.77016,68.0
1774823367.420456,7.3909759521484375e-06,2026-03-29T22:29:27.420,2026-03-29T18:29:27.420,-24326.774999999998,-42772.5,-78579.765,-49493.88,-9628.695,-17000.684999999998,7202.295,-56627.055,-5.828242122860465,-13.274769886953706,-21.79810515062157,-12.795768791590907,-7.087868258651681,-3.9189920987721676,1.1216618127852067,-1.9462189568856563,0.592222605,0.08593728,0.81408483,-16.14508,2.1364,-1.77016,68.0
1774823367.4252567,0.0048007965087890625,2026-03-29T22:29:27.425,2026-03-29T18:29:27.425,-24320.16,-42769.89,-78582.555,-49531.365,-9648.81,-17011.71,7200.2699999999995,-56615.49,-4.611815564388936,-10.12313534331035,-17.195602746863223,-18.272962011425907,-8.978800437547143,-3.3564370706868623,1.731775381603514,-0.9323923450325798,0.592222605,0.08593728,0.81408483,-16.14508,2.1364,-1.77016,68.0
1774823367.4252791,2.2411346435546875e-05,2026-03-29T22:29:27.425,2026-03-29T18:29:27.425,-24345.855,-42752.564999999995,-78520.59,-49490.415,-9630.0,-16993.395,7203.6449999999995,-56641.32,-1.1405698309146186,-2.001979354071101,-4.496944040598951,-15.923334742290754,-7.056040919965669,-1.3246427062585966,1.512922339516237,0.6676094450860453,0.592222605,0.08593728,0.81408483,-16.14508,2.1364,-1.77016,68.0
1774823367.430156,0.004876852035522461,2026-03-29T22:29:27.430,2026-03-29T18:29:27.430,-24348.015,-42728.895,-78465.87,-49435.064999999995,-9592.83,-16964.91,7221.735,-56655.945,2.882646883989082,7.292720868349095,10.465891639517858,-6.379607342165429,-1.9533607804260644,1.3061282303736388,0.5207134838252888,2.0073350840013435,0.58801119,0.08508279,0.82189731,-19.63962,1.38866,-3.7539599999999997,68.0
1774823367.430168,1.1920928955078125e-05,2026-03-29T22:29:27.430,2026-03-29T18:29:27.430,-24322.68,-42734.475,-78493.05,-49472.505,-9613.98,-16982.37,7223.535,-56622.869999999995,5.480839124067091,13.299195269654062,20.711913044585856,6.433876724269581,4.245462576942629,3.388368353169138,-0.7972357646495869,2.3345784077944165,0.58801119,0.08508279,0.82189731,-19.63962,1.38866,-3.7539599999999997,68.0
1774823367.4363244,0.006156444549560547,2026-03-29T22:29:27.436,2026-03-29T18:29:27.436,-24313.454999999998,-42736.229999999996,-78487.73999999999,-49456.439999999995,-9619.695,-16995.015,7208.505,-56610.854999999996,5.379630532489974,13.056069950999458,21.419795787558243,16.91789846597841,8.859156591091338,4.007420777976723,-1.801042871158287,1.4006584031129827,0.58801119,0.08508279,0.82189731,-19.63962,1.38866,-3.7539599999999997,68.0
1774823367.436345,2.0742416381835938e-05,2026-03-29T22:29:27.436,2026-03-29T18:29:27.436,-24315.165,-42736.994999999995,-78476.355,-49413.195,-9595.935,-16982.774999999998,7199.505,-56607.704999999994,2.6375116433401535,6.57544141916861,12.232124417796221,20.273491580417584,9.781490796633832,2.8920392597615434,-1.967550020378681,-0.37888955872477287,0.58801119,0.08508279,0.82189731,-19.63962,1.38866,-3.7539599999999997,68.0
1774823367.4363632,1.811981201171875e-05,2026-03-29T22:29:27.436,2026-03-29T18:29:27.436,-24354.18,-42759.72,-78507.0,-49417.695,-9590.67,-16979.489999999998,7200.764999999999,-56640.6,-1.3839834381028298,-3.11514000852915,-2.5617517921234976,14.727727105118607,6.454933118331258,0.5368089887943532,-1.1599591496136052,-2.108106603460306,0.58801119,0.08508279,0.82189731,-19.63962,1.38866,-3.7539599999999997,68.0
1774823367.436371,7.867813110351562e-06,2026-03-29T22:29:27.436,2026-03-29T18:29:27.436,-24379.065,-42769.845,-78526.53,-49412.295,-9568.305,-16947.135,7226.865,-56669.759999999995,-4.695785488698399,-11.403708938776065,-16.05862426945829,2.464216113195016,0.18955020306356332,-2.020818315513173,0.279701600125388,-2.8577615561559098,0.58801119,0.08508279,0.82189731,-19.63962,1.38866,-3.7539599999999997,68.0
1774823367.4415553,0.005184173583984375,2026-03-29T22:29:27.441,2026-03-29T18:29:27.441,-24347.43,-42765.795,-78526.75499999999,-49442.939999999995,-9598.545,-16964.73,7229.429999999999,-56636.055,-5.666961013862855,-14.313800706187967,-22.012947246028446,-11.228022677993536,-6.349538696389909,-3.6669662561759493,1.672294118489022,-2.153564620439482,0.58801119,0.08508279,0.82189731,-19.63962,1.38866,-3.7539599999999997,68.0
1774823367.4415748,1.9550323486328125e-05,2026-03-29T22:29:27.441,2026-03-29T18:29:27.441,-24339.555,-42774.659999999996,-78534.855,-49500.72,-9637.74,-16988.85,7224.795,-56615.805,-3.8309351478234337,-10.433675496523268,-17.774113925140224,-20.260530245571427,-10.287675583419908,-3.7072867714734326,2.320348233137286,-0.2524169286192197,0.58801119,0.08508279,0.82189731,-19.63962,1.38866,-3.7539599999999997,68.0
1774823367.4458327,0.004257917404174805,2026-03-29T22:29:27.445,2026-03-29T18:29:27.445,-24361.829999999998,-42762.555,-78515.50499999999,-49495.185,-9608.76,-16961.715,7220.7,-56628.0,-0.11243617054796559,-1.6097382402985339,-5.487035928656985,-20.488927029889396,-9.82115812036814,-2.166436191759249,1.8548120473286132,1.9469809084070209,0.58801119,0.08508279,0.82189731,-19.63962,1.38866,-3.7539599999999997,68.0
1774823367.4458537,2.09808349609375e-05,2026-03-29T22:29:27.445,2026-03-29T18:29:27.445,-24363.0,-42732.674999999996,-78481.70999999999,-49451.67,-9597.69,-16963.2,7217.775,-56635.064999999995,3.6360270249592785,7.939626661395019,8.997105904524629,-11.640673228390332,-5.054372619546097,0.24155902616064612,0.43826862624786517,3.3303459669129305,0.58801119,0.08508279,0.82189731,-19.63962,1.38866,-3.7539599999999997,68.0
1774823367.449362,0.003508329391479492,2026-03-29T22:29:27.449,2026-03-29T18:29:27.449,-24345.135,-42718.229999999996,-78462.62999999999,-49426.335,-9592.289999999999,-16969.364999999998,7214.985,-56628.405,5.556020763690517,13.660662440132535,18.94477653935876,2.4817591470031646,2.0001883617580107,2.450833996986105,-1.2847629112006957,3.127543370499661,0.586729455,0.08093241,0.831723945,-18.28148,-1.8617199999999998,-6.07348,68.0
1774823367.4493773,1.52587890625e-05,2026-03-29T22:29:27.449,2026-03-29T18:29:27.449,-24346.035,-42724.755,-78465.42,-49420.53,-9581.445,-16964.055,7214.219999999999,-56625.84,4.704355858967681,12.858968679687525,19.919217457757963,15.652651947669057,8.280561716854466,3.5268859623369266,-2.4797600378454168,1.3257342402122514,0.586729455,0.08093241,0.831723945,-18.28148,-1.8617199999999998,-6.07348,68.0
1774823367.4535284,0.004151105880737305,2026-03-29T22:29:27.453,2026-03-29T18:29:27.453,-24344.864999999998,-42730.695,-78473.295,-49426.29,-9580.904999999999,-16965.18,7216.469999999999,-56618.235,1.5166376143322269,5.984474494754081,11.792202577420776,22.003876346603537,11.022118244542995,3.0712354908898005,-2.5246193589072803,-1.280866864215078,0.586729455,0.08093241,0.831723945,-18.28148,-1.8617199999999998,-6.07348,68.0
1774823367.4535484,2.002716064453125e-05,2026-03-29T22:29:27.453,2026-03-29T18:29:27.453,-24340.725,-42739.29,-78487.515,-49443.255,-9598.815,-16979.715,7214.804999999999,-56608.695,-2.414652443842578,-3.612775758219081,-1.338585022173564,18.67566249806614,8.991804734686268,1.3676710022840086,-1.3290389831661915,-3.4458641244733133,0.586729455,0.08093241,0.831723945,-18.28148,-1.8617199999999998,-6.07348,68.0
1774823367.4576485,0.00410008430480957,2026-03-29T22:29:27.457,2026-03-29T18:29:27.457,-24342.48,-42754.095,-78508.575,-49459.95,-9615.015,-16992.899999999998,7216.65,-56600.64,-5.134293491846853,-11.325686666843875,-13.224243006574383,7.122955504393389,3.050668323852292,-0.7832801492239604,0.5915132120363115,-4.069065817198199,0.586729455,0.08093241,0.831723945,-18.28148,-1.8617199999999998,-6.07348,68.0
1774823367.457669,2.0503997802734375e-05,2026-03-29T22:29:27.457,2026-03-29T18:29:27.457,-24342.48,-42769.08,-78533.73,-49476.465,-9627.39,-16998.84,7222.275,-56591.325,-5.294396849987401,-13.520970862397965,-18.47685741802671,-7.5280937036094615,-4.215824279570059,-2.4490113686658,2.336477706808892,-2.7493476395375476,0.586729455,0.08093241,0.831723945,-18.28148,-1.8617199999999998,-6.07348,68.0
1774823367.4619346,0.004265546798706055,2026-03-29T22:29:27.461,2026-03-29T18:29:27.461,-24345.045,-42768.494999999995,-78526.44,-49460.759999999995,-9613.035,-16983.63,7221.105,-56593.619999999995,-2.819296226507745,-9.268936347181244,-15.05047707332001,-18.785494048752458,-9.639057053240261,-2.980417581978707,3.0417892464867564,-0.015690841401667068,0.586729455,0.08093241,0.831723945,-18.28148,-1.8617199999999998,-6.07348,68.0
1774823367.4619665,3.1948089599609375e-05,2026-03-29T22:29:27.461,2026-03-29T18:29:27.461,-24348.69,-42752.205,-78495.56999999999,-49434.119999999995,-9593.414999999999,-16968.51,7210.9349999999995,-56603.204999999994,1.0618045147928228,-0.7408881776569219,-5.031380928659068,-21.70764914636124,-10.868993100490512,-2.268028881619192,2.3051253206358426,2.889308895975536,0.586729455,0.08093241,0.831723945,-18.28148,-1.8617199999999998,-6.07348,68.0
1774823367.4684637,0.00649714469909668,2026-03-29T22:29:27.468,2026-03-29T18:29:27.468,-24347.7,-42732.674999999996,-78482.16,-49427.505,-9582.615,-16952.85,7208.82,-56610.54,4.426742784975736,7.896787792889024,6.563213004932657,-15.10214579139978,-7.406951249782599,-0.7356833318116172,0.4063802994379446,4.582346950122929,0.586729455,0.08093241,0.831723945,-18.28148,-1.8617199999999998,-6.07348,68.0
1774823367.4684975,3.3855438232421875e-05,2026-03-29T22:29:27.468,2026-03-29T18:29:27.468,-24341.265,-42734.205,-78498.315,-49450.005,-9593.055,-16952.94,7215.84,-56605.365,5.610911067302125,12.528732437902796,14.308534426018955,-2.01487966195565,-0.8086234148923925,0.9013888386043211,-1.7943536313194688,4.200460936596538,0.586729455,0.08093241,0.831723945,-18.28148,-1.8617199999999998,-6.07348,68.0
1774823367.4685307,3.314018249511719e-05,2026-03-29T22:29:27.468,2026-03-29T18:29:27.468,-24334.29,-42734.34,-78502.68,-49464.494999999995,-9605.654999999999,-16965.945,7222.094999999999,-56597.354999999996,4.0259660877009535,11.06685812521505,14.94357340533214,11.69247927377984,6.026018616615422,1.9799048247968976,-3.2465553812921275,1.832446617748557,0.590757765,0.071105775,0.829526685,-12.5132,-4.4254,-5.81406,68.0
1774823367.4685476,1.6927719116210938e-05,2026-03-29T22:29:27.468,2026-03-29T18:29:27.468,-24339.465,-42740.415,-78498.495,-49446.63,-9597.869999999999,-16963.515,7224.255,-56597.67,0.44525775804514545,4.400920449946468,8.757222789373033,20.004369861412595,10.147137789175938,2.1647251937547147,-3.209986896883045,-1.4927185327512604,0.590757765,0.071105775,0.829526685,-12.5132,-4.4254,-5.81406,68.0
1774823367.4788132,0.010265588760375977,2026-03-29T22:29:27.478,2026-03-29T18:29:27.478,-24342.704999999998,-42745.994999999995,-78495.75,-49418.325,-9589.005,-16964.595,7218.8099999999995,-56599.784999999996,-3.379836645033287,-4.112871107271441,-0.8052817661529393,19.427198606403806,9.847023001279165,1.5391083271843078,-1.6278056277102646,-4.264366812410691,0.590757765,0.071105775,0.829526685,-12.5132,-4.4254,-5.81406,68.0
1774823367.4788306,1.7404556274414062e-05,2026-03-29T22:29:27.478,2026-03-29T18:29:27.478,-24347.52,-42754.095,-78507.27,-49414.59,-9587.07,-16963.245,7218.8099999999995,-56602.439999999995,-5.579254449460673,-10.340417238770517,-9.014548216171685,10.47227796595714,5.374902867130976,0.49291076023498026,0.8145167592521687,-5.185616383620689,0.590757765,0.071105775,0.829526685,-12.5132,-4.4254,-5.81406,68.0
1774823367.4788468,1.621246337890625e-05,2026-03-29T22:29:27.478,2026-03-29T18:29:27.478,-24350.445,-42761.744999999995,-78531.525,-49429.53,-9593.82,-16969.454999999998,7219.125,-56603.07,-5.075536427327416,-11.38534460317605,-12.206408094735284,-2.690637793359835,-1.2283970355941547,-0.5074234970235858,2.986309989209252,-3.780836445727913,0.590757765,0.071105775,0.829526685,-12.5132,-4.4254,-5.81406,68.0
1774823367.4788537,6.9141387939453125e-06,2026-03-29T22:29:27.478,2026-03-29T18:29:27.478,-24344.55,-42752.655,-78528.555,-49452.299999999996,-9599.895,-16971.345,7218.134999999999,-56600.82,-2.1032344442376463,-6.944959689695532,-9.43690731418639,-14.19877731277578,-7.076803222700782,-1.1363166884932,3.835998228529423,-0.6293507271400102,0.590757765,0.071105775,0.829526685,-12.5132,-4.4254,-5.81406,68.0
1774823367.481315,0.0024611949920654297,2026-03-29T22:29:27.481,2026-03-29T18:29:27.481,-24339.239999999998,-42744.195,-78521.67,-49502.159999999996,-9612.315,-16969.545,7224.21,-56596.545,1.910981932821192,0.6317856850549519,-2.687447162879759,-19.143969650951846,-9.721194518464127,-1.3086553922316861,2.898941457292122,2.885755673111256,0.590757765,0.071105775,0.829526685,-12.5132,-4.4254,-5.81406,68.0
1774823367.4813268,1.1920928955078125e-05,2026-03-29T22:29:27.481,2026-03-29T18:29:27.481,-24325.965,-42728.04,-78491.83499999999,-49505.13,-9618.795,-16974.27,7225.155,-56587.454999999994,5.041702331190134,7.572375453929352,4.371249484659917,-15.690336744324581,-8.188292251392237,-1.1341709261573811,0.5439228755522412,5.198556067565733,0.590757765,0.071105775,0.829526685,-12.5132,-4.4254,-5.81406,68.0
1774823367.4856658,0.004338979721069336,2026-03-29T22:29:27.485,2026-03-29T18:29:27.485,-24321.329999999998,-42717.33,-78456.69,-49450.905,-9612.63,-16983.54,7218.8099999999995,-56583.945,5.790260189499072,10.557164886698773,8.335324286978675,-5.736901574240527,-3.3289443074883205,-0.7830762485375111,-2.1698511524028015,5.265150197355584,0.590757765,0.071105775,0.829526685,-12.5132,-4.4254,-5.81406,68.0
1774823367.4856925,2.6702880859375e-05,2026-03-29T22:29:27.485,2026-03-29T18:29:27.485,-24325.605,-42726.015,-78473.06999999999,-49442.22,-9607.005,-16982.55,7216.38,-56588.085,3.7956241855274357,8.310691776224091,7.7156594724891505,6.103585749143594,2.6438067283105653,-0.3622781196133641,-3.9709269445505813,3.031041058243265,0.590757765,0.071105775,0.829526685,-12.5132,-4.4254,-5.81406,68.0
1774823367.4899197,0.004227161407470703,2026-03-29T22:29:27.489,2026-03-29T18:29:27.489,-24329.25,-42736.86,-78492.645,-49449.645,-9606.555,-16981.739999999998,7212.6449999999995,-56595.015,-0.004463008055458305,2.1434806981799244,3.47738017532409,14.668855770774634,7.18030701503724,0.11826249480407097,-3.9722157694836913,-0.5472047710861843,0.589292925,0.056884620000000004,0.829648755,-2.50264,-6.546539999999999,-7.7063,68.0
1774823367.4899435,2.384185791015625e-05,2026-03-29T22:29:27.489,2026-03-29T18:29:27.489,-24332.399999999998,-42747.345,-78502.95,-49446.225,-9597.779999999999,-16972.02,7212.78,-56599.38,-3.8282601661091453,-4.783078450385911,-1.711438839957734,16.527446882299632,8.500642896389147,0.676916339595388,-2.1055419628007357,-3.9283942303555475,0.589292925,0.056884620000000004,0.829648755,-2.50264,-6.546539999999999,-7.7063,68.0
1774823367.4935555,0.003612041473388672,2026-03-29T22:29:27.493,2026-03-29T18:29:27.493,-24329.295,-42746.58,-78499.485,-49440.869999999995,-9589.095,-16963.47,7217.325,-56593.215,-5.893719557450135,-9.065734975545402,-5.033646522480252,11.354334720483983,6.293109149840456,1.2503773500887425,0.8179457064268356,-5.662708129645749,0.589292925,0.056884620000000004,0.829648755,-2.50264,-6.546539999999999,-7.7063,68.0
1774823367.4935682,1.2636184692382812e-05,2026-03-29T22:29:27.493,2026-03-29T18:29:27.493,-24338.204999999998,-42742.08,-78486.61499999999,-49436.009999999995,-9587.88,-16963.065,7217.639999999999,-56602.979999999996,-5.247088822156613,-8.726756731876481,-5.013139727280516,1.8502509644427356,1.7302381626118157,1.6362943878010374,3.461897592683833,-5.014192112453545,0.589292925,0.056884620000000004,0.829648755,-2.50264,-6.546539999999999,-7.7063,68.0
1774823367.5013177,0.0077495574951171875,2026-03-29T22:29:27.501,2026-03-29T18:29:27.501,-24352.92,-42744.735,-78487.83,-49437.674999999996,-9587.699999999999,-16959.329999999998,7222.005,-56620.305,-2.1912401800139834,-4.1242189483950735,-2.1670985830483254,-7.6566167964012415,-3.1496862833244226,1.553769986129309,4.5780373726451105,-2.2614446952515666,0.589292925,0.056884620000000004,0.829648755,-2.50264,-6.546539999999999,-7.7063,68.0
1774823367.501344,2.6226043701171875e-05,2026-03-29T22:29:27.501,2026-03-29T18:29:27.501,-24339.015,-42747.705,-78501.19499999999,-49457.34,-9602.055,-16968.329999999998,7224.4349999999995,-56604.465,1.8732610996200874,2.3117771656752137,1.4645597885052208,-13.206951849840097,-6.371466509013475,0.8106205208512196,3.5959843623277363,1.4405446672740785,0.589292925,0.056884620000000004,0.829648755,-2.50264,-6.546539999999999,-7.7063,68.0
1774823367.501371,2.6941299438476562e-05,2026-03-29T22:29:27.501,2026-03-29T18:29:27.501,-24327.09,-42754.814999999995,-78515.685,-49457.97,-9614.52,-16986.69,7212.509999999999,-56593.71,5.10408206524233,7.345696898833764,3.586114417575331,-12.87289987705959,-6.830711966390299,-0.513317020091149,0.9105936042332873,4.560737541120916,0.589292925,0.056884620000000004,0.829648755,-2.50264,-6.546539999999999,-7.7063,68.0
1774823367.5013826,1.1682510375976562e-05,2026-03-29T22:29:27.501,2026-03-29T18:29:27.501,-24313.995,-42764.04,-78537.015,-49442.58,-9617.535,-16999.695,7199.235,-56580.21,6.055887182131289,8.550996751710217,2.9753267522684297,-7.382651579159128,-4.645710770574449,-1.9905526283923507,-2.2764371527713023,5.829365381877977,0.589292925,0.056884620000000004,0.829648755,-2.50264,-6.546539999999999,-7.7063,68.0
1774823367.506325,0.004942417144775391,2026-03-29T22:29:27.506,2026-03-29T18:29:27.506,-24323.355,-42779.655,-78566.715,-49438.08,-9612.585,-16997.85,7197.525,-56580.93,4.317745966440971,5.4708804962433675,0.1423305918400288,0.46871536055580115,-0.9565403402475854,-2.9613364988394513,-4.497301379340026,4.74417555307016,0.589292925,0.056884620000000004,0.829648755,-2.50264,-6.546539999999999,-7.7063,68.0
1774823367.5063424,1.7404556274414062e-05,2026-03-29T22:29:27.506,2026-03-29T18:29:27.506,-24341.94,-42783.84,-78581.745,-49444.92,-9601.74,-16990.155,7198.335,-56605.275,0.6723236399996725,-0.22600248306564535,-3.0215887912614368,7.2367726545057645,2.6702594115687406,-2.82358215176053,-4.696453574700823,1.7492083647510492,0.589292925,0.056884620000000004,0.829648755,-2.50264,-6.546539999999999,-7.7063,68.0
1774823367.5097952,0.003452777862548828,2026-03-29T22:29:27.509,2026-03-29T18:29:27.509,-24368.265,-42759.09,-78533.19,-49442.445,-9575.234999999999,-16960.5,7211.5199999999995,-56652.93,-3.2744592020803296,-5.6360361474094365,-4.3826874598644965,10.356829413036193,4.920751619224202,-1.3720064202470248,-2.7319970763933465,-1.9653177966042237,0.589659135,0.05639634,0.825864585,1.57178,-6.958559999999999,-11.41448,68.0
1774823367.509816,2.0742416381835938e-05,2026-03-29T22:29:27.509,2026-03-29T18:29:27.509,-24357.69,-42737.13,-78501.645,-49480.515,-9590.22,-16958.655,7227.224999999999,-56662.064999999995,-5.809480752817074,-8.086358862308039,-2.8410437657766594,9.098044265854224,5.195305666560732,0.9944592131501592,0.5380070033831875,-4.942150937768164,0.589659135,0.05639634,0.825864585,1.57178,-6.958559999999999,-11.41448,68.0
1774823367.5137613,0.003945350646972656,2026-03-29T22:29:27.513,2026-03-29T18:29:27.513,-24326.055,-42724.125,-78475.5,-49483.799999999996,-9623.744999999999,-16981.02,7229.835,-56635.244999999995,-5.850298786126395,-6.440622430692987,0.9730714069088149,4.5978685406113025,3.6981848924943326,3.340314917714906,3.632823126768302,-6.018141740645813,0.589659135,0.05639634,0.825864585,1.57178,-6.958559999999999,-11.41448,68.0
1774823367.513792,3.075599670410156e-05,2026-03-29T22:29:27.513,2026-03-29T18:29:27.513,-24322.14,-42715.485,-78442.92,-49444.695,-9627.705,-16986.149999999998,7225.605,-56634.884999999995,-3.389862657666339,-1.612624808126473,4.979012813513916,-0.9075136334602362,1.1944918642953948,4.555496556452649,5.122851769289169,-4.756817822067571,0.589659135,0.05639634,0.825864585,1.57178,-6.958559999999999,-11.41448,68.0
1774823367.5235193,0.009727239608764648,2026-03-29T22:29:27.523,2026-03-29T18:29:27.523,-24317.235,-42721.29,-78467.22,-49464.18,-9616.455,-16973.415,7226.46,-56633.939999999995,0.5249994042640329,3.9375666769555164,6.764644995558855,-5.192362380769889,-1.3854337401270627,3.8759859994554824,4.291873543952813,-1.6044354150044657,0.589659135,0.05639634,0.825864585,1.57178,-6.958559999999999,-11.41448,68.0
1774823367.5235395,2.0265579223632812e-05,2026-03-29T22:29:27.523,2026-03-29T18:29:27.523,-24320.204999999998,-42735.555,-78494.715,-49461.255,-9598.545,-16962.66,7224.255,-56635.65,4.250776962290448,7.44839125129185,4.947340039470504,-6.941012325339005,-3.2880798398649755,1.3206714871276741,1.4801471373691881,2.2732797232844897,0.589659135,0.05639634,0.825864585,1.57178,-6.958559999999999,-11.41448,68.0
1774823367.523558,1.8358230590820312e-05,2026-03-29T22:29:27.523,2026-03-29T18:29:27.523,-24335.82,-42742.755,-78493.815,-49429.935,-9581.984999999999,-16954.245,7221.195,-56652.84,6.234124923804955,7.21527244295684,0.03753387424105215,-6.07548529050986,-4.101101110785974,-2.1924307932216935,-2.0555072597488504,5.409081863353108,0.589659135,0.05639634,0.825864585,1.57178,-6.958559999999999,-11.41448,68.0
1774823367.5235648,6.9141387939453125e-06,2026-03-29T22:29:27.523,2026-03-29T18:29:27.523,-24366.195,-42755.13,-78500.79,-49417.47,-9573.029999999999,-16949.565,7219.844999999999,-56683.71,5.643001891139642,3.400329720710322,-5.684754103275996,-3.4802624848473154,-3.74210080344654,-5.1577987451547385,-4.706752422710631,6.563862557760548,0.589659135,0.05639634,0.825864585,1.57178,-6.958559999999999,-11.41448,68.0
1774823367.5258787,0.002313852310180664,2026-03-29T22:29:27.525,2026-03-29T18:29:27.525,-24364.844999999998,-42755.715,-78490.035,-49396.229999999996,-9567.404999999999,-16952.445,7220.205,-56687.579999999994,2.6950802516101287,-2.0835801559682925,-9.257415311620594,-0.38630980298168227,-2.3656961266322343,-6.1266767527350146,-5.248433382212972,5.191938344601573,0.589659135,0.05639634,0.825864585,1.57178,-6.958559999999999,-11.41448,68.0
1774823367.525898,1.9311904907226562e-05,2026-03-29T22:29:27.525,2026-03-29T18:29:27.525,-24360.03,-42769.08,-78492.23999999999,-49392.27,-9565.605,-16957.17,7216.245,-56681.28,-1.4341402603545368,-6.53397707399507,-8.55528808938356,2.211328251899094,-0.29133739945951254,-4.408952763434354,-3.4060213982103975,1.6819509135122062,0.589659135,0.05639634,0.825864585,1.57178,-6.958559999999999,-11.41448,68.0
1774823367.5294266,0.003528594970703125,2026-03-29T22:29:27.529,2026-03-29T18:29:27.529,-24362.82,-42795.045,-78528.015,-49414.275,-9574.695,-16959.825,7216.695,-56683.619999999995,-5.077247332512477,-7.780791752345395,-3.4658795545818384,3.828129421365611,2.011935216909898,-0.49469485026752674,0.007512073472465799,-2.7249468283161202,0.59216157,0.06652815,0.82006626,-4.37962,-7.7825999999999995,-12.83366,68.0
