unix_time_s,dt_s,UTC,LOCAL,EMG1_Raw,EMG2_Raw,EMG3_Raw,EMG4_Raw,EMG5_Raw,EMG6_Raw,EMG7_Raw,EMG8_Raw,EMG1_Filtered,EMG2_Filtered,EMG3_Filtered,EMG4_Filtered,EMG5_Filtered,EMG6_Filtered,EMG7_Filtered,EMG8_Filtered,Accel1_Raw,Accel2_Raw,Accel3_Raw,Gyro1_Raw,Gyro2_Raw,Gyro3_Raw,Battery
1774821980.9810925,,2026-03-29T22:06:20.981,2026-03-29T18:06:20.981,-31621.41,-49516.604999999996,-84445.02,-50201.505,-15131.564999999999,-20519.505,4886.235,-41842.799999999996,0.8027735725893588,1.2642193548176064,1.8133910842052936,1.7107874098618838,1.6015221056777418,1.510064324429162,2.047985492149166,0.2521685906882833,0.0158691,-0.965756805,-0.27856374,1.2818399999999999,10.529399999999999,1.11398,72.0
1774821980.9811227,3.0279159545898438e-05,2026-03-29T22:06:20.981,2026-03-29T18:06:20.981,-31622.715,-49516.65,-84442.905,-50209.784999999996,-15176.789999999999,-20526.885,4915.485,-41840.82,-0.21616405105558617,1.2344734125343577,2.347973989298113,2.423087048067553,3.330104277514919,1.1374963997849543,-5.918972387375389,-4.639194070198006,0.0158691,-0.965756805,-0.27856374,1.2818399999999999,10.529399999999999,1.11398,72.0
1774821980.9854658,0.0043430328369140625,2026-03-29T22:06:20.985,2026-03-29T18:06:20.985,-31624.469999999998,-49519.215,-84443.355,-50210.955,-15157.935,-20532.915,4914.36,-41837.354999999996,-1.2724073592906273,0.4313421887975066,1.497194654229562,1.7754957624461307,3.3306523023917998,-0.10329847034365014,-11.509352026182373,-7.492034659858979,0.0158691,-0.965756805,-0.27856374,1.2818399999999999,10.529399999999999,1.11398,72.0
1774821980.9854817,1.5974044799804688e-05,2026-03-29T22:06:20.985,2026-03-29T18:06:20.985,-31633.02,-49531.185,-84456.27,-50200.29,-15055.65,-20509.29,4883.985,-41846.22,-1.930152894965781,-0.8302861328464886,-0.4305128169528263,-0.04445140984491839,1.5064262549369203,-1.6939496492565014,-12.247325762862133,-7.030598640760173,0.0158691,-0.965756805,-0.27856374,1.2818399999999999,10.529399999999999,1.11398,72.0
1774821980.9889786,0.003496885299682617,2026-03-29T22:06:20.988,2026-03-29T18:06:20.988,-31633.605,-49529.744999999995,-84452.22,-50191.424999999996,-15047.91,-20507.13,4856.804999999999,-41855.22,-1.8547741508655367,-1.9042337750318914,-2.449172375746546,-2.1434708166058662,-1.2514534283014078,-2.7667900249514035,-7.715688112484201,-3.4605818281908887,0.0158691,-0.965756805,-0.27856374,1.2818399999999999,10.529399999999999,1.11398,72.0
1774821980.9889922,1.3589859008789062e-05,2026-03-29T22:06:20.988,2026-03-29T18:06:20.988,-31634.73,-49532.354999999996,-84459.915,-50220.63,-15106.005,-20515.95,4870.08,-41851.979999999996,-0.9776348693137277,-2.1361169086187153,-3.3890211124678418,-3.352275115359974,-3.4887397224168324,-2.5558169328567346,0.23680760260851805,1.6224981511013579,0.0158691,-0.965756805,-0.27856374,1.2818399999999999,10.529399999999999,1.11398,72.0
1774821980.9932528,0.004260540008544922,2026-03-29T22:06:20.993,2026-03-29T18:06:20.993,-31632.164999999997,-49530.915,-84459.375,-50220.45,-15110.955,-20515.41,4891.1849999999995,-41842.215,0.4282501942758977,-1.2366114990099606,-2.545126764918921,-2.8555708291536455,-3.944625277344121,-0.8717169892530644,8.262178688356558,5.953480770704446,0.0158691,-0.965756805,-0.27856374,1.2818399999999999,10.529399999999999,1.11398,72.0
1774821980.993271,1.8358230590820312e-05,2026-03-29T22:06:20.993,2026-03-29T18:06:20.993,-31633.379999999997,-49529.025,-84453.705,-50211.18,-15105.914999999999,-20515.59,4884.615,-41836.77,1.8156316716065724,0.4999359578467186,-0.13095757993927842,-0.6902474273036272,-2.2508629452226385,1.6732094019637143,12.928963009334407,7.618388806988979,0.0158691,-0.965756805,-0.27856374,1.2818399999999999,10.529399999999999,1.11398,72.0
1774821980.9975915,0.004320383071899414,2026-03-29T22:06:20.997,2026-03-29T18:06:20.997,-31633.199999999997,-49528.845,-84452.94,-50212.17,-15109.785,-20521.035,4864.1849999999995,-41840.415,2.5688688806411304,2.2727799471130985,2.733991255097608,2.1766761939504713,0.809221875764206,3.8605382016380716,12.184867173603024,5.910788035994778,0.016174275000000002,-0.96630612,-0.27612234,3.40298,11.078759999999999,0.6867,72.0
1774821980.9976132,2.1696090698242188e-05,2026-03-29T22:06:20.997,2026-03-29T18:06:20.997,-31637.655,-49535.729999999996,-84463.69499999999,-50224.814999999995,-15122.25,-20531.52,4859.91,-41844.015,2.274958430372783,3.140952809444896,4.5393859334553985,4.273607863960673,3.6506301942035027,4.437091523460943,6.24507931239206,1.6354780909926498,0.016174275000000002,-0.96630612,-0.27612234,3.40298,11.078759999999999,0.6867,72.0
1774821981.0031345,0.005521297454833984,2026-03-29T22:06:21.003,2026-03-29T18:06:21.003,-31611.375,-49503.104999999996,-84427.56,-50187.645,-15086.654999999999,-20498.715,4886.955,-41835.465,0.94144340780017,2.5121886986106787,4.166622495083245,4.369357284613469,4.695626732053679,2.799462587064462,-2.471340753939525,-3.27340191030277,0.016174275000000002,-0.96630612,-0.27612234,3.40298,11.078759999999999,0.6867,72.0
1774821981.0031643,2.9802322387695312e-05,2026-03-29T22:06:21.003,2026-03-29T18:06:21.003,-31619.969999999998,-49514.31,-84438.405,-50198.895,-15098.039999999999,-20509.29,4858.605,-41838.885,-0.9510280091410687,0.5040629574117129,1.5378767765222419,2.164023417690406,3.233734232222696,-0.5708692991545732,-10.3339670154614,-6.637941807624925,0.016174275000000002,-0.96630612,-0.27612234,3.40298,11.078759999999999,0.6867,72.0
1774821981.008057,0.004892826080322266,2026-03-29T22:06:21.008,2026-03-29T18:06:21.008,-31638.555,-49524.705,-84444.345,-50203.259999999995,-15100.154999999999,-20508.255,4840.5599999999995,-41868.09,-2.610747472387435,-2.030356193767303,-2.230881216899204,-1.4511487239847753,-0.12961707174295886,-4.196268448015915,-14.010961382192718,-7.015694179177739,0.016174275000000002,-0.96630612,-0.27612234,3.40298,11.078759999999999,0.6867,72.0
1774821981.008077,1.9788742065429688e-05,2026-03-29T22:06:21.008,2026-03-29T18:06:21.008,-31638.465,-49521.104999999996,-84436.65,-50196.555,-15093.314999999999,-20497.23,4888.62,-41872.14,-3.263756930443999,-3.8618206325178526,-5.2993474978699355,-4.7434271332866995,-3.7065621083892153,-6.240159909004717,-11.86958280691533,-4.326202265192808,0.016174275000000002,-0.96630612,-0.27612234,3.40298,11.078759999999999,0.6867,72.0
1774821981.009617,0.0015401840209960938,2026-03-29T22:06:21.009,2026-03-29T18:06:21.009,-31602.42,-49498.2,-84421.17,-50186.205,-15085.529999999999,-20492.82,4946.535,-41820.345,-2.5142118384411023,-3.979563920994678,-5.9997728323752355,-5.966785115376692,-5.563001534963251,-5.423664230212651,-4.68460830926275,0.1516092530869266,0.016174275000000002,-0.96630612,-0.27612234,3.40298,11.078759999999999,0.6867,72.0
1774821981.0096376,2.0503997802734375e-05,2026-03-29T22:06:21.009,2026-03-29T18:06:21.009,-31630.14,-49532.22,-84456.675,-50216.354999999996,-15114.555,-20522.88,4918.23,-41827.14,-0.5685452982880732,-2.1339100770091197,-3.7243655013413637,-4.273469447856725,-4.547777847172557,-1.7692609059307352,4.64460523486343,4.3934516493207,0.016174275000000002,-0.96630612,-0.27612234,3.40298,11.078759999999999,0.6867,72.0
1774821981.0144143,0.004776716232299805,2026-03-29T22:06:21.014,2026-03-29T18:06:21.014,-31631.67,-49533.884999999995,-84459.33,-50213.115,-15109.74,-20519.954999999998,4902.345,-41832.045,1.7987015426991162,0.9594167674081882,0.6625952442599176,-0.23795529336130522,-0.973501777047566,3.2429249609676214,12.262115186143712,6.558061276673805,0.016174275000000002,-0.96630612,-0.27612234,3.40298,11.078759999999999,0.6867,72.0
1774821981.014432,1.7642974853515625e-05,2026-03-29T22:06:21.014,2026-03-29T18:06:21.014,-31623.21,-49521.735,-84443.84999999999,-50198.49,-15094.845,-20505.42,4901.22,-41828.939999999995,3.548901758395391,3.889048414707089,5.14025400099983,4.311854732867837,3.441606482046559,7.257889055864329,14.938848939997058,5.798129797556301,0.016174275000000002,-0.96630612,-0.27612234,3.40298,11.078759999999999,0.6867,72.0
1774821981.0172393,0.0028073787689208984,2026-03-29T22:06:21.017,2026-03-29T18:06:21.017,-31632.164999999997,-49529.205,-84448.395,-50207.445,-15100.83,-20507.355,4882.139999999999,-41838.03,3.836365725134356,5.194718578509674,7.4667732734157575,7.1239271518838745,6.391265224420841,8.148004852481836,11.427040566960239,2.5907400601680566,0.014709435,-0.969418905,-0.27661062000000003,4.77638,9.6901,-0.97664,72.0
1774821981.017252,1.2636184692382812e-05,2026-03-29T22:06:21.017,2026-03-29T18:06:21.017,-31632.93,-49533.119999999995,-84454.875,-50215.905,-15110.685,-20517.84,4873.41,-41834.97,2.4166134472183605,4.093232855780707,6.299559411649513,6.635101125178333,6.172999253628927,5.120667353072919,3.025363372387978,-1.5414688257242726,0.014709435,-0.969418905,-0.27661062000000003,4.77638,9.6901,-0.97664,72.0
1774821981.0219414,0.004689455032348633,2026-03-29T22:06:21.021,2026-03-29T18:06:21.021,-31632.39,-49533.255,-84456.18,-50217.119999999995,-15110.55,-20516.219999999998,4885.245,-41835.869999999995,-0.19137966314799842,0.9229864377132415,1.9405046259576813,2.8178717944792853,2.64319900353828,-0.7383697847308711,-6.893915057170176,-4.76245697258038,0.014709435,-0.969418905,-0.27661062000000003,4.77638,9.6901,-0.97664,72.0
1774821981.0219524,1.0967254638671875e-05,2026-03-29T22:06:21.021,2026-03-29T18:06:21.021,-31635.675,-49532.805,-84454.155,-50214.555,-15109.244999999999,-20517.03,4866.255,-41850.314999999995,-2.8862256862605653,-2.9372323300685954,-3.697694683840633,-2.690221621996861,-2.590311164041035,-6.820688012114344,-14.226905877957229,-5.752225793896748,0.014709435,-0.969418905,-0.27661062000000003,4.77638,9.6901,-0.97664,72.0
1774821981.032303,0.010350704193115234,2026-03-29T22:06:21.032,2026-03-29T18:06:21.032,-31635.989999999998,-49535.82,-84459.51,-50219.505,-15115.23,-20525.579999999998,4860.63,-41849.955,-4.450424676735686,-5.671446871095821,-7.93674419703917,-7.2892359918186616,-6.8928849608363185,-10.154848509007943,-15.821693146543968,-4.252243966733374,0.014709435,-0.969418905,-0.27661062000000003,4.77638,9.6901,-0.97664,72.0
1774821981.032336,3.2901763916015625e-05,2026-03-29T22:06:21.032,2026-03-29T18:06:21.032,-31636.395,-49538.34,-84463.02,-50222.7,-15116.849999999999,-20526.975,4879.71,-41838.479999999996,-4.1040286084755575,-5.88620294959889,-8.613276820600365,-8.6503259062093,-7.922607770985853,-8.855597375369515,-10.821086701710843,-1.0987328547833846,0.014709435,-0.969418905,-0.27661062000000003,4.77638,9.6901,-0.97664,72.0
1774821981.0323646,2.86102294921875e-05,2026-03-29T22:06:21.032,2026-03-29T18:06:21.032,-31625.954999999998,-49525.155,-84447.045,-50206.994999999995,-15099.48,-20506.094999999998,4909.23,-41825.205,-1.892081556252949,-3.3170701515992427,-5.17837137332134,-5.891865781838836,-4.886429426003392,-3.1563158169116505,-1.0990447895114042,2.2340633418669107,0.014709435,-0.969418905,-0.27661062000000003,4.77638,9.6901,-0.97664,72.0
1774821981.0323763,1.1682510375976562e-05,2026-03-29T22:06:21.032,2026-03-29T18:06:21.032,-31627.844999999998,-49524.119999999995,-84441.59999999999,-50204.564999999995,-15098.67,-20506.815,4891.365,-41828.805,1.2864030597013942,0.9753913177267839,0.9417359458369439,-0.10484621217982609,0.9341127101424453,4.52925424892328,9.423228339076276,4.33483178506317,0.014709435,-0.969418905,-0.27661062000000003,4.77638,9.6901,-0.97664,72.0
1774821981.03814,0.0057637691497802734,2026-03-29T22:06:21.038,2026-03-29T18:06:21.038,-31629.69,-49524.479999999996,-84435.93,-50203.89,-15103.215,-20512.17,4882.635,-41830.74,4.043365404208802,5.04451385071825,6.940105234872357,6.07153877935432,6.711519355142572,10.624385990249266,16.34210654220696,4.461733903167852,0.014709435,-0.969418905,-0.27661062000000003,4.77638,9.6901,-0.97664,72.0
1774821981.038169,2.8848648071289062e-05,2026-03-29T22:06:21.038,2026-03-29T18:06:21.038,-31630.949999999997,-49525.92,-84438.98999999999,-50206.59,-15103.845,-20510.505,4883.3099999999995,-41834.115,5.1127861125829925,6.949291421823298,9.930066012105446,9.663347050621555,9.444845667451878,12.060243125468595,16.60251178830302,2.7890697883645634,0.014709435,-0.969418905,-0.27661062000000003,4.77638,9.6901,-0.97664,72.0
1774821981.0381963,2.7418136596679688e-05,2026-03-29T22:06:21.038,2026-03-29T18:06:21.038,-31629.329999999998,-49519.034999999996,-84431.52,-50195.97,-15092.055,-20498.76,4878.9,-41843.7,3.93656567008852,5.686317211005361,8.343389065293112,8.802021874643879,7.510272470725005,7.8166903375505745,9.84081511495452,0.22050245418868034,0.01403805,-0.966489225,-0.276915795,3.4640199999999997,8.37774,-0.51884,72.0
1774821981.0382082,1.1920928955078125e-05,2026-03-29T22:06:21.038,2026-03-29T18:06:21.038,-31637.204999999998,-49531.95,-84450.555,-50210.955,-15104.699999999999,-20513.07,4874.8949999999995,-41847.39,0.9518168897613627,1.7113945824133,2.7439927501510883,3.689862042897838,1.5913219148264028,-0.4396150671727911,-1.3474404953796912,-2.0957957832828584,0.01403805,-0.966489225,-0.276915795,3.4640199999999997,8.37774,-0.51884,72.0
1774821981.0503304,0.012122154235839844,2026-03-29T22:06:21.050,2026-03-29T18:06:21.050,-31630.32,-49533.345,-84456.9,-50219.055,-15118.785,-20537.64,4855.05,-41828.715,-2.5671446555224837,-3.2181781236801887,-4.362301335799464,-3.406041927802578,-5.53204951721172,-8.994174569512044,-12.38003126421542,-3.291259226827336,0.01403805,-0.966489225,-0.276915795,3.4640199999999997,8.37774,-0.51884,72.0
1774821981.0503511,2.0742416381835938e-05,2026-03-29T22:06:21.050,2026-03-29T18:06:21.050,-31633.425,-49544.235,-84474.45,-50242.814999999995,-15149.115,-20574.54,4800.69,-41823.72,-5.057550319572115,-6.8300471100025675,-9.663784274319854,-9.168619328341299,-10.291468310350536,-13.765080624541692,-18.550114006019523,-3.0956742133223174,0.01403805,-0.966489225,-0.276915795,3.4640199999999997,8.37774,-0.51884,72.0
1774821981.0503764,2.5272369384765625e-05,2026-03-29T22:06:21.050,2026-03-29T18:06:21.050,-31641.795,-49545.225,-84474.09,-50236.38,-15130.349999999999,-20543.489999999998,4815.8099999999995,-41845.725,-5.369160559970452,-7.395582479487466,-10.602876720625488,-10.79597731676869,-10.11910763245437,-12.260591624344405,-17.029922466547976,-1.836910127262437,0.01403805,-0.966489225,-0.276915795,3.4640199999999997,8.37774,-0.51884,72.0
1774821981.0503845,8.106231689453125e-06,2026-03-29T22:06:21.050,2026-03-29T18:06:21.050,-31633.065,-49521.645,-84436.515,-50193.945,-15085.439999999999,-20491.785,4893.165,-41845.59,-3.299727228526538,-4.562383214714332,-6.61754895924885,-7.371770127421877,-4.819659069892048,-4.870205160555087,-8.16615706591368,-0.17793108134328,0.01403805,-0.966489225,-0.276915795,3.4640199999999997,8.37774,-0.51884,72.0
1774821981.0503943,9.775161743164062e-06,2026-03-29T22:06:21.050,2026-03-29T18:06:21.050,-31622.94,-49514.939999999995,-84431.205,-50199.795,-15120.63,-20497.23,4930.92,-41823.18,0.2864402172939452,0.4430571131588307,0.5422105401364814,-0.3666544171988864,3.203057233430601,5.176472725774499,4.526270692840793,1.2342116005613308,0.01403805,-0.966489225,-0.276915795,3.4640199999999997,8.37774,-0.51884,72.0
1774821981.0504012,6.9141387939453125e-06,2026-03-29T22:06:21.050,2026-03-29T18:06:21.050,-31602.78,-49494.825,-84411.09,-50181.345,-15112.17,-20487.42,4929.795,-41814.09,3.8227522767393345,5.354097211928664,7.594962317200498,6.998793498307772,10.038549738798997,13.22850999852236,15.737077917134647,2.020775091801392,0.01403805,-0.966489225,-0.276915795,3.4640199999999997,8.37774,-0.51884,72.0
1774821981.0533178,0.002916574478149414,2026-03-29T22:06:21.053,2026-03-29T18:06:21.053,-31593.239999999998,-49487.534999999996,-84399.03,-50163.255,-15060.465,-20475.405,4934.79,-41810.715,5.7323898849332675,7.903836355151861,11.251637004293219,11.251452129660416,12.184455348184617,15.383709535289105,20.576120772174676,2.1261225316326158,0.01403805,-0.966489225,-0.276915795,3.4640199999999997,8.37774,-0.51884,72.0
1774821981.053334,1.621246337890625e-05,2026-03-29T22:06:21.053,2026-03-29T18:06:21.053,-31611.6,-49506.255,-84415.995,-50170.86,-15036.48,-20470.95,4910.04,-41823.09,5.138772636449144,6.8828617009404685,9.76589739211626,10.3196534592836,8.342100390190687,10.38955126768691,16.711556147010125,1.7029781073510641,0.01403805,-0.966489225,-0.276915795,3.4640199999999997,8.37774,-0.51884,72.0
1774821981.0573444,0.004010438919067383,2026-03-29T22:06:21.057,2026-03-29T18:06:21.057,-31639.995,-49535.82,-84452.22,-50209.47,-15090.48,-20506.815,4870.44,-41840.955,2.2708059729112082,2.7160085670277154,3.772633753870167,4.548726559072101,0.17120158835415406,0.34404907260814965,5.493830016075865,0.9463129512968328,0.015075645,-0.96838131,-0.27758718,3.0977799999999998,6.027699999999999,1.0834599999999999,72.0
1774821981.057364,1.9550323486328125e-05,2026-03-29T22:06:21.057,2026-03-29T18:06:21.057,-31647.149999999998,-49544.955,-84463.245,-50221.305,-15106.904999999999,-20514.87,4867.155,-41841.99,-1.6259132553597817,-2.7185591566571112,-3.990319603705679,-3.422860488541021,-8.424161614102575,-10.186646189030498,-8.47698261795783,-0.0011655342932185948,0.015075645,-0.96838131,-0.27758718,3.0977799999999998,6.027699999999999,1.0834599999999999,72.0
1774821981.0628388,0.00547480583190918,2026-03-29T22:06:21.062,2026-03-29T18:06:21.062,-31639.68,-49538.34,-84458.06999999999,-50219.729999999996,-15107.265,-20518.11,4853.79,-41836.905,-4.837216984059406,-6.94891433528597,-9.951974993634014,-9.884960071133786,-13.17366172208184,-16.262859977701012,-19.226263915229346,-1.0237355242925723,0.015075645,-0.96838131,-0.27758718,3.0977799999999998,6.027699999999999,1.0834599999999999,72.0
1774821981.062858,1.9311904907226562e-05,2026-03-29T22:06:21.062,2026-03-29T18:06:21.062,-31631.355,-49526.1,-84443.895,-50207.67,-15100.064999999999,-20517.075,4854.285,-41836.095,-5.943272990378441,-8.048279496701674,-11.371951168146593,-11.802673440120241,-11.573890419980371,-14.908659893559697,-21.965100200318293,-1.9398770909028127,0.015075645,-0.96838131,-0.27758718,3.0977799999999998,6.027699999999999,1.0834599999999999,72.0
1774821981.0650237,0.002165555953979492,2026-03-29T22:06:21.065,2026-03-29T18:06:21.065,-31637.655,-49532.85,-84451.5,-50212.755,-15103.26,-20515.905,4871.25,-41836.545,-4.452569721107575,-5.5218758901765375,-7.6134474310750795,-8.257183288276641,-4.205524998844121,-6.576443796662964,-15.23693036982162,-2.4523394040989848,0.015075645,-0.96838131,-0.27758718,3.0977799999999998,6.027699999999999,1.0834599999999999,72.0
1774821981.0650384,1.4781951904296875e-05,2026-03-29T22:06:21.065,2026-03-29T18:06:21.065,-31642.875,-49538.97,-84458.87999999999,-50219.145,-15109.38,-20519.325,4899.96,-41831.189999999995,-1.0209020758543328,-0.5291719456084673,-0.4279420540423244,-0.8893440402748947,5.458246285836062,4.98563282654878,-1.682262029864742,-2.2268616458083867,0.015075645,-0.96838131,-0.27758718,3.0977799999999998,6.027699999999999,1.0834599999999999,72.0
1774821981.0695872,0.004548788070678711,2026-03-29T22:06:21.069,2026-03-29T18:06:21.069,-31643.01,-49538.79,-84458.655,-50217.435,-15108.3,-20517.84,4899.735,-41833.439999999995,2.842575310951232,4.658216536825334,6.875339272776437,6.86993433988671,12.70196186913553,14.436769089031719,12.976823329555472,-1.091175616976192,0.015075645,-0.96838131,-0.27758718,3.0977799999999998,6.027699999999999,1.0834599999999999,72.0
1774821981.069611,2.384185791015625e-05,2026-03-29T22:06:21.069,2026-03-29T18:06:21.069,-31641.614999999998,-49530.78,-84447.45,-50207.354999999996,-15099.795,-20510.37,4883.985,-41855.85,5.448006190398263,7.705163939645825,10.975126574678931,11.417214600504613,13.887201308425068,17.335621385328622,22.3541541163738,0.7581151473310201,0.015075645,-0.96838131,-0.27758718,3.0977799999999998,6.027699999999999,1.0834599999999999,72.0
1774821981.07402,0.004408836364746094,2026-03-29T22:06:21.074,2026-03-29T18:06:21.074,-31613.985,-49511.115,-84435.435,-50200.335,-15096.869999999999,-20507.265,4898.385,-41830.2,5.672208438846955,7.2773210615675765,10.067282398422455,10.670597563188483,8.291944946759234,12.247004258196059,22.197693243152713,2.6958630358747535,0.015075645,-0.96838131,-0.27758718,3.0977799999999998,6.027699999999999,1.0834599999999999,72.0
1774821981.0740364,1.6450881958007812e-05,2026-03-29T22:06:21.074,2026-03-29T18:06:21.074,-31624.649999999998,-49521.555,-84444.84,-50204.564999999995,-15096.914999999999,-20507.805,4912.0199999999995,-41831.1,3.4463060656293805,3.6299162085049064,4.664794604024468,5.034562307981782,-1.4655445406977448,1.4546685363181342,12.335081316192994,3.853792796206806,0.015075645,-0.96838131,-0.27758718,3.0977799999999998,6.027699999999999,1.0834599999999999,72.0
1774821981.0803733,0.00633692741394043,2026-03-29T22:06:21.080,2026-03-29T18:06:21.080,-31627.305,-49518.585,-84440.52,-50199.795,-15094.17,-20507.805,4895.73,-41838.84,-0.22978995212255485,-1.5408920397362234,-2.6890070390551104,-2.8171204271592214,-10.661839375531976,-10.075366478104932,-3.1320895652236014,3.513012400445439,0.01672359,-0.969540975,-0.278868915,2.92992,4.39488,-3.8760399999999997,72.0
1774821981.080392,1.8596649169921875e-05,2026-03-29T22:06:21.080,2026-03-29T18:06:21.080,-31641.704999999998,-49542.479999999996,-84472.155,-50232.645,-15132.689999999999,-20557.305,4841.55,-41837.805,-3.7441691058885964,-5.899320999623146,-8.635353160309197,-9.225008899519727,-14.775934654223404,-17.00521704963788,-17.529955348048418,1.5248263542294727,0.01672359,-0.969540975,-0.278868915,2.92992,4.39488,-3.8760399999999997,72.0
1774821981.0832388,0.002846956253051758,2026-03-29T22:06:21.083,2026-03-29T18:06:21.083,-31627.98,-49527.72,-84453.97499999999,-50211.81,-15116.58,-20545.245,4861.71,-41825.79,-5.588877869953494,-7.5399070001650355,-10.555084806624375,-11.271411131398118,-11.732719397665752,-16.12284226362148,-24.50704146594385,-1.4777938792343148,0.01672359,-0.969540975,-0.278868915,2.92992,4.39488,-3.8760399999999997,72.0
1774821981.0832708,3.1948089599609375e-05,2026-03-29T22:06:21.083,2026-03-29T18:06:21.083,-31624.965,-49516.424999999996,-84432.105,-50197.275,-15096.33,-20507.805,4879.08,-41831.595,-5.012722231526386,-5.829210976553455,-7.7343900866588875,-8.126382077205102,-2.959533174262454,-7.845997621173778,-20.85962088635835,-4.243497255993842,0.01672359,-0.969540975,-0.278868915,2.92992,4.39488,-3.8760399999999997,72.0
1774821981.08991,0.006639242172241211,2026-03-29T22:06:21.089,2026-03-29T18:06:21.089,-31630.32,-49526.865,-84447.135,-50223.78,-15113.43,-20508.255,4816.485,-41849.909999999996,-2.32549084053678,-1.6433603997106507,-1.6167175246864285,-1.3831622009183278,7.286962122206588,3.9790724780817346,-8.019678139998575,-5.4247096384682045,0.01672359,-0.969540975,-0.278868915,2.92992,4.39488,-3.8760399999999997,72.0
1774821981.0899315,2.1457672119140625e-05,2026-03-29T22:06:21.089,2026-03-29T18:06:21.089,-31645.305,-49536.765,-84454.875,-50224.14,-15116.22,-20523.059999999998,4771.845,-41882.715,1.268753570091538,3.0837014189545617,4.940051846555844,5.752104740831288,14.005215073975476,13.886036008064256,8.493816088085481,-4.240792277439529,0.01672359,-0.969540975,-0.278868915,2.92992,4.39488,-3.8760399999999997,72.0
1774821981.0899513,1.9788742065429688e-05,2026-03-29T22:06:21.089,2026-03-29T18:06:21.089,-31634.864999999998,-49528.71,-84450.87,-50215.455,-15105.644999999999,-20513.655,4869.224999999999,-41854.59,4.219810401633695,6.267351214184801,9.017460734627443,10.003182578301185,13.915658509086697,17.344319624071762,21.45813253099072,-0.9530802023886585,0.01672359,-0.969540975,-0.278868915,2.92992,4.39488,-3.8760399999999997,72.0
1774821981.0899587,7.3909759521484375e-06,2026-03-29T22:06:21.089,2026-03-29T18:06:21.089,-31608.899999999998,-49500.765,-84415.635,-50176.08,-15065.234999999999,-20471.94,4980.33,-41813.595,5.30739711752121,6.603243146351473,8.951682213525762,9.548579990144752,7.081966680997845,12.854067109675215,25.13034547463394,3.124052849510822,0.01672359,-0.969540975,-0.278868915,2.92992,4.39488,-3.8760399999999997,72.0
1774821981.0939991,0.00404047966003418,2026-03-29T22:06:21.093,2026-03-29T18:06:21.093,-31634.055,-49525.244999999995,-84432.78,-50193.945,-15113.474999999999,-20510.864999999998,4944.51,-41825.07,4.146651774473974,4.1008333495433265,5.009824377361036,4.809198284138847,-3.1241848219908017,2.6005483416613604,17.816113338164133,6.143118161559112,0.01672359,-0.969540975,-0.278868915,2.92992,4.39488,-3.8760399999999997,72.0
1774821981.0940115,1.239776611328125e-05,2026-03-29T22:06:21.094,2026-03-29T18:06:21.094,-31627.035,-49519.799999999996,-84435.3,-50207.85,-15177.51,-20552.895,4902.255,-41828.49,1.3131815853559343,0.0017238731928364995,-0.8460428059424726,-1.8455237636608721,-11.698685341518757,-8.619692688327,2.6624695085728773,6.572046221269811,0.01672359,-0.969540975,-0.278868915,2.92992,4.39488,-3.8760399999999997,72.0
1774821981.097705,0.0036933422088623047,2026-03-29T22:06:21.097,2026-03-29T18:06:21.097,-31628.745,-49526.595,-84449.06999999999,-50227.604999999996,-15185.564999999999,-20563.425,4880.16,-41826.6,-1.9462245887113034,-3.8427882200683516,-5.943975977907971,-7.289913354478903,-14.483412353349994,-15.669012484092296,-13.701670583254803,3.9763912000631194,0.01916499,-0.97070064,-0.280944105,3.70818,1.9380199999999999,1.64808,72.0
1774821981.097726,2.1219253540039062e-05,2026-03-29T22:06:21.097,2026-03-29T18:06:21.097,-31631.265,-49526.909999999996,-84449.83499999999,-50225.58,-15096.105,-20511.765,4852.125,-41833.575,-4.270333020435993,-5.820341882729727,-8.138326707737905,-9.129621368921613,-10.209227999724522,-15.44879640802992,-24.087396709506844,-0.6660902426074838,0.01916499,-0.97070064,-0.280944105,3.70818,1.9380199999999999,1.64808,72.0
1774821981.1017268,0.004000663757324219,2026-03-29T22:06:21.101,2026-03-29T18:06:21.101,-31638.195,-49533.345,-84453.66,-50214.869999999995,-15041.654999999999,-20473.425,4842.0,-41840.415,-4.755130343053283,-5.2374905419557045,-6.717252159914991,-6.767582788672929,-1.0877841574169098,-8.27395177690247,-23.931163758969465,-5.319440349942362,0.01916499,-0.97070064,-0.280944105,3.70818,1.9380199999999999,1.64808,72.0
1774821981.101756,2.9325485229492188e-05,2026-03-29T22:06:21.101,2026-03-29T18:06:21.101,-31633.739999999998,-49534.47,-84457.665,-50223.78,-15094.664999999999,-20509.335,4863.33,-41834.88,-3.298661375783835,-2.5423478536262096,-2.5955780845626224,-1.5673557869786545,8.330718986268634,2.3741379034335917,-13.318621399752917,-7.7923324146566895,0.01916499,-0.97070064,-0.280944105,3.70818,1.9380199999999999,1.64808,72.0
1774821981.1116512,0.009895086288452148,2026-03-29T22:06:21.111,2026-03-29T18:06:21.111,-31632.84,-49531.365,-84455.50499999999,-50225.625,-15107.175,-20514.825,4875.525,-41838.165,-0.5911875128954613,0.9690760210036947,2.233978159950546,3.911066998143467,13.445154509415664,11.553352841219883,3.0598157818068454,-6.784643447247608,0.01916499,-0.97070064,-0.280944105,3.70818,1.9380199999999999,1.64808,72.0
1774821981.1116776,2.6464462280273438e-05,2026-03-29T22:06:21.111,2026-03-29T18:06:21.111,-31624.289999999997,-49509.945,-84424.36499999999,-50191.83,-15074.64,-20482.515,4903.2,-41846.13,2.2178916869543177,3.784791307025033,5.6754681799602436,7.1831597662838105,11.87901027514116,15.182421096920631,17.99921640538376,-2.5713436459434433,0.01916499,-0.97070064,-0.280944105,3.70818,1.9380199999999999,1.64808,72.0
1774821981.111702,2.4318695068359375e-05,2026-03-29T22:06:21.111,2026-03-29T18:06:21.111,-31615.829999999998,-49506.03,-84421.17,-50188.994999999995,-15072.75,-20480.76,4920.885,-41834.025,4.012973199094403,4.835065014803027,6.448569393498991,6.982323488322617,4.606287302626386,11.87500710647005,24.97574980802392,3.036052525610174,0.01916499,-0.97070064,-0.280944105,3.70818,1.9380199999999999,1.64808,72.0
1774821981.1117225,2.0503997802734375e-05,2026-03-29T22:06:21.111,2026-03-29T18:06:21.111,-31609.754999999997,-49500.18,-84415.905,-50185.89,-15079.814999999999,-20472.255,4914.72,-41831.145,4.151020890366877,3.8867918038555755,4.54424396931708,3.7399126031578773,-4.6159501943571835,3.4526575472945464,21.016961933295132,7.4743338087290105,0.01916499,-0.97070064,-0.280944105,3.70818,1.9380199999999999,1.64808,72.0
1774821981.1164987,0.0047762393951416016,2026-03-29T22:06:21.116,2026-03-29T18:06:21.116,-31603.59,-49492.305,-84408.20999999999,-50184.54,-15099.795,-20468.745,4899.42,-41829.119999999995,2.675805849226147,1.535319915164455,1.066992058652525,-0.7736310533216095,-11.190863304794794,-6.043894836183183,7.973144598368672,8.616775665317617,0.01916499,-0.97070064,-0.280944105,3.70818,1.9380199999999999,1.64808,72.0
1774821981.116517,1.8358230590820312e-05,2026-03-29T22:06:21.116,2026-03-29T18:06:21.116,-31616.82,-49506.975,-84425.44499999999,-50200.695,-15101.279999999999,-20498.085,4883.3099999999995,-41832.18,0.24593932052011697,-1.1484937655346161,-2.386992860433729,-4.404512411664635,-11.995137629817775,-12.314242102841991,-8.356050578564595,5.806175386347972,0.01916499,-0.97070064,-0.280944105,3.70818,1.9380199999999999,1.64808,72.0
1774821981.1187885,0.002271413803100586,2026-03-29T22:06:21.118,2026-03-29T18:06:21.118,-31641.524999999998,-49535.325,-84457.395,-50222.564999999995,-15083.82,-20521.35,4857.75,-41843.205,-2.1647878950014534,-3.1139426280340383,-4.472468863302052,-5.656321921682706,-6.88894729193229,-12.769106705766893,-20.822610877242017,0.2248096406739563,0.02099604,-0.966123015,-0.28100514,4.8831999999999995,0.50358,0.27468,72.0
1774821981.1188097,2.1219253540039062e-05,2026-03-29T22:06:21.118,2026-03-29T18:06:21.118,-31632.254999999997,-49530.689999999995,-84457.75499999999,-50226.03,-15095.609999999999,-20527.065,4876.83,-41842.034999999996,-3.6555764664438595,-3.7355392890770722,-4.608264122243531,-4.306684099465666,1.3192962056908402,-7.598165028135757,-24.08051458340323,-5.603621173548583,0.02099604,-0.966123015,-0.28100514,4.8831999999999995,0.50358,0.27468,72.0
1774821981.1258,0.006990194320678711,2026-03-29T22:06:21.125,2026-03-29T18:06:21.125,-31620.69,-49514.4,-84435.165,-50207.85,-15089.939999999999,-20501.46,4901.849999999999,-41843.835,-3.721500839713407,-2.974621333092872,-3.0710805649623136,-1.3454580451004017,8.394035520317638,0.5047845514687974,-16.886009681898507,-8.96984899222795,0.02099604,-0.966123015,-0.28100514,4.8831999999999995,0.50358,0.27468,72.0
1774821981.125818,1.811981201171875e-05,2026-03-29T22:06:21.125,2026-03-29T18:06:21.125,-31630.545,-49524.479999999996,-84443.535,-50212.979999999996,-15093.855,-20500.965,4898.565,-41842.845,-2.4032423449579845,-1.2810295471934148,-0.7076522111552817,1.6598922603858473,10.86490952951649,7.743667314044951,-2.554566230569552,-8.25627803048453,0.02099604,-0.966123015,-0.28100514,4.8831999999999995,0.50358,0.27468,72.0
1774821981.1329975,0.0071794986724853516,2026-03-29T22:06:21.132,2026-03-29T18:06:21.132,-31634.055,-49527.81,-84447.22499999999,-50216.085,-15095.88,-20503.17,4891.995,-41844.915,-0.23309712570568952,0.6645208281265553,1.5250931079069294,3.3914874760039644,7.753104430248348,11.020114213609641,12.582054817776335,-3.725273513819971,0.02099604,-0.966123015,-0.28100514,4.8831999999999995,0.50358,0.27468,72.0
1774821981.1330123,1.4781951904296875e-05,2026-03-29T22:06:21.133,2026-03-29T18:06:21.133,-31632.254999999997,-49525.064999999995,-84441.42,-50213.295,-15097.724999999999,-20503.755,4886.82,-41840.685,1.9800268822356435,2.2227646185400927,2.9443740195698167,3.364833438263821,0.9626682975256734,9.26817375153581,21.992187096774956,2.5703615030365476,0.02099604,-0.966123015,-0.28100514,4.8831999999999995,0.50358,0.27468,72.0
1774821981.1330261,1.3828277587890625e-05,2026-03-29T22:06:21.133,2026-03-29T18:06:21.133,-31633.965,-49529.7,-84447.72,-50224.77,-15113.519999999999,-20520.945,4873.139999999999,-41830.695,3.4394753581356694,2.9744060685846474,3.2975178717631284,2.00731634327093,-5.822253367430067,3.744493019583464,21.771239763763994,7.728271168742146,0.02099604,-0.966123015,-0.28100514,4.8831999999999995,0.50358,0.27468,72.0
1774821981.133031,4.76837158203125e-06,2026-03-29T22:06:21.133,2026-03-29T18:06:21.133,-31639.364999999998,-49545.72,-84476.295,-50253.39,-15138.539999999999,-20547.09,4860.675,-41821.02,3.627631906936297,2.775578623833418,2.6914104315111755,0.2628465496788064,-9.11694960728095,-2.7675755286756765,12.251649045221006,9.352233601752756,0.02099604,-0.966123015,-0.28100514,4.8831999999999995,0.50358,0.27468,72.0
1774821981.143362,0.010331153869628906,2026-03-29T22:06:21.143,2026-03-29T18:06:21.143,-31633.92,-49535.64,-84461.4,-50239.215,-15125.715,-20532.059999999998,4863.195,-41823.99,2.4734784121068403,1.7292213843114685,1.4164834351258524,-0.9989400367955357,-7.436608227045673,-7.367409301981868,-2.2614742539742765,6.681123933459322,0.02099604,-0.966123015,-0.28100514,4.8831999999999995,0.50358,0.27468,72.0
1774821981.1434484,8.630752563476562e-05,2026-03-29T22:06:21.143,2026-03-29T18:06:21.143,-31619.43,-49504.32,-84415.545,-50195.43,-15088.23,-20497.5,4837.59,-41842.89,0.37691296702326615,0.13092986508236323,-0.1928708743253089,-1.4191327151074575,-1.9833679295167044,-8.343351180177367,-15.451636831750816,0.9521020474888989,0.02099604,-0.966123015,-0.28100514,4.8831999999999995,0.50358,0.27468,72.0
1774821981.143469,2.0742416381835938e-05,2026-03-29T22:06:21.143,2026-03-29T18:06:21.143,-31635.585,-49514.265,-84422.565,-50198.85,-15090.255,-20502.765,4812.345,-41867.64,-1.9166340054340123,-1.5816451947601087,-1.7937953719896336,-1.210801972414394,4.106464730431374,-5.780620227592822,-21.747531956766185,-5.177944205095691,0.019592235,-0.959287095,-0.28088307,-0.5341,-2.57894,4.2270199999999996,72.0
1774821981.1434762,7.152557373046875e-06,2026-03-29T22:06:21.143,2026-03-29T18:06:21.143,-31636.574999999997,-49521.284999999996,-84434.895,-50204.835,-15088.365,-20497.23,4868.775,-41861.924999999996,-3.559967638743254,-2.8922052159902067,-3.006177211824571,-0.8659257886957411,7.5145254579457275,-1.2718548809652739,-18.66795652240008,-8.87925013378926,0.019592235,-0.959287095,-0.28088307,-0.5341,-2.57894,4.2270199999999996,72.0
1774821981.1434846,8.344650268554688e-06,2026-03-29T22:06:21.143,2026-03-29T18:06:21.143,-31608.675,-49499.415,-84417.03,-50184.27,-15056.324999999999,-20455.245,4962.375,-41826.78,-3.8996600973451137,-3.317709477453535,-3.4216400034636223,-0.7376448253469058,6.532012321555108,3.0177458692255326,-7.773416578374207,-8.472172519718683,0.019592235,-0.959287095,-0.28088307,-0.5341,-2.57894,4.2270199999999996,72.0
1774821981.1434903,5.7220458984375e-06,2026-03-29T22:06:21.143,2026-03-29T18:06:21.143,-31615.965,-49510.17,-84429.72,-50202.45,-15076.125,-20472.344999999998,4944.6449999999995,-41823.225,-2.730877315051858,-2.576458164296642,-2.7248041556061366,-0.783992127351314,1.9303116667448161,5.400737837067819,6.124264571208447,-4.200034983137451,0.019592235,-0.959287095,-0.28088307,-0.5341,-2.57894,4.2270199999999996,72.0
1774821981.1456704,0.0021800994873046875,2026-03-29T22:06:21.145,2026-03-29T18:06:21.145,-31621.184999999998,-49513.59,-84432.78,-50204.79,-15083.955,-20491.739999999998,4914.63,-41827.229999999996,-0.41527122758444696,-0.7601356030954656,-0.9015338724710487,-0.6373021559166203,-3.538423229578042,5.318879718783675,17.092547108310807,1.9085667900061047,0.019592235,-0.959287095,-0.28088307,-0.5341,-2.57894,4.2270199999999996,72.0
1774821981.145684,1.3589859008789062e-05,2026-03-29T22:06:21.145,2026-03-29T18:06:21.145,-31622.805,-49515.705,-84434.715,-50208.119999999995,-15089.849999999999,-20503.755,4903.785,-41825.7,2.203699959901381,1.5902377929867162,1.5936016683245782,0.057307860072440285,-6.714615085772356,3.351071576728603,20.60228845882374,7.012291811539994,0.019592235,-0.959287095,-0.28088307,-0.5341,-2.57894,4.2270199999999996,72.0
1774821981.149619,0.003935098648071289,2026-03-29T22:06:21.149,2026-03-29T18:06:21.149,-31619.52,-49511.97,-84430.75499999999,-50206.455,-15085.71,-20495.969999999998,4899.0599999999995,-41823.674999999996,4.087434294957601,3.5960277331543806,3.8659906064125193,1.273674190534503,-5.804357031267691,0.6908396768472747,15.37635184552834,8.793611365462086,0.019592235,-0.959287095,-0.28088307,-0.5341,-2.57894,4.2270199999999996,72.0
1774821981.1496384,1.9311904907226562e-05,2026-03-29T22:06:21.149,2026-03-29T18:06:21.149,-31622.715,-49516.29,-84435.66,-50214.825,-15097.14,-20503.26,4893.929999999999,-41825.655,4.40605958482777,4.353898290752774,4.87870482991918,2.4768210222047213,-1.3765682518838096,-1.5433473550364862,3.8212324324695595,6.523640260680778,0.019592235,-0.959287095,-0.28088307,-0.5341,-2.57894,4.2270199999999996,72.0
1774821981.1560273,0.00638890266418457,2026-03-29T22:06:21.156,2026-03-29T18:06:21.156,-31623.164999999997,-49515.479999999996,-84433.72499999999,-50211.854999999996,-15094.215,-20505.105,4891.005,-41828.805,2.907300440834245,3.3479468535179673,3.9345429671972942,2.8623774170837843,3.9634317401874375,-2.7782439624097126,-9.082705489880976,1.360233970630886,0.019592235,-0.959287095,-0.28088307,-0.5341,-2.57894,4.2270199999999996,72.0
1774821981.156046,1.8596649169921875e-05,2026-03-29T22:06:21.156,2026-03-29T18:06:21.156,-31615.92,-49507.29,-84423.87,-50206.365,-15091.425,-20503.26,4894.245,-41826.78,0.0851012858088598,0.7708054053903985,1.114484013970867,1.854413284014882,7.045520487770214,-3.0388887633790174,-17.91876666095163,-4.242162163662022,0.019592235,-0.959287095,-0.28088307,-0.5341,-2.57894,4.2270199999999996,72.0
1774821981.1560612,1.52587890625e-05,2026-03-29T22:06:21.156,2026-03-29T18:06:21.156,-31626.0,-49519.755,-84436.965,-50215.994999999995,-15101.055,-20516.04,4884.705,-41833.26,-2.9557603016775333,-2.43609390848753,-2.5891539507408194,-0.4325170282216686,5.941643951173984,-2.659082071679373,-19.086652819128926,-7.709771721435015,0.0195312,-0.9589208850000001,-0.28124928,-4.18124,-4.24228,4.97476,72.0
1774821981.1560662,5.0067901611328125e-06,2026-03-29T22:06:21.156,2026-03-29T18:06:21.156,-31632.84,-49526.46,-84443.895,-50215.814999999995,-15103.529999999999,-20529.765,4842.135,-41840.505,-4.9205438137518245,-4.9039045948431355,-5.589306122053104,-3.0781090290880164,1.1046112400510373,-1.9145603261906858,-12.245771476694147,-7.5440919449486294,0.0195312,-0.9589208850000001,-0.28124928,-4.18124,-4.24228,4.97476,72.0
1774821981.1617985,0.005732297897338867,2026-03-29T22:06:21.161,2026-03-29T18:06:21.161,-31621.77,-49518.134999999995,-84439.75499999999,-50217.299999999996,-15104.789999999999,-20521.079999999998,4822.5599999999995,-41837.445,-4.877468637839957,-5.42357647057884,-6.390166490792469,-4.722911774465531,-4.8105616460543645,-0.8492989046202956,-0.38478055834101815,-3.9736486049567334,0.0195312,-0.9589208850000001,-0.28124928,-4.18124,-4.24228,4.97476,72.0
1774821981.1618202,2.1696090698242188e-05,2026-03-29T22:06:21.161,2026-03-29T18:06:21.161,-31643.594999999998,-49528.17,-84443.44499999999,-50229.72,-15114.42,-20498.489999999998,4847.67,-41856.975,-2.7060945998682513,-3.5458495544704394,-4.3434189007271,-4.273176540259546,-8.376358513274933,0.6029998026261773,11.474693911699966,1.2223626595693395,0.0195312,-0.9589208850000001,-0.28124928,-4.18124,-4.24228,4.97476,72.0
1774821981.1658597,0.0040395259857177734,2026-03-29T22:06:21.165,2026-03-29T18:06:21.165,-31623.344999999998,-49512.689999999995,-84428.64,-50216.715,-15123.914999999999,-20484.27,4925.025,-41825.205,0.7772984153233289,0.10676655879350727,-0.08833080142579382,-1.5763600739889225,-7.31354241599072,2.326156512525096,18.38251069516498,5.603273703950832,0.0195312,-0.9589208850000001,-0.28124928,-4.18124,-4.24228,4.97476,72.0
1774821981.165881,2.1219253540039062e-05,2026-03-29T22:06:21.165,2026-03-29T18:06:21.165,-31614.39,-49511.384999999995,-84431.52,-50216.31,-15109.605,-20501.325,4935.6449999999995,-41812.47,4.110113896777469,4.012578514259848,4.598902912599504,2.331872519364445,-1.8498343643990265,3.8173909288217756,17.502796821792227,7.222932005964216,0.0195312,-0.9589208850000001,-0.28124928,-4.18124,-4.24228,4.97476,72.0
1774821981.1698132,0.00393223762512207,2026-03-29T22:06:21.169,2026-03-29T18:06:21.169,-31624.605,-49517.235,-84434.22,-50207.265,-15061.724999999999,-20497.094999999998,4900.005,-41825.43,5.796337651512231,6.382901516964438,7.5462462126564125,5.6107332683426,5.260943966390794,4.2876200477692095,9.265655498012752,5.5003411543482175,0.0195312,-0.9589208850000001,-0.28124928,-4.18124,-4.24228,4.97476,72.0
1774821981.169839,2.574920654296875e-05,2026-03-29T22:06:21.169,2026-03-29T18:06:21.169,-31620.015,-49510.53,-84426.885,-50199.345,-15062.039999999999,-20497.815,4886.235,-41831.01,4.986098446282159,5.992469051582431,7.2086154229754955,6.4945667434099725,10.127631799574704,3.0801701902237673,-2.832378129398829,1.4126555694004783,0.0195312,-0.9589208850000001,-0.28124928,-4.18124,-4.24228,4.97476,72.0
1774821981.173448,0.003609180450439453,2026-03-29T22:06:21.173,2026-03-29T18:06:21.173,-31621.05,-49511.564999999995,-84428.50499999999,-50203.439999999995,-15081.57,-20504.52,4878.224999999999,-41834.88,1.9096001008885006,2.817496094142239,3.483474978099176,4.243520682376108,9.817252143657425,0.18562034124697624,-13.690727130531426,-3.0438792457227253,0.0195312,-0.9589208850000001,-0.28124928,-4.18124,-4.24228,4.97476,72.0
1774821981.1734762,2.8133392333984375e-05,2026-03-29T22:06:21.173,2026-03-29T18:06:21.173,-31628.969999999998,-49523.534999999996,-84442.095,-50216.805,-15098.175,-20517.434999999998,4874.804999999999,-41832.81,-2.1582061124506833,-1.8524125685872215,-2.1129283762819555,-0.34652896868651956,4.041161794562553,-3.4878870267847533,-18.730313677259947,-5.832789489963365,0.0195312,-0.9589208850000001,-0.28124928,-4.18124,-4.24228,4.97476,72.0
1774821981.1775887,0.0041124820709228516,2026-03-29T22:06:21.177,2026-03-29T18:06:21.177,-31635.989999999998,-49534.38,-84455.775,-50231.744999999995,-15109.695,-20521.89,4876.0199999999995,-41829.165,-5.421183120323633,-5.930458936215339,-7.054718924017016,-5.196052349068164,-4.509388569143157,-6.34008190534866,-15.810444464773044,-5.813819546597352,0.019714305,-0.962827125,-0.28106617500000003,-2.99096,-4.7306,5.58516,72.0
1774821981.177618,2.9325485229492188e-05,2026-03-29T22:06:21.177,2026-03-29T18:06:21.177,-31635.629999999997,-49525.83,-84441.915,-50218.92,-15097.545,-20508.03,4854.33,-41837.939999999995,-6.361673589577925,-7.474751476358841,-8.960778841215586,-7.894995247115803,-11.429377050009663,-6.784716907738188,-6.142729335949655,-3.2035178030355174,0.019714305,-0.962827125,-0.28106617500000003,-2.99096,-4.7306,5.58516,72.0
1774821981.1839721,0.006354093551635742,2026-03-29T22:06:21.183,2026-03-29T18:06:21.183,-31643.864999999998,-49537.935,-84455.81999999999,-50236.02,-15113.43,-20520.0,4854.87,-41839.515,-4.457281398612072,-5.626582562551933,-6.760087262986647,-6.914967548364551,-12.866502485991681,-4.120589291944309,6.190307879454319,0.6227227240937597,0.019714305,-0.962827125,-0.28106617500000003,-2.99096,-4.7306,5.58516,72.0
1774821981.183982,9.775161743164062e-06,2026-03-29T22:06:21.183,2026-03-29T18:06:21.183,-31625.73,-49517.82,-84433.31999999999,-50214.375,-15093.09,-20499.57,4900.7699999999995,-41832.765,-0.47141455842317215,-1.0856699618875831,-1.289993197273692,-2.464801941211493,-7.6225165320442905,0.9059782100265769,15.932812392812815,3.8486420521264924,0.019714305,-0.962827125,-0.28106617500000003,-2.99096,-4.7306,5.58516,72.0
1774821981.1839921,1.0251998901367188e-05,2026-03-29T22:06:21.183,2026-03-29T18:06:21.183,-31608.539999999997,-49502.205,-84417.03,-50201.325,-15083.324999999999,-20488.68,4923.045,-41813.28,3.843544937848799,4.13908829365937,5.004390027738199,3.484715825191416,2.0410103884054354,6.223009673152286,18.87806259024626,5.082413962073314,0.019714305,-0.962827125,-0.28106617500000003,-2.99096,-4.7306,5.58516,72.0
1774821981.183997,4.76837158203125e-06,2026-03-29T22:06:21.183,2026-03-29T18:06:21.183,-31613.535,-49500.27,-84400.965,-50189.85,-15078.779999999999,-20481.344999999998,4900.5,-41824.215,6.520418886756641,7.624087526586831,9.172574647514864,8.07900981739009,11.385570917997141,9.286807801611133,13.685564484537089,3.9552667783897713,0.019714305,-0.962827125,-0.28106617500000003,-2.99096,-4.7306,5.58516,72.0
1774821981.1895044,0.005507469177246094,2026-03-29T22:06:21.189,2026-03-29T18:06:21.189,-31615.515,-49499.369999999995,-84406.05,-50187.104999999996,-15069.465,-20476.575,4889.61,-41836.77,6.285105432441558,7.669805537155856,9.161333472810632,8.966866944571665,15.536528163564464,8.31632865327939,2.507661661135562,1.1971304683123638,0.019714305,-0.962827125,-0.28106617500000003,-2.99096,-4.7306,5.58516,72.0
1774821981.1895256,2.1219253540039062e-05,2026-03-29T22:06:21.189,2026-03-29T18:06:21.189,-31626.0,-49514.715,-84428.50499999999,-50204.88,-15081.84,-20487.915,4895.415,-41837.805,3.1741209898919003,4.142256466473842,4.841944936761462,5.51465513318255,12.017756414375631,3.3015701546416665,-9.875022313890993,-1.8002573332354115,0.019714305,-0.962827125,-0.28106617500000003,-2.99096,-4.7306,5.58516,72.0
1774821981.196237,0.006711483001708984,2026-03-29T22:06:21.196,2026-03-29T18:06:21.196,-31626.809999999998,-49515.84,-84429.405,-50205.284999999996,-15082.515,-20493.09,4884.03,-41835.465,-1.442264135619335,-1.4047111419083298,-1.858286684355209,-0.7836148443551679,2.165009439166044,-3.774232822469894,-18.077702565018765,-3.6825564078577013,0.019714305,-0.962827125,-0.28106617500000003,-2.99096,-4.7306,5.58516,72.0
1774821981.1962607,2.3603439331054688e-05,2026-03-29T22:06:21.196,2026-03-29T18:06:21.196,-31636.71,-49528.485,-84444.345,-50218.65,-15098.22,-20516.625,4846.05,-41837.354999999996,-5.4636986393908265,-6.414702308560881,-7.819174631943634,-6.951193171774583,-9.366687332184522,-9.705746542650092,-18.449108895176686,-3.7438090831627857,0.019714305,-0.962827125,-0.28106617500000003,-2.99096,-4.7306,5.58516,72.0
1774821981.196283,2.2411346435546875e-05,2026-03-29T22:06:21.196,2026-03-29T18:06:21.196,-31644.675,-49541.625,-84461.31,-50231.835,-15107.13,-20520.495,4854.33,-41832.854999999996,-7.02436351262872,-8.519093003577426,-10.197264296893621,-9.950960327839743,-16.8282288249164,-11.537673448848555,-10.709867912891847,-2.174018114029401,0.01599117,-0.965512665,-0.282042735,-1.2818399999999999,-6.34816,6.31764,72.0
1774821981.1962907,7.62939453125e-06,2026-03-29T22:06:21.196,2026-03-29T18:06:21.196,-31627.98,-49518.765,-84435.705,-50213.07,-15088.41,-20488.5,4903.605,-41826.375,-5.371373740102962,-6.6725389337694265,-7.802023726482942,-8.19839059129504,-16.258888316750248,-8.052582939167978,1.8502928751043939,0.13281085661381134,0.01599117,-0.965512665,-0.282042735,-1.2818399999999999,-6.34816,6.31764,72.0
1774821981.2017343,0.005443572998046875,2026-03-29T22:06:21.201,2026-03-29T18:06:21.201,-31617.315,-49502.835,-84416.715,-50197.365,-15073.74,-20467.844999999998,4924.485,-41824.17,-1.2377092471286175,-1.6824266278200872,-1.7038869191462158,-2.4039118629837497,-7.573619911523968,-0.5193240967107133,13.74807630304477,2.0709404013261206,0.01599117,-0.965512665,-0.282042735,-1.2818399999999999,-6.34816,6.31764,72.0
1774821981.2017684,3.409385681152344e-05,2026-03-29T22:06:21.201,2026-03-29T18:06:21.201,-31620.824999999997,-49511.07,-84427.2,-50207.354999999996,-15086.474999999999,-20497.05,4890.87,-41826.015,3.4790429434697767,4.139791851195398,5.240856372742046,4.704685130561695,5.239272781292748,7.737329352424462,19.692176279316808,2.850133721229276,0.01599117,-0.965512665,-0.282042735,-1.2818399999999999,-6.34816,6.31764,72.0
1774821981.2056324,0.0038640499114990234,2026-03-29T22:06:21.205,2026-03-29T18:06:21.205,-31617.09,-49507.92,-84424.05,-50205.284999999996,-15086.654999999999,-20505.735,4873.635,-41827.59,6.593252499553941,8.057032508871353,9.738869007662748,9.677251649267541,15.974765085507283,12.819142629357234,16.94512354168012,2.307433512225514,0.01599117,-0.965512665,-0.282042735,-1.2818399999999999,-6.34816,6.31764,72.0
1774821981.205654,2.1457672119140625e-05,2026-03-29T22:06:21.205,2026-03-29T18:06:21.205,-31623.48,-49510.53,-84422.61,-50201.369999999995,-15078.599999999999,-20493.315,4865.76,-41837.49,6.65565849317354,8.207979904928287,9.640065438966781,10.03362137350851,19.246259893082186,12.120965797192335,6.602476823499169,0.8866045571178583,0.01599117,-0.965512665,-0.282042735,-1.2818399999999999,-6.34816,6.31764,72.0
1774821981.2095628,0.003908872604370117,2026-03-29T22:06:21.209,2026-03-29T18:06:21.209,-31624.379999999997,-49513.5,-84426.84,-50205.195,-15081.345,-20496.105,4864.95,-41834.97,3.6401748111255716,4.506074117210793,4.9827305172925405,5.515114288327525,13.201312097613528,5.6762233958156125,-6.81750046828434,-0.6580364695190524,0.01599117,-0.965512665,-0.282042735,-1.2818399999999999,-6.34816,6.31764,72.0
1774821981.209597,3.4332275390625e-05,2026-03-29T22:06:21.209,2026-03-29T18:06:21.209,-31620.96,-49512.78,-84428.91,-50207.805,-15085.035,-20498.355,4880.07,-41828.085,-1.037920719174143,-1.3044120582922263,-2.011995076755215,-1.7423298409833177,0.5429271576702447,-3.7170760637479794,-17.336173600295208,-1.652845352405907,0.01599117,-0.965512665,-0.282042735,-1.2818399999999999,-6.34816,6.31764,72.0
1774821981.2155008,0.005903720855712891,2026-03-29T22:06:21.215,2026-03-29T18:06:21.215,-31612.05,-49502.79,-84419.595,-50200.064999999995,-15079.769999999999,-20493.495,4876.65,-41823.314999999995,-5.187024932849366,-6.472314617715585,-8.003164719381179,-8.223056613989156,-12.696835117602436,-11.717813831756155,-20.182553598411985,-1.791457594001056,0.01599117,-0.965512665,-0.282042735,-1.2818399999999999,-6.34816,6.31764,72.0
1774821981.2155223,2.1457672119140625e-05,2026-03-29T22:06:21.215,2026-03-29T18:06:21.215,-31627.215,-49512.42,-84426.56999999999,-50203.08,-15079.545,-20489.265,4882.005,-41832.045,-6.87450416929516,-8.553202630395637,-10.139715038247836,-10.749662542599818,-20.066311255895727,-14.474461740996823,-13.973722486158914,-1.1987529688520815,0.01599117,-0.965512665,-0.282042735,-1.2818399999999999,-6.34816,6.31764,72.0
1774821981.2177496,0.002227306365966797,2026-03-29T22:06:21.217,2026-03-29T18:06:21.217,-31640.219999999998,-49526.82,-84439.26,-50211.585,-15084.945,-20492.73,4914.135,-41835.284999999996,-5.3392271378506715,-6.580413532874363,-7.434767684656364,-8.057548756623454,-17.867881395874647,-10.505255408216124,-1.402597006310534,-0.28215386477015236,0.014221155000000001,-0.96825924,-0.280455825,-2.10588,-8.13358,7.3248,72.0
1774821981.2177663,1.6689300537109375e-05,2026-03-29T22:06:21.217,2026-03-29T18:06:21.217,-31627.754999999997,-49522.68,-84438.22499999999,-50214.645,-15091.109999999999,-20501.46,4912.5599999999995,-41822.505,-1.3448549865678499,-1.5259041933021027,-1.2342839613546204,-1.4383885380090218,-7.021492002700224,-1.4968467069870286,11.916176238733279,0.5166615457866629,0.014221155000000001,-0.96825924,-0.280455825,-2.10588,-8.13358,7.3248,72.0
1774821981.2255013,0.007735013961791992,2026-03-29T22:06:21.225,2026-03-29T18:06:21.225,-31632.12,-49526.82,-84445.56,-50223.645,-15100.56,-20513.07,4874.355,-41832.54,3.194764722655263,4.173999357682002,5.448115443136776,5.879092679783311,7.324987375292762,8.409082518012015,19.955157477300208,0.9276027557570904,0.014221155000000001,-0.96825924,-0.280455825,-2.10588,-8.13358,7.3248,72.0
1774821981.225526,2.47955322265625e-05,2026-03-29T22:06:21.225,2026-03-29T18:06:21.225,-31634.954999999998,-49526.82,-84443.355,-50218.02,-15092.099999999999,-20507.175,4873.724999999999,-41840.189999999995,6.136317801884815,7.798209515404283,9.402811159253943,10.31406474754849,18.271290825014017,14.541529379303547,19.015920993732117,0.9227936263860459,0.014221155000000001,-0.96825924,-0.280455825,-2.10588,-8.13358,7.3248,72.0
1774821981.2255528,2.6702880859375e-05,2026-03-29T22:06:21.225,2026-03-29T18:06:21.225,-31620.51,-49514.67,-84429.9,-50204.61,-15079.59,-20499.66,4893.929999999999,-41822.82,6.129078658864123,7.652131066216198,8.780168004451024,9.701355950171223,20.521413474277868,13.93294521940211,9.449033325948358,0.6487075973117791,0.014221155000000001,-0.96825924,-0.280455825,-2.10588,-8.13358,7.3248,72.0
1774821981.2255597,6.9141387939453125e-06,2026-03-29T22:06:21.225,2026-03-29T18:06:21.225,-31614.885,-49509.314999999995,-84423.555,-50207.04,-15089.535,-20506.5,4891.635,-41815.034999999996,3.2462699680928906,3.873142895267801,3.9699589364674113,4.362239755232983,12.971750572191215,6.77830007525972,-4.457194239323148,0.2917104075684197,0.014221155000000001,-0.96825924,-0.280455825,-2.10588,-8.13358,7.3248,72.0
1774821981.2411332,0.015573501586914062,2026-03-29T22:06:21.241,2026-03-29T18:06:21.241,-31612.905,-49504.275,-84411.675,-50202.0,-15088.769999999999,-20501.325,4872.96,-41821.29,-1.0745711315419209,-1.6584783563650198,-2.620346414830478,-3.0573517092311766,-0.7456979106994163,-3.606770977007759,-16.397634038813784,-0.02966233408268788,0.014221155000000001,-0.96825924,-0.280455825,-2.10588,-8.13358,7.3248,72.0
1774821981.2411819,4.863739013671875e-05,2026-03-29T22:06:21.241,2026-03-29T18:06:21.241,-31625.145,-49514.939999999995,-84420.62999999999,-50211.225,-15102.945,-20505.285,4855.32,-41831.01,-4.7455845349834345,-6.253071264574704,-7.768884708970358,-8.902080623892504,-14.033537296758404,-12.335806573053402,-20.921273048793132,-0.28878983843114997,0.014221155000000001,-0.96825924,-0.280455825,-2.10588,-8.13358,7.3248,72.0
1774821981.2412083,2.6464462280273438e-05,2026-03-29T22:06:21.241,2026-03-29T18:06:21.241,-31633.379999999997,-49536.72,-84454.065,-50252.58,-15172.199999999999,-20553.434999999998,4838.445,-41815.395,-6.043218254272336,-7.7265590655299645,-9.022963491307205,-10.31990436655238,-20.53981214406598,-15.278712220603573,-15.938578315321458,-0.49912987936815484,0.014221155000000001,-0.96825924,-0.280455825,-2.10588,-8.13358,7.3248,72.0
1774821981.2412202,1.1920928955078125e-05,2026-03-29T22:06:21.241,2026-03-29T18:06:21.241,-31631.579999999998,-49539.284999999996,-84458.295,-50263.29,-15212.744999999999,-20596.094999999998,4827.51,-41809.994999999995,-4.427664726223342,-5.45059797388568,-5.880472495778396,-6.66768509842659,-17.23002274127838,-11.045246252081224,-3.702078311007064,-0.6441194106271365,0.014221155000000001,-0.96825924,-0.280455825,-2.10588,-8.13358,7.3248,72.0
1774821981.2412343,1.4066696166992188e-05,2026-03-29T22:06:21.241,2026-03-29T18:06:21.241,-31608.675,-49486.455,-84381.075,-50172.479999999996,-15120.269999999999,-20537.145,4850.91,-41836.5,-0.7727576581194401,-0.6275438866500528,0.005843363926470792,0.1893573413069593,-5.818569543191657,-1.659073808008364,10.208035273611646,-0.652035044244579,0.014892540000000001,-0.973447215,-0.27923512500000003,-1.4039199999999998,-8.68294,9.079699999999999,72.0
1774821981.2412443,1.0013580322265625e-05,2026-03-29T22:06:21.241,2026-03-29T18:06:21.241,-31623.885,-49501.619999999995,-84394.305,-50172.255,-15086.115,-20511.63,4914.72,-41845.725,3.094569332026884,4.333737862625693,5.686300316973505,6.827428232810865,8.123119289364164,8.411975281131276,19.43890169207205,-0.4403878924487725,0.014892540000000001,-0.973447215,-0.27923512500000003,-1.4039199999999998,-8.68294,9.079699999999999,72.0
1774821981.2467308,0.005486488342285156,2026-03-29T22:06:21.246,2026-03-29T18:06:21.246,-31610.16,-49500.494999999995,-84405.78,-50183.1,-14992.244999999999,-20419.515,4954.905,-41821.965,5.306836897929352,7.021094072395954,8.39298887508474,9.980252064833152,17.916374167836207,14.403372865983592,19.78570672391149,0.00047829099299038125,0.014892540000000001,-0.973447215,-0.27923512500000003,-1.4039199999999998,-8.68294,9.079699999999999,72.0
1774821981.2467616,3.075599670410156e-05,2026-03-29T22:06:21.246,2026-03-29T18:06:21.246,-31630.14,-49524.119999999995,-84434.94,-50210.955,-15018.705,-20449.89,4897.26,-41829.975,4.86470818900928,6.199884125752657,6.897190405259907,8.158012428953747,19.012794908236582,13.537289516279904,11.12544686950111,0.5488875845374687,0.014892540000000001,-0.973447215,-0.27923512500000003,-1.4039199999999998,-8.68294,9.079699999999999,72.0
1774821981.2467864,2.47955322265625e-05,2026-03-29T22:06:21.246,2026-03-29T18:06:21.246,-31635.225,-49525.965,-84434.94,-50222.655,-15082.38,-20505.42,4822.0199999999995,-41843.79,2.096384386569117,2.389585067178682,2.075692688385932,2.3612424638833986,11.132959941860497,6.334221604920668,-2.5352941694751356,0.9726923135437132,0.014892540000000001,-0.973447215,-0.27923512500000003,-1.4039199999999998,-8.68294,9.079699999999999,72.0
1774821981.2467976,1.1205673217773438e-05,2026-03-29T22:06:21.246,2026-03-29T18:06:21.246,-31626.09,-49515.84,-84426.795,-50225.22,-15097.994999999999,-20513.969999999998,4810.5,-41843.97,-1.5473930313367115,-2.4375260641204566,-3.579089569901375,-4.456983918566666,-1.7113905895695707,-3.6773412228783493,-14.921005759765638,1.034860810531823,0.014892540000000001,-0.973447215,-0.27923512500000003,-1.4039199999999998,-8.68294,9.079699999999999,72.0
1774821981.2497852,0.0029876232147216797,2026-03-29T22:06:21.249,2026-03-29T18:06:21.249,-31624.199999999997,-49515.165,-84425.715,-50218.38,-15089.039999999999,-20504.43,4899.105,-41813.865,-4.244911167309847,-5.869290350167283,-7.239579210378127,-8.895580427817203,-13.270776284245612,-11.698189829895913,-20.38920789593879,0.6315380020543977,0.014892540000000001,-0.973447215,-0.27923512500000003,-1.4039199999999998,-8.68294,9.079699999999999,72.0
1774821981.2497969,1.1682510375976562e-05,2026-03-29T22:06:21.249,2026-03-29T18:06:21.249,-31619.655,-49512.33,-84414.19499999999,-50185.259999999995,-15051.779999999999,-20467.755,4951.215,-41807.61,-4.715380657730747,-6.26076877061413,-7.1589527835084334,-8.809647462292999,-18.13120618028941,-13.9828442308692,-16.522443619752806,-0.11933097035956967,0.014892540000000001,-0.973447215,-0.27923512500000003,-1.4039199999999998,-8.68294,9.079699999999999,72.0
1774821981.254026,0.004229068756103516,2026-03-29T22:06:21.254,2026-03-29T18:06:21.254,-31638.239999999998,-49531.049999999996,-84433.815,-50206.994999999995,-15073.56,-20486.34,4880.925,-41839.695,-2.8338797363667756,-3.530362014134661,-3.512171200703361,-4.356730119525615,-14.281462888550319,-9.614328012594825,-5.208650353602706,-0.9015742935934883,0.014892540000000001,-0.973447215,-0.27923512500000003,-1.4039199999999998,-8.68294,9.079699999999999,72.0
1774821981.2540567,3.075599670410156e-05,2026-03-29T22:06:21.254,2026-03-29T18:06:21.254,-31620.195,-49515.975,-84427.33499999999,-50209.56,-15076.394999999999,-20481.84,4892.445,-41831.64,0.34916809103587576,0.843945757203048,1.7463083378192061,2.1297098330983153,-3.9426386536225175,-0.8764161700069998,8.279554480283913,-1.3395133994490331,0.014892540000000001,-0.973447215,-0.27923512500000003,-1.4039199999999998,-8.68294,9.079699999999999,72.0
1774821981.2578473,0.003790616989135742,2026-03-29T22:06:21.257,2026-03-29T18:06:21.257,-31607.594999999998,-49498.29,-84405.33,-50185.395,-15055.335,-20467.35,4920.255,-41822.145,3.17728852904712,4.609213439388379,5.914694802849524,7.356308475053893,7.680353308516335,7.930240996775545,17.758597665596188,-1.1874657911881072,0.01171872,-0.9751561950000001,-0.280944105,0.19838,-11.41448,9.11022,72.0
1774821981.2578576,1.0251998901367188e-05,2026-03-29T22:06:21.257,2026-03-29T18:06:21.257,-31612.86,-49504.994999999995,-84413.025,-50192.865,-15066.045,-20481.255,4912.74,-41818.185,4.243577738740423,5.892080795611374,6.9263862177805215,8.744007118485728,15.035661329812115,12.617669847409703,18.992564179342164,-0.4701769066482329,0.01171872,-0.9751561950000001,-0.280944105,0.19838,-11.41448,9.11022,72.0
1774821981.2618308,0.003973245620727539,2026-03-29T22:06:21.261,2026-03-29T18:06:21.261,-31619.52,-49515.075,-84427.11,-50206.185,-15078.779999999999,-20491.515,4900.41,-41818.725,3.092913533265349,4.133506026497917,4.3772394177402045,5.7080988154244,14.906576923963499,11.125088834226574,11.603596608466344,0.5067281923104793,0.01171872,-0.9751561950000001,-0.280944105,0.19838,-11.41448,9.11022,72.0
1774821981.261852,2.1219253540039062e-05,2026-03-29T22:06:21.261,2026-03-29T18:06:21.261,-31623.21,-49519.619999999995,-84433.36499999999,-50213.295,-15083.73,-20492.774999999998,4894.65,-41819.805,0.41898709897187336,0.33584148693261207,-0.3145408741465231,-0.09465224610584201,7.829503445074432,4.438728917577788,-0.836730118146262,1.2915688341466214,0.01171872,-0.9751561950000001,-0.280944105,0.19838,-11.41448,9.11022,72.0
1774821981.27076,0.00890803337097168,2026-03-29T22:06:21.270,2026-03-29T18:06:21.270,-31624.379999999997,-49518.314999999995,-84429.09,-50208.479999999996,-15079.23,-20489.535,4895.55,-41820.255,-2.3307503003995897,-3.488821395388265,-4.678444620801794,-5.6566563323619965,-2.3823469794681618,-4.000354688591614,-12.541902171287841,1.5043358366588062,0.01171872,-0.9751561950000001,-0.280944105,0.19838,-11.41448,9.11022,72.0
1774821981.2707784,1.8358230590820312e-05,2026-03-29T22:06:21.270,2026-03-29T18:06:21.270,-31626.809999999998,-49519.395,-84430.62,-50210.595,-15083.369999999999,-20494.53,4881.51,-41822.145,-3.7250398786212813,-5.372399533971252,-6.480458335165969,-8.174153010982362,-10.678175440838833,-10.062862013683933,-18.225287101691166,1.0277813959272228,0.01171872,-0.9751561950000001,-0.280944105,0.19838,-11.41448,9.11022,72.0
1774821981.2708015,2.3126602172851562e-05,2026-03-29T22:06:21.270,2026-03-29T18:06:21.270,-31626.719999999998,-49520.61,-84433.31999999999,-50215.59,-15089.805,-20502.135,4872.51,-41822.775,-3.0890199715105067,-4.399270920951351,-4.862698123650439,-6.463645172468569,-13.286982837797927,-10.966208304944361,-15.510840349252312,0.07245808416329459,0.01171872,-0.9751561950000001,-0.280944105,0.19838,-11.41448,9.11022,72.0
1774821981.2708063,4.76837158203125e-06,2026-03-29T22:06:21.270,2026-03-29T18:06:21.270,-31626.09,-49520.159999999996,-84429.58499999999,-50214.33,-15089.894999999999,-20498.85,4889.745,-41823.135,-0.8334480407418818,-1.154031522321298,-0.7537525231248206,-1.5229584449430114,-9.44983375063201,-6.568113925788412,-5.929008109361014,-0.9204174928201616,0.01171872,-0.9751561950000001,-0.280944105,0.19838,-11.41448,9.11022,72.0
1774821981.2741628,0.003356456756591797,2026-03-29T22:06:21.274,2026-03-29T18:06:21.274,-31617.0,-49507.604999999996,-84412.62,-50199.884999999995,-15075.765,-20483.864999999998,4910.264999999999,-41819.174999999996,1.7890116610822762,2.6118096737328935,3.6476025551464555,4.031255951261653,-1.5629495621972707,0.6903629810380872,5.921792068531167,-1.491090966198607,0.01171872,-0.9751561950000001,-0.280944105,0.19838,-11.41448,9.11022,72.0
1774821981.27421,4.7206878662109375e-05,2026-03-29T22:06:21.274,2026-03-29T18:06:21.274,-31611.465,-49504.229999999996,-84412.8,-50200.38,-15073.785,-20483.055,4902.84,-41814.945,3.362748600063217,4.910352062684492,6.034409172677135,7.339578617332152,6.23618282288571,7.110418397886837,14.598321835200508,-1.38206125446637,0.01171872,-0.9751561950000001,-0.280944105,0.19838,-11.41448,9.11022,72.0
1774821981.277922,0.0037119388580322266,2026-03-29T22:06:21.277,2026-03-29T18:06:21.277,-31615.199999999997,-49504.545,-84414.78,-50198.265,-15067.8,-20478.465,4890.554999999999,-41820.659999999996,3.061465858444655,4.556134835582533,5.1906191248196265,6.769459438263018,10.233525038468606,9.620147451620346,16.33851297015791,-0.6574544102275482,0.01440426,-0.97277583,-0.280699965,-3.5098,-12.86418,10.72778,72.0
1774821981.2779331,1.1205673217773438e-05,2026-03-29T22:06:21.277,2026-03-29T18:06:21.277,-31622.625,-49508.549999999996,-84417.885,-50200.515,-15074.189999999999,-20492.235,4882.455,-41824.89,1.0782530150064584,1.7741664245901516,1.6076533498029502,2.723812915820231,8.923409258131212,7.257213947430207,10.705924773677209,0.33604121726813035,0.01440426,-0.97277583,-0.280699965,-3.5098,-12.86418,10.72778,72.0
1774821981.2817593,0.003826141357421875,2026-03-29T22:06:21.281,2026-03-29T18:06:21.281,-31611.96,-49504.185,-84416.715,-50200.74,-15075.269999999999,-20493.36,4886.6849999999995,-41808.555,-1.489154259724378,-1.933704279060625,-2.7932796738048182,-2.6133754494685335,3.548502030720088,1.5277929088728006,0.6267357557105656,1.1425722497530557,0.01440426,-0.97277583,-0.280699965,-3.5098,-12.86418,10.72778,72.0
1774821981.2817762,1.6927719116210938e-05,2026-03-29T22:06:21.281,2026-03-29T18:06:21.281,-31620.149999999998,-49513.545,-84426.885,-50208.57,-15082.74,-20501.594999999998,4883.445,-41809.545,-3.2328076495433926,-4.587993159092956,-5.679537120587414,-6.443197159200082,-2.7822448729972598,-4.486435734444803,-9.123994484327522,1.4144983357644103,0.01440426,-0.97277583,-0.280699965,-3.5098,-12.86418,10.72778,72.0
1774821981.2860556,0.004279375076293945,2026-03-29T22:06:21.286,2026-03-29T18:06:21.286,-31623.614999999998,-49513.77,-84428.055,-50209.244999999995,-15082.965,-20500.425,4870.9349999999995,-41816.115,-3.191638356250185,-4.77541989257057,-5.5308035083118945,-6.811966450403716,-6.839144254738365,-7.76540736373873,-14.206739000350517,1.0658495140403863,0.01440426,-0.97277583,-0.280699965,-3.5098,-12.86418,10.72778,72.0
1774821981.2860773,2.1696090698242188e-05,2026-03-29T22:06:21.286,2026-03-29T18:06:21.286,-31624.469999999998,-49515.75,-84431.83499999999,-50214.104999999996,-15084.18,-20498.355,4866.4349999999995,-41818.229999999996,-1.3695301423785087,-2.391635591413101,-2.4309028490146916,-3.6064468703640133,-6.919820698072158,-6.869337617826652,-12.66984023692604,0.2920112196910523,0.01440426,-0.97277583,-0.280699965,-3.5098,-12.86418,10.72778,72.0
1774821981.2898667,0.0037894248962402344,2026-03-29T22:06:21.289,2026-03-29T18:06:21.289,-31624.515,-49519.125,-84436.29,-50218.02,-15086.205,-20502.405,4876.38,-41813.145,1.2608093499323605,1.3040785311735603,1.9815529577660218,1.42248723771914,-3.55825870442634,-2.5736391394180647,-5.681054004151234,-0.5432229961192404,0.01440426,-0.97277583,-0.280699965,-3.5098,-12.86418,10.72778,72.0
1774821981.2899015,3.4809112548828125e-05,2026-03-29T22:06:21.289,2026-03-29T18:06:21.289,-31619.879999999997,-49508.64,-84424.23,-50209.47,-15081.39,-20498.579999999998,4873.905,-41816.475,3.2721314841720655,4.349831155408139,5.374359800713185,5.604228091951707,0.9970836841797929,2.6612713644009633,3.2267327436216386,-1.0869324500540385,0.01440426,-0.97277583,-0.280699965,-3.5098,-12.86418,10.72778,72.0
1774821981.294058,0.004156589508056641,2026-03-29T22:06:21.294,2026-03-29T18:06:21.294,-31626.989999999998,-49523.445,-84446.145,-50238.945,-15116.67,-20530.71,4857.255,-41814.81,3.545108715038637,5.11257149580769,5.944174463174795,6.756108374746718,4.160376591570916,6.057326666487858,9.945719118871471,-1.1503454617383357,0.01440426,-0.97277583,-0.280699965,-3.5098,-12.86418,10.72778,72.0
1774821981.2940755,1.7404556274414062e-05,2026-03-29T22:06:21.294,2026-03-29T18:06:21.294,-31610.204999999998,-49510.71,-84435.56999999999,-50224.365,-15096.06,-20506.995,4898.5199999999995,-41792.22,1.8760453028651392,3.1513817550979013,3.3632887504072007,4.316364587232028,4.437705871920518,5.978181159126377,11.710555450083444,-0.7670689721214387,0.01440426,-0.97277583,-0.280699965,-3.5098,-12.86418,10.72778,72.0
1774821981.3128824,0.018806934356689453,2026-03-29T22:06:21.312,2026-03-29T18:06:21.312,-31612.995,-49493.07,-84401.28,-50182.515,-15050.835,-20464.29,4917.33,-41807.655,-0.8947254254654996,-0.5393907818062038,-1.0421215055449269,-0.38345817509811425,2.1324321140401437,2.719016525456813,8.237169399494386,-0.1429906545638099,0.020568795,-0.979672785,-0.278014425,-2.07536,-11.704419999999999,12.742099999999999,72.0
1774821981.3129191,3.6716461181640625e-05,2026-03-29T22:06:21.312,2026-03-29T18:06:21.312,-31632.704999999998,-49516.29,-84425.44499999999,-50209.2,-15080.445,-20498.805,4871.61,-41817.195,-3.3085246766025196,-4.037445583344606,-4.975971451640436,-4.838180767625907,-1.0062736213121906,-1.7554578534340561,1.6132863532926691,0.4600400187761614,0.020568795,-0.979672785,-0.278014425,-2.07536,-11.704419999999999,12.742099999999999,72.0
1774821981.3129375,1.8358230590820312e-05,2026-03-29T22:06:21.312,2026-03-29T18:06:21.312,-31638.149999999998,-49532.354999999996,-84450.23999999999,-50238.27,-15110.82,-20529.945,4837.41,-41815.485,-4.05140734977646,-5.4902734308540255,-6.364826328520707,-6.694628629157688,-2.9243954360022952,-4.942061438847857,-4.89873706854815,0.8391223838100278,0.020568795,-0.979672785,-0.278014425,-2.07536,-11.704419999999999,12.742099999999999,72.0
1774821981.3129456,8.106231689453125e-06,2026-03-29T22:06:21.312,2026-03-29T18:06:21.312,-31626.765,-49516.65,-84431.61,-50218.604999999996,-15088.455,-20503.079999999998,4870.755,-41817.96,-2.657213898407303,-4.086710701903337,-4.441187177522076,-4.985456084454763,-2.502273572959209,-5.166566522588012,-8.480684638621051,0.9104820058540242,0.020568795,-0.979672785,-0.278014425,-2.07536,-11.704419999999999,12.742099999999999,72.0
1774821981.312955,9.298324584960938e-06,2026-03-29T22:06:21.312,2026-03-29T18:06:21.312,-31617.585,-49506.795,-84418.875,-50203.53,-15073.289999999999,-20487.329999999998,4874.4,-41810.939999999995,0.22120847416432665,-0.4961414168969887,-0.15497023960845419,-0.6275959008945058,-0.17811782073195626,-2.4521142524646233,-7.990364699584015,0.7021597719025356,0.020568795,-0.979672785,-0.278014425,-2.07536,-11.704419999999999,12.742099999999999,72.0
1774821981.312962,7.152557373046875e-06,2026-03-29T22:06:21.312,2026-03-29T18:06:21.312,-31625.73,-49515.165,-84429.135,-50213.52,-15082.515,-20495.925,4855.41,-41821.65,3.1237378877742263,3.457817032212924,4.303120660094799,4.06952978151692,2.381154788179716,1.5581021578608136,-4.261868734649385,0.3060717483391786,0.020568795,-0.979672785,-0.278014425,-2.07536,-11.704419999999999,12.742099999999999,72.0
1774821981.3129706,8.58306884765625e-06,2026-03-29T22:06:21.312,2026-03-29T18:06:21.312,-31625.864999999998,-49514.445,-84428.37,-50209.83,-15076.845,-20488.635,4883.67,-41818.229999999996,4.526130358205867,5.727103429291867,6.6241602465432665,6.622554123375114,3.3433212938144368,4.553330757428869,0.5626338591259842,-0.16864465701972567,0.020568795,-0.979672785,-0.278014425,-2.07536,-11.704419999999999,12.742099999999999,72.0
1774821981.3129778,7.152557373046875e-06,2026-03-29T22:06:21.312,2026-03-29T18:06:21.312,-31605.84,-49490.28,-84399.93,-50178.06,-15043.095,-20456.55,4936.41,-41800.68,3.6352218028933616,5.096886632284786,5.57305983873088,5.678565914461564,1.8704557425170396,4.845855307074167,4.227516685648271,-0.6144706841250402,0.020568795,-0.979672785,-0.278014425,-2.07536,-11.704419999999999,12.742099999999999,72.0
1774821981.3186717,0.005693912506103516,2026-03-29T22:06:21.318,2026-03-29T18:06:21.318,-31603.094999999998,-49486.634999999995,-84394.08,-50172.345,-15041.43,-20452.005,4941.54,-41797.034999999996,0.8231540799482444,1.825900715148173,1.635911992469878,1.7233360503045634,-1.3139382554921646,2.293343292073402,5.431619466457339,-0.9214762474752536,0.020568795,-0.979672785,-0.278014425,-2.07536,-11.704419999999999,12.742099999999999,72.0
1774821981.3186903,1.8596649169921875e-05,2026-03-29T22:06:21.318,2026-03-29T18:06:21.318,-31624.829999999998,-49515.165,-84425.265,-50216.13,-15111.404999999999,-20488.454999999998,4912.605,-41795.685,-2.5321399006038963,-2.4646113985860802,-3.2132333502925174,-3.174286768640141,-4.295773837263787,-1.641323117383111,4.257532636940074,-0.9785730288370517,0.020568795,-0.979672785,-0.278014425,-2.07536,-11.704419999999999,12.742099999999999,72.0
1774821981.3187053,1.5020370483398438e-05,2026-03-29T22:06:21.318,2026-03-29T18:06:21.318,-31629.6,-49524.795,-84439.62,-50236.83,-15133.32,-20519.145,4892.985,-41795.595,-4.729660418304128,-5.603129272953357,-6.510581333828539,-6.44530175318686,-5.0826762232353815,-4.713450368849553,1.839949825150203,-0.7052855530396691,0.019836375,-0.9826635,-0.2783196,1.7396399999999999,-12.17748,13.016779999999999,72.0
1774821981.318712,6.67572021484375e-06,2026-03-29T22:06:21.318,2026-03-29T18:06:21.318,-31634.37,-49531.005,-84446.19,-50231.115,-15087.195,-20521.079999999998,4866.12,-41802.795,-4.609719313720933,-5.97070496068359,-6.557549971503242,-6.36367322497796,-2.825781953863495,-5.1458912059311155,-0.4369443453469988,-0.11110548864819025,0.019836375,-0.9826635,-0.2783196,1.7396399999999999,-12.17748,13.016779999999999,72.0
1774821981.3217947,0.003082752227783203,2026-03-29T22:06:21.321,2026-03-29T18:06:21.321,-31623.3,-49516.244999999995,-84428.50499999999,-50209.244999999995,-15057.045,-20504.07,4852.62,-41806.575,-2.159690381307128,-3.3325610791306106,-3.2917519025113458,-2.9489865912395916,1.5629066909563256,-2.6204505767130177,-1.7093453133790473,0.6541574850827642,0.019836375,-0.9826635,-0.2783196,1.7396399999999999,-12.17748,13.016779999999999,72.0
1774821981.3218153,2.0503997802734375e-05,2026-03-29T22:06:21.321,2026-03-29T18:06:21.321,-31604.67,-49489.604999999996,-84394.98,-50180.58,-15045.435,-20470.454999999998,4869.675,-41810.13,1.4530851311968591,1.0276628779672485,1.6713618189532662,2.0405467705455096,5.788766147418376,1.5291031726448001,-1.9506123748928594,1.3085378602164641,0.019836375,-0.9826635,-0.2783196,1.7396399999999999,-12.17748,13.016779999999999,72.0
1774821981.325702,0.003886699676513672,2026-03-29T22:06:21.325,2026-03-29T18:06:21.325,-31599.045,-49480.83,-84388.68,-50170.365,-15034.904999999999,-20458.035,4887.585,-41809.185,4.4471435552329375,4.943279296703957,5.848799787685037,6.019564444236672,7.385531029059229,5.029253650054339,-1.7247696715959295,1.531277016133629,0.019836375,-0.9826635,-0.2783196,1.7396399999999999,-12.17748,13.016779999999999,72.0
1774821981.325724,2.193450927734375e-05,2026-03-29T22:06:21.325,2026-03-29T18:06:21.325,-31611.87,-49493.97,-84402.765,-50185.439999999995,-15049.89,-20471.535,4889.34,-41807.79,5.312927533892138,6.450494423392975,7.141219510492239,6.916599168246805,5.115694270647614,5.901378702446491,-1.611711499410121,1.1174533019075417,0.019836375,-0.9826635,-0.2783196,1.7396399999999999,-12.17748,13.016779999999999,72.0
1774821981.332782,0.007058143615722656,2026-03-29T22:06:21.332,2026-03-29T18:06:21.332,-31624.515,-49513.77,-84426.25499999999,-50210.28,-15073.92,-20493.495,4900.995,-41805.045,3.57496914251418,4.776655323363224,4.890676550580183,4.248398184800851,-0.2201492681377211,3.5528273129749417,-1.7182953147915674,0.12030035815434363,0.019836375,-0.9826635,-0.2783196,1.7396399999999999,-12.17748,13.016779999999999,72.0
1774821981.3327992,1.71661376953125e-05,2026-03-29T22:06:21.332,2026-03-29T18:06:21.332,-31622.175,-49514.58,-84429.315,-50214.24,-15084.945,-20509.829999999998,4887.764999999999,-41801.985,0.04474012975947465,0.7318334896899595,0.2105642504192335,-0.6283086823058951,-6.053376746980919,-0.8673323674533875,-1.605933495374426,-1.1073738847729693,0.019836375,-0.9826635,-0.2783196,1.7396399999999999,-12.17748,13.016779999999999,72.0
1774821981.3442607,0.011461496353149414,2026-03-29T22:06:21.344,2026-03-29T18:06:21.344,-31622.489999999998,-49515.84,-84433.00499999999,-50220.854999999996,-15093.81,-20511.225,4874.625,-41801.174999999996,-3.5674408967933893,-3.693186045827523,-4.57597806374929,-5.215786937384713,-9.311669028622758,-5.048104337594689,-0.6783895451776956,-2.0241187196115686,0.019836375,-0.9826635,-0.2783196,1.7396399999999999,-12.17748,13.016779999999999,72.0
1774821981.3442783,1.7642974853515625e-05,2026-03-29T22:06:21.344,2026-03-29T18:06:21.344,-31624.065,-49512.015,-84422.43,-50218.155,-15082.244999999999,-20484.899999999998,4898.34,-41804.64,-5.491691467106165,-6.318866765593105,-7.101616341841062,-7.161384817093347,-8.042878208033905,-6.732148555641499,1.2384970075504107,-2.1375119493589163,0.019836375,-0.9826635,-0.2783196,1.7396399999999999,-12.17748,13.016779999999999,72.0
1774821981.3443017,2.3365020751953125e-05,2026-03-29T22:06:21.344,2026-03-29T18:06:21.344,-31622.805,-49509.314999999995,-84414.285,-50207.354999999996,-15075.765,-20484.135,4905.54,-41801.76,-4.772517590973523,-5.859427043335001,-6.134382787219853,-5.4657668095180005,-2.538157503557967,-4.925206417464971,3.538148577002992,-1.2648664904078775,0.018249465,-0.978696225,-0.279967545,-1.55652,-15.07688,13.39828,72.0
1774821981.3443074,5.7220458984375e-06,2026-03-29T22:06:21.344,2026-03-29T18:06:21.344,-31616.324999999997,-49507.11,-84415.31999999999,-50206.5,-15076.26,-20489.535,4907.205,-41793.75,-1.7428841935676198,-2.5542963836777313,-2.1796634049658237,-0.991923746413355,4.67507864104775,-0.4550748146290079,4.992271984171538,0.3199254381322234,0.018249465,-0.978696225,-0.279967545,-1.55652,-15.07688,13.39828,72.0
1774821981.3469632,0.0026557445526123047,2026-03-29T22:06:21.346,2026-03-29T18:06:21.346,-31609.305,-49504.77,-84414.23999999999,-50212.485,-15085.664999999999,-20495.43,4883.3099999999995,-41782.049999999996,2.136781156674474,1.9625665070774712,2.7902226211952956,3.9828353554107996,10.022498199838349,4.424731043224975,4.4080240172612495,1.9519128636631389,0.018249465,-0.978696225,-0.279967545,-1.55652,-15.07688,13.39828,72.0
1774821981.3470025,3.933906555175781e-05,2026-03-29T22:06:21.347,2026-03-29T18:06:21.347,-31621.364999999998,-49520.61,-84433.36499999999,-50233.77,-15107.939999999999,-20516.489999999998,4844.79,-41787.765,4.9937577582151125,5.482317348096784,6.332151347752627,6.936067588528516,10.681075652575743,7.189085851910679,1.4320217175052512,2.852189362920368,0.018249465,-0.978696225,-0.279967545,-1.55652,-15.07688,13.39828,72.0
1774821981.3470378,3.528594970703125e-05,2026-03-29T22:06:21.347,2026-03-29T18:06:21.347,-31635.315,-49523.805,-84429.0,-50227.02,-15094.17,-20494.395,4872.915,-41803.155,5.457326550803651,6.313811944256757,6.74590763774285,6.386380420101177,6.070026208151617,6.354954556242601,-2.994497352308318,2.502313663507202,0.018249465,-0.978696225,-0.279967545,-1.55652,-15.07688,13.39828,72.0
1774821981.3470504,1.2636184692382812e-05,2026-03-29T22:06:21.347,2026-03-29T18:06:21.347,-31612.5,-49488.345,-84381.03,-50175.9,-15046.965,-20457.225,4914.405,-41794.83,3.32131251131896,4.103380151778789,3.8971113801327113,2.6378178131715817,-1.7529151283919628,2.2686205142549207,-6.878768358149819,0.9346747112071361,0.018249465,-0.978696225,-0.279967545,-1.55652,-15.07688,13.39828,72.0
1774821981.351748,0.004697561264038086,2026-03-29T22:06:21.351,2026-03-29T18:06:21.351,-31626.27,-49507.244999999995,-84405.78,-50200.155,-15072.57,-20487.915,4900.275,-41803.965,-0.36754220702253054,-0.018842034580006394,-0.7520416645858873,-2.392311060281735,-9.03278854615764,-3.0482858311754573,-8.092146274841532,-1.22110580073191,0.018249465,-0.978696225,-0.279967545,-1.55652,-15.07688,13.39828,72.0
1774821981.3517776,2.956390380859375e-05,2026-03-29T22:06:21.351,2026-03-29T18:06:21.351,-31624.829999999998,-49506.255,-84407.44499999999,-50194.755,-15059.025,-20472.795,4895.775,-41816.159999999996,-3.83148071676794,-4.024292215055451,-4.901466154841782,-6.163853117676392,-12.154288430405801,-6.92006291485032,-5.529405415923841,-2.987026061802442,0.018249465,-0.978696225,-0.279967545,-1.55652,-15.07688,13.39828,72.0
1774821981.353996,0.002218484878540039,2026-03-29T22:06:21.353,2026-03-29T18:06:21.353,-31624.92,-49516.65,-84424.68,-50212.755,-15076.98,-20493.945,4870.125,-41806.17,-5.429984806663242,-5.997106442123221,-6.564730005828379,-6.807225575975641,-9.460353198992477,-7.381028207737015,0.11596844049766983,-3.484958418832241,0.018249465,-0.978696225,-0.279967545,-1.55652,-15.07688,13.39828,72.0
1774821981.3540163,2.0265579223632812e-05,2026-03-29T22:06:21.354,2026-03-29T18:06:21.354,-31631.175,-49524.84,-84432.69,-50224.275,-15089.58,-20505.825,4866.66,-41807.159999999996,-4.445396707062225,-5.061668258414092,-5.031345994127171,-4.056987370032499,-2.1279904860036027,-4.1800471027251325,6.448883909759843,-2.3766943148539994,0.018249465,-0.978696225,-0.279967545,-1.55652,-15.07688,13.39828,72.0
1774821981.3578331,0.003816843032836914,2026-03-29T22:06:21.357,2026-03-29T18:06:21.357,-31613.175,-49503.24,-84407.76,-50199.03,-15065.46,-20478.465,4915.889999999999,-41791.77,-1.4059040418329931,-1.7726375526931468,-1.16867961503203,0.6435028082305089,6.359836724725278,1.0904268465503413,10.400872252318388,-0.07359780177345675,0.022277775,-0.984189375,-0.281310315,-2.53316,-16.22138,14.817459999999999,72.0
1774821981.357856,2.288818359375e-05,2026-03-29T22:06:21.357,2026-03-29T18:06:21.357,-31615.155,-49504.32,-84408.97499999999,-50199.795,-15065.414999999999,-20481.975,4913.1449999999995,-41785.695,2.199705494851378,2.2068400128666337,3.063869878143039,4.904753219257372,11.902116207959589,5.8043115292077045,9.742426554666517,2.407894290945485,0.022277775,-0.984189375,-0.281310315,-2.53316,-16.22138,14.817459999999999,72.0
1774821981.3621144,0.004258394241333008,2026-03-29T22:06:21.362,2026-03-29T18:06:21.362,-31621.59,-49512.284999999996,-84419.145,-50215.814999999995,-15086.925,-20503.89,4886.82,-41785.064999999995,4.661045818807637,4.955290899178634,5.618823196015053,6.616576729626853,11.794496480783204,7.6318253636244755,4.323631690369269,3.899323434591184,0.022277775,-0.984189375,-0.281310315,-2.53316,-16.22138,14.817459999999999,72.0
1774821981.362133,1.8596649169921875e-05,2026-03-29T22:06:21.362,2026-03-29T18:06:21.362,-31620.555,-49513.725,-84420.94499999999,-50217.975,-15087.869999999999,-20508.48,4871.79,-41782.545,4.868043120868055,5.233363743990521,5.364547259366084,5.003784807729851,6.066628134590884,5.70730441235412,-3.63958040042937,3.637852275431366,0.022277775,-0.984189375,-0.281310315,-2.53316,-16.22138,14.817459999999999,72.0
1774821981.3655689,0.003435850143432617,2026-03-29T22:06:21.365,2026-03-29T18:06:21.365,-31617.855,-49514.67,-84427.245,-50231.744999999995,-15103.08,-20518.695,4816.485,-41781.555,2.8162691381841456,3.048913106846629,2.5912340411027524,0.9796352623607228,-2.5266201408561857,1.0429136348997938,-10.47080525757668,1.6589365746501026,0.022277775,-0.984189375,-0.281310315,-2.53316,-16.22138,14.817459999999999,72.0
1774821981.3655834,1.4543533325195312e-05,2026-03-29T22:06:21.365,2026-03-29T18:06:21.365,-31623.48,-49519.259999999995,-84437.28,-50250.24,-15145.38,-20535.48,4722.885,-41809.725,-0.43634821697329124,-0.41371883383821506,-1.2094351253509226,-3.3651190788719063,-9.855978231627228,-4.010951215015955,-12.761000974232877,-1.1792604007078675,0.022277775,-0.984189375,-0.281310315,-2.53316,-16.22138,14.817459999999999,72.0
1774821981.3697524,0.004168987274169922,2026-03-29T22:06:21.369,2026-03-29T18:06:21.369,-31636.89,-49519.665,-84428.325,-50235.975,-15130.394999999999,-20515.905,4778.955,-41828.085,-3.3186538915733297,-3.4341788846555628,-4.145745578454077,-5.85460854941312,-12.436860475626956,-6.968498507638361,-9.093240030491144,-3.5709583565225715,0.022277775,-0.984189375,-0.281310315,-2.53316,-16.22138,14.817459999999999,72.0
1774821981.369768,1.5497207641601562e-05,2026-03-29T22:06:21.369,2026-03-29T18:06:21.369,-31627.215,-49517.055,-84421.17,-50215.905,-15069.824999999999,-20489.985,4949.235,-41787.27,-4.514960342502585,-4.621096226147425,-4.878839149838592,-5.328955136051784,-9.114294541983151,-6.451928495932583,-0.8828518353208363,-4.37217038171511,0.022277775,-0.984189375,-0.281310315,-2.53316,-16.22138,14.817459999999999,72.0
1774821981.374149,0.0043811798095703125,2026-03-29T22:06:21.374,2026-03-29T18:06:21.374,-31640.715,-49531.365,-84431.295,-50216.985,-15047.189999999999,-20487.195,4976.595,-41784.705,-3.5731916723763972,-3.562623880059742,-3.242638699251538,-2.1925081362975587,-1.5867359385109678,-2.845089077156689,8.150646474048319,-3.1560950382289144,0.022277775,-0.984189375,-0.281310315,-2.53316,-16.22138,14.817459999999999,72.0
1774821981.374162,1.2874603271484375e-05,2026-03-29T22:06:21.374,2026-03-29T18:06:21.374,-31624.11,-49511.79,-84414.42,-50209.515,-15059.519999999999,-20481.344999999998,4941.63,-41785.515,-1.0681246185787712,-0.9541746901556081,-0.23962843726533928,1.8532237808091514,6.471697009036834,1.957730110935215,13.693087187144874,-0.4412013517226107,0.022277775,-0.984189375,-0.281310315,-2.53316,-16.22138,14.817459999999999,72.0
1774821981.3779526,0.003790616989135742,2026-03-29T22:06:21.377,2026-03-29T18:06:21.377,-31620.105,-49502.205,-84402.495,-50197.455,-15052.41,-20467.305,4917.0599999999995,-41795.595,1.7345364428297079,1.8264303147302252,2.5469227976314817,4.728236403130358,11.233035867673253,5.553849977232661,12.929623016722909,2.5301532941981333,0.024108825,-0.984433515,-0.27966237,-2.99096,-17.487959999999998,15.53468,72.0
1774821981.3779671,1.4543533325195312e-05,2026-03-29T22:06:21.377,2026-03-29T18:06:21.377,-31624.335,-49508.955,-84412.395,-50208.525,-15066.09,-20481.48,4896.135,-41792.67,3.522396224852198,3.447795910430168,3.7894564195863305,5.050547341810609,10.565889178799036,6.252781974405078,5.992668473668799,4.36810001201634,0.024108825,-0.984433515,-0.27966237,-2.99096,-17.487959999999998,15.53468,72.0
1774821981.3828387,0.0048716068267822266,2026-03-29T22:06:21.382,2026-03-29T18:06:21.382,-31622.219999999998,-49509.314999999995,-84416.08499999999,-50211.54,-15070.68,-20485.62,4892.22,-41785.695,3.559281907277187,3.2722346201396246,3.059229850897715,2.811069970873136,5.006177883735765,3.88812300755632,-3.9870820723597875,4.195725203856447,0.024108825,-0.984433515,-0.27966237,-2.99096,-17.487959999999998,15.53468,72.0
1774821981.3828554,1.6689300537109375e-05,2026-03-29T22:06:21.382,2026-03-29T18:06:21.382,-31624.515,-49511.564999999995,-84416.48999999999,-50212.575,-15072.39,-20486.925,4893.3,-41786.369999999995,1.9876937240524326,1.6028077284061846,0.960175181576214,-0.6869080796231812,-2.6013372437333757,-0.1763883122075822,-12.306607737748232,2.075176174444651,0.024108825,-0.984433515,-0.27966237,-2.99096,-17.487959999999998,15.53468,72.0
1774821981.3858979,0.003042459487915039,2026-03-29T22:06:21.385,2026-03-29T18:06:21.385,-31625.504999999997,-49512.689999999995,-84417.525,-50212.89,-15073.064999999999,-20486.07,4892.58,-41790.06,-0.3127747607061437,-0.5632052463421364,-1.2792500574720111,-3.5649936321527242,-8.570141319873168,-3.8165511864206176,-14.93752585992524,-1.0110306225360741,0.024108825,-0.984433515,-0.27966237,-2.99096,-17.487959999999998,15.53468,72.0
1774821981.3859265,2.86102294921875e-05,2026-03-29T22:06:21.385,2026-03-29T18:06:21.385,-31623.48,-49510.755,-84416.22,-50211.765,-15072.75,-20487.059999999998,4893.795,-41790.15,-2.2090940958267327,-2.108608835848066,-2.504261189333222,-4.374651571450809,-10.186613864225519,-5.2653694134199815,-10.507106648056558,-3.6205460278838193,0.024108825,-0.984433515,-0.27966237,-2.99096,-17.487959999999998,15.53468,72.0
1774821981.427635,0.04170846939086914,2026-03-29T22:06:21.427,2026-03-29T18:06:21.427,-31625.73,-49513.68,-84420.94499999999,-50218.02,-15081.029999999999,-20499.03,4881.33,-41788.485,-2.8780573071196893,-2.3756826450183324,-2.233225068446124,-2.8342539324415617,-6.967243898660283,-3.9883554140401207,-1.027071488082492,-4.535407689735015,0.024108825,-0.984433515,-0.27966237,-2.99096,-17.487959999999998,15.53468,72.0
1774821981.4276638,2.8848648071289062e-05,2026-03-29T22:06:21.427,2026-03-29T18:06:21.427,-31622.399999999998,-49511.295,-84422.11499999999,-50218.875,-15084.224999999999,-20503.575,4869.179999999999,-41786.955,-2.1671699998069873,-1.4492896628098282,-0.8461185516935745,0.07953344418120921,-0.7655917360447281,-0.8759336894719344,9.019674134916025,-3.3409083926473953,0.024108825,-0.984433515,-0.27966237,-2.99096,-17.487959999999998,15.53468,72.0
1774821981.4276927,2.8848648071289062e-05,2026-03-29T22:06:21.427,2026-03-29T18:06:21.427,-31614.03,-49498.74,-84405.69,-50203.395,-15069.914999999999,-20487.375,4865.535,-41788.305,-0.5935808327586493,-0.020607852080802933,0.7109396183426954,2.7114524822629007,5.2677008978448105,2.313424835351344,14.81901334872232,-0.6193727438176743,0.024108825,-0.984433515,-0.27966237,-2.99096,-17.487959999999998,15.53468,72.0
1774821981.427704,1.1444091796875e-05,2026-03-29T22:06:21.427,2026-03-29T18:06:21.427,-31623.254999999997,-49503.825,-84408.345,-50204.79,-15066.945,-20479.094999999998,4876.47,-41794.11,0.9850849452571435,1.0593721279254191,1.5110300922335291,3.6473903338074565,8.298473024869589,3.930453691373997,13.56140272117513,2.3344046168959784,0.024108825,-0.984433515,-0.27966237,-2.99096,-17.487959999999998,15.53468,72.0
1774821981.427718,1.3828277587890625e-05,2026-03-29T22:06:21.427,2026-03-29T18:06:21.427,-31627.17,-49511.43,-84417.97499999999,-50213.564999999995,-15074.775,-20485.755,4896.72,-41785.604999999996,1.8322053778067924,1.268037047242855,1.1783999894782078,2.471103108393609,7.164992359788764,3.296292456345954,5.82800066393546,4.136729926153993,0.022033635,-0.9808934850000001,-0.277282005,-5.508859999999999,-18.40356,14.90902,72.0
1774821981.4277284,1.049041748046875e-05,2026-03-29T22:06:21.427,2026-03-29T18:06:21.427,-31624.425,-49513.32,-84421.44,-50218.74,-15082.289999999999,-20494.305,4893.615,-41780.79,1.6801142480180098,0.6679915269095039,0.06934909815155768,-0.04514327018640482,2.8172061844983816,0.9953494884045381,-4.666115405863672,3.974013181421462,0.022033635,-0.9808934850000001,-0.277282005,-5.508859999999999,-18.40356,14.90902,72.0
1774821981.4277415,1.3113021850585938e-05,2026-03-29T22:06:21.427,2026-03-29T18:06:21.427,-31634.73,-49521.284999999996,-84426.705,-50222.97,-15086.88,-20502.135,4867.335,-41792.939999999995,0.7985479144397933,-0.19500021067873144,-0.9865168561561513,-2.405409116930706,-2.3231015599110343,-1.5300836345585094,-12.862594402841646,1.9785673631694825,0.022033635,-0.9808934850000001,-0.277282005,-5.508859999999999,-18.40356,14.90902,72.0
1774821981.4277515,1.0013580322265625e-05,2026-03-29T22:06:21.427,2026-03-29T18:06:21.427,-31635.0,-49528.845,-84437.28,-50235.479999999996,-15101.82,-20521.44,4846.59,-41787.494999999995,-0.22276532395067628,-0.6712876453533274,-1.2202886954849845,-3.243494588249099,-5.68921493589077,-2.831837592797503,-14.817506399375418,-0.8563463909890546,0.022033635,-0.9808934850000001,-0.277282005,-5.508859999999999,-18.40356,14.90902,72.0
1774821981.427764,1.239776611328125e-05,2026-03-29T22:06:21.427,2026-03-29T18:06:21.427,-31623.57,-49527.494999999995,-84443.44499999999,-50244.435,-15113.654999999999,-20532.329999999998,4845.105,-41766.255,-0.8330223664782894,-0.42735564336945747,-0.41349733170948766,-2.0907087559179964,-5.8651481139812685,-2.2688008510319153,-9.62323159737987,-3.173001581435282,0.022033635,-0.9808934850000001,-0.277282005,-5.508859999999999,-18.40356,14.90902,72.0
1774821981.4277744,1.049041748046875e-05,2026-03-29T22:06:21.427,2026-03-29T18:06:21.427,-31645.305,-49529.655,-84436.92,-50234.58,-15096.734999999999,-20508.75,4844.97,-41796.945,-0.8135042961962157,0.3454358301919116,0.9477406479156966,0.3646620090275811,-3.190840374603283,-0.3315727246891812,0.15175863344156912,-3.9081358067078003,0.022033635,-0.9808934850000001,-0.277282005,-5.508859999999999,-18.40356,14.90902,72.0
1774821981.4277885,1.4066696166992188e-05,2026-03-29T22:06:21.427,2026-03-29T18:06:21.427,-31640.895,-49512.24,-84409.155,-50201.955,-15064.109999999999,-20479.094999999998,4870.98,-41811.975,-0.35061733427492636,1.056192391849585,1.9509310799703778,2.6680692166133597,0.5860262251126497,1.6886347019506114,9.725169497609903,-2.7907461502370547,0.022033635,-0.9808934850000001,-0.277282005,-5.508859999999999,-18.40356,14.90902,72.0
1774821981.4277983,9.775161743164062e-06,2026-03-29T22:06:21.427,2026-03-29T18:06:21.427,-31628.52,-49520.475,-84431.16,-50226.615,-15089.805,-20507.085,4889.16,-41785.875,0.13209078166371332,1.098005339873155,1.8130076724730073,3.4240957506954213,3.362180931181594,2.4852455005885075,14.446501231806831,-0.4412091312573229,0.022033635,-0.9808934850000001,-0.277282005,-5.508859999999999,-18.40356,14.90902,72.0
1774821981.4278111,1.2874603271484375e-05,2026-03-29T22:06:21.427,2026-03-29T18:06:21.427,-31613.579999999998,-49495.049999999996,-84396.87,-50186.655,-15045.48,-20464.515,4922.955,-41778.36,0.2668218444655851,0.2591671389075303,0.39215976999824,2.1004885200509493,3.8302781347863637,1.5214347418601037,12.071902619910603,1.9644013974795278,0.022033635,-0.9808934850000001,-0.277282005,-5.508859999999999,-18.40356,14.90902,72.0
1774821981.4278212,1.0013580322265625e-05,2026-03-29T22:06:21.427,2026-03-29T18:06:21.427,-31613.129999999997,-49496.985,-84399.03,-50191.965,-15052.365,-20472.795,4903.965,-41768.1,-0.0217388290442572,-1.0903371541092688,-1.6523188660954813,-0.6381440172562153,2.107373278772171,-0.636915540971401,3.8485772959756086,3.2862362631364275,0.022033635,-0.9808934850000001,-0.277282005,-5.508859999999999,-18.40356,14.90902,72.0
1774821981.4278345,1.33514404296875e-05,2026-03-29T22:06:21.427,2026-03-29T18:06:21.427,-31618.8,-49505.985,-84410.055,-50208.255,-15071.13,-20483.145,4894.92,-41772.104999999996,-0.47638885141254933,-2.1645658330414346,-3.1697079811525084,-3.263385015050969,-0.4667531510479329,-2.6369572311385774,-6.122415589568985,2.969446491621645,0.01757808,-0.985165935,-0.273253695,-3.3266799999999996,-17.4727,15.68728,72.0
1774821981.4278443,9.775161743164062e-06,2026-03-29T22:06:21.427,2026-03-29T18:06:21.427,-31619.475,-49508.235,-84414.105,-50216.265,-15081.255,-20488.68,4892.76,-41773.32,-0.6844859758891377,-2.2037892683926557,-3.14943888134965,-4.2155509002441685,-2.2013635020559077,-3.1321002464472087,-12.924739089231196,1.2816864231877003,0.01757808,-0.985165935,-0.273253695,-3.3266799999999996,-17.4727,15.68728,72.0
1774821981.4278567,1.239776611328125e-05,2026-03-29T22:06:21.427,2026-03-29T18:06:21.427,-31621.184999999998,-49510.259999999995,-84415.905,-50215.86,-15078.644999999999,-20485.665,4888.62,-41777.369999999995,-0.36240490272002324,-0.9495574995576397,-1.3333389668238045,-2.7892163349994687,-2.074397176671038,-1.6050972487837616,-13.25455386808786,-0.8647636925302725,0.01757808,-0.985165935,-0.273253695,-3.3266799999999996,-17.4727,15.68728,72.0
1774821981.4278667,1.0013580322265625e-05,2026-03-29T22:06:21.427,2026-03-29T18:06:21.427,-31620.69,-49509.494999999995,-84413.205,-50212.125,-15074.685,-20484.855,4879.3949999999995,-41779.755,0.4281939396760514,1.1262837971301485,1.5437704330329771,0.4169721857131038,-0.3141868104188801,1.256396492710458,-7.036059742733192,-2.399426267879889,0.01757808,-0.985165935,-0.273253695,-3.3266799999999996,-17.4727,15.68728,72.0
1774821981.4278796,1.2874603271484375e-05,2026-03-29T22:06:21.427,2026-03-29T18:06:21.427,-31621.86,-49511.7,-84415.59,-50216.805,-15086.115,-20505.195,4868.775,-41777.64,1.2715063145196006,2.9951747141721556,4.052047176266404,3.7524315848668692,1.7797473678630134,3.8707954674861575,2.569885391609367,-2.6315656426429106,0.01757808,-0.985165935,-0.273253695,-3.3266799999999996,-17.4727,15.68728,72.0
1774821981.427889,9.5367431640625e-06,2026-03-29T22:06:21.427,2026-03-29T18:06:21.427,-31623.344999999998,-49514.13,-84416.12999999999,-50222.115,-15093.765,-20513.565,4862.295,-41771.52,1.6163404056397066,3.5860321818703054,4.781637803743626,5.361718005253828,2.6610192280546348,4.618553696572521,10.759125081042464,-1.567395275089492,0.01757808,-0.985165935,-0.273253695,-3.3266799999999996,-17.4727,15.68728,72.0
1774821981.4318395,0.003950357437133789,2026-03-29T22:06:21.431,2026-03-29T18:06:21.431,-31630.68,-49517.82,-84420.405,-50223.509999999995,-15091.064999999999,-20509.02,4857.12,-41779.35,1.1073595087014094,2.380804396985026,3.114883473597431,4.192330993407516,1.5200008962622003,2.786062122191668,13.480229555359132,0.14222278593377513,0.01757808,-0.985165935,-0.273253695,-3.3266799999999996,-17.4727,15.68728,72.0
1774821981.4318526,1.3113021850585938e-05,2026-03-29T22:06:21.431,2026-03-29T18:06:21.431,-31634.954999999998,-49523.715,-84428.595,-50231.61,-15100.515,-20519.145,4849.47,-41783.445,-0.16103982230314104,-0.23336336984081194,-0.36017006828951864,0.624454461821925,-1.1545789973171672,-0.9331793855767174,9.439481463270262,1.5776076954678637,0.01757808,-0.985165935,-0.273253695,-3.3266799999999996,-17.4727,15.68728,72.0
1774821981.4358256,0.0039730072021484375,2026-03-29T22:06:21.435,2026-03-29T18:06:21.435,-31635.36,-49537.71,-84452.67,-50258.115,-15125.849999999999,-20543.13,4820.985,-41774.22,-1.6271759513741897,-3.070832942484359,-4.045437366120365,-3.635807631418684,-3.7837743435924907,-4.692824321642093,0.7214400589892387,2.039862051111945,0.01757808,-0.985165935,-0.273253695,-3.3266799999999996,-17.4727,15.68728,72.0
1774821981.435871,4.5299530029296875e-05,2026-03-29T22:06:21.435,2026-03-29T18:06:21.435,-31633.289999999997,-49527.494999999995,-84435.93,-50238.18,-15104.07,-20523.105,4829.13,-41777.729999999996,-2.5158906788283053,-4.694670692102641,-6.079039455564179,-6.380092938124572,-4.587894064265512,-6.414725196730505,-8.275018213609865,1.3952603516041622,0.01757808,-0.985165935,-0.273253695,-3.3266799999999996,-17.4727,15.68728,72.0
1774821981.4406433,0.0047724246978759766,2026-03-29T22:06:21.440,2026-03-29T18:06:21.440,-31626.629999999997,-49519.395,-84424.59,-50223.78,-15087.689999999999,-20507.13,4877.865,-41762.295,-2.2466541500216417,-4.147277148500395,-5.27826373435314,-6.036943864565308,-2.6704455563939824,-4.9150798472972035,-13.045851911853143,0.10268529390070089,0.015197715,-0.98449455,-0.27001884,-1.5412599999999999,-16.74022,14.756419999999999,72.0
1774821981.440666,2.2649765014648438e-05,2026-03-29T22:06:21.440,2026-03-29T18:06:21.440,-31602.78,-49486.814999999995,-84387.645,-50185.979999999996,-15053.265,-20475.855,4904.595,-41754.6,-0.781895705161359,-1.4916087927132982,-1.8004624353163405,-2.5407042312638177,1.3271994797215283,-0.6334882525757044,-11.229669129598303,-1.0737386812444625,0.015197715,-0.98449455,-0.27001884,-1.5412599999999999,-16.74022,14.756419999999999,72.0
1774821981.4476078,0.006941795349121094,2026-03-29T22:06:21.447,2026-03-29T18:06:21.447,-31600.26,-49476.104999999996,-84370.5,-50167.755,-15032.88,-20453.94,4896.495,-41766.39,1.28359388891214,2.134766017435586,2.8380960457283653,2.539386106912631,5.414369576511327,4.458715246222311,-3.7740097382363786,-1.498164550471335,0.015197715,-0.98449455,-0.27001884,-1.5412599999999999,-16.74022,14.756419999999999,72.0
1774821981.4476404,3.266334533691406e-05,2026-03-29T22:06:21.447,2026-03-29T18:06:21.447,-31611.105,-49492.395,-84390.56999999999,-50193.27,-15058.89,-20473.155,4880.07,-41768.055,2.966017484132645,5.014609730358741,6.433932555306157,6.713490202750491,7.243571809292467,7.778291178201337,5.555718843004747,-1.0028058216629705,0.015197715,-0.98449455,-0.27001884,-1.5412599999999999,-16.74022,14.756419999999999,72.0
1774821981.4476683,2.7894973754882812e-05,2026-03-29T22:06:21.447,2026-03-29T18:06:21.447,-31615.829999999998,-49498.74,-84401.055,-50204.07,-15078.644999999999,-20482.965,4874.4,-41769.72,3.368212573489902,5.67579298094676,7.155828096090099,7.798961471447851,5.411183862963395,7.443350405860015,12.07160323868225,0.0465032534237907,0.015197715,-0.98449455,-0.27001884,-1.5412599999999999,-16.74022,14.756419999999999,72.0
1774821981.4476793,1.0967254638671875e-05,2026-03-29T22:06:21.447,2026-03-29T18:06:21.447,-31624.649999999998,-49511.79,-84419.055,-50222.295,-15118.695,-20502.495,4888.665,-41768.145,2.154752042318596,3.644707485778491,4.4770365890796135,5.0528815231447455,0.36242293015625865,3.3111278218623683,12.510762425693303,0.9844342612921421,0.015197715,-0.98449455,-0.27001884,-1.5412599999999999,-16.74022,14.756419999999999,72.0
1774821981.4517767,0.004097461700439453,2026-03-29T22:06:21.451,2026-03-29T18:06:21.451,-31636.53,-49530.96,-84438.18,-50237.729999999996,-15126.795,-20532.239999999998,4891.7699999999995,-41761.35,-0.2235718379751642,-0.257573003819346,-0.49420084872785885,-0.3749650572462154,-5.636737235590849,-2.8215188238735838,6.6616077855422295,1.2404532295547648,0.015197715,-0.98449455,-0.27001884,-1.5412599999999999,-16.74022,14.756419999999999,72.0
1774821981.451796,1.9311904907226562e-05,2026-03-29T22:06:21.451,2026-03-29T18:06:21.451,-31634.235,-49524.39,-84427.515,-50218.604999999996,-15065.099999999999,-20508.614999999998,4874.625,-41758.695,-2.6922878204857636,-4.2492417544937355,-5.478307674049074,-5.928424698359672,-9.527176642886694,-8.00937688397284,-2.5398462103159254,0.6684837595996753,0.015197715,-0.98449455,-0.27001884,-1.5412599999999999,-16.74022,14.756419999999999,72.0
1774821981.4541595,0.002363443374633789,2026-03-29T22:06:21.454,2026-03-29T18:06:21.454,-31627.485,-49514.13,-84415.41,-50213.295,-15053.939999999999,-20491.245,4860.8099999999995,-41760.99,-4.047011516986597,-6.414856914841598,-8.085479586729736,-8.862390277465792,-9.012819528270965,-9.588889047304946,-10.485713854846857,-0.37301394394032544,0.015197715,-0.98449455,-0.27001884,-1.5412599999999999,-16.74022,14.756419999999999,72.0
1774821981.4541757,1.621246337890625e-05,2026-03-29T22:06:21.454,2026-03-29T18:06:21.454,-31631.985,-49524.255,-84428.235,-50230.979999999996,-15086.34,-20503.395,4885.065,-41761.53,-3.5479663210844685,-5.635653770365524,-6.973299922489954,-7.605581673614172,-3.8551793010797906,-6.546007527819874,-13.20171177285574,-1.233732405407723,0.015197715,-0.98449455,-0.27001884,-1.5412599999999999,-16.74022,14.756419999999999,72.0
1774821981.457826,0.003650188446044922,2026-03-29T22:06:21.457,2026-03-29T18:06:21.457,-31629.329999999998,-49518.9,-84422.655,-50225.085,-15080.805,-20493.36,4901.04,-41763.24,-1.3191838758359342,-2.1666392856841328,-2.5352679216002048,-2.5898219905595337,3.8025289843939354,-0.11941249899070902,-9.329179199684344,-1.355165856512007,0.01281735,-0.979550715,-0.270446085,-2.38056,-17.35062,15.06162,72.0
1774821981.4578557,2.9802322387695312e-05,2026-03-29T22:06:21.457,2026-03-29T18:06:21.457,-31622.039999999997,-49502.88,-84402.18,-50199.119999999995,-15056.595,-20474.505,4911.615,-41766.705,1.6609244832798689,2.4366849143915204,3.2317041156030974,3.887143272451739,10.328735651003363,6.704265179315258,-0.7964425545443585,-0.6064731875993455,0.01281735,-0.979550715,-0.270446085,-2.38056,-17.35062,15.06162,72.0
1774821981.4625084,0.004652738571166992,2026-03-29T22:06:21.462,2026-03-29T18:06:21.462,-31625.504999999997,-49511.295,-84413.52,-50209.92,-15070.275,-20493.18,4893.66,-41757.119999999995,3.995144616862123,6.027167542939057,7.639812934046642,8.728185696905996,12.340761532960107,10.59747600737536,8.150080042455718,0.6211302957877491,0.01281735,-0.979550715,-0.270446085,-2.38056,-17.35062,15.06162,72.0
1774821981.46253,2.1457672119140625e-05,2026-03-29T22:06:21.462,2026-03-29T18:06:21.462,-31631.489999999998,-49520.205,-84424.455,-50222.52,-15082.695,-20504.655,4881.78,-41754.735,4.532682192971082,6.882321369690182,8.57966173457022,9.531566805250456,8.448562036386575,9.530003347383074,13.065634455805537,1.6211626670195314,0.01281735,-0.979550715,-0.270446085,-2.38056,-17.35062,15.06162,72.0
1774821981.4694755,0.006945610046386719,2026-03-29T22:06:21.469,2026-03-29T18:06:21.469,-31631.399999999998,-49521.509999999995,-84429.27,-50230.665,-15088.14,-20504.07,4876.065,-41750.729999999996,2.9432402707447567,4.5408307192841395,5.539938695585437,5.786881443647517,0.11002665658068983,3.825598503669293,11.51718926139016,1.7700322237064054,0.01281735,-0.979550715,-0.270446085,-2.38056,-17.35062,15.06162,72.0
1774821981.4695077,3.218650817871094e-05,2026-03-29T22:06:21.469,2026-03-29T18:06:21.469,-31631.265,-49520.115,-84426.165,-50227.2,-15085.26,-20502.54,4872.78,-41752.665,-0.08884816182661057,0.04899043196217118,-0.11949269326950661,-0.8249236521569207,-8.897023187782734,-3.911861782988656,4.283573799328135,0.8955483427249187,0.01281735,-0.979550715,-0.270446085,-2.38056,-17.35062,15.06162,72.0
1774821981.4696229,0.00011515617370605469,2026-03-29T22:06:21.469,2026-03-29T18:06:21.469,-31627.215,-49513.545,-84417.84,-50220.36,-15080.13,-20497.14,4878.224999999999,-41754.015,-3.1611416566691237,-4.513431254157382,-5.784887480999723,-7.195962580158018,-14.205199581259354,-10.003042766305631,-5.045710849406118,-0.5951202170700597,0.01281735,-0.979550715,-0.270446085,-2.38056,-17.35062,15.06162,72.0
1774821981.469628,5.245208740234375e-06,2026-03-29T22:06:21.469,2026-03-29T18:06:21.469,-31623.885,-49507.695,-84411.765,-50215.814999999995,-15080.939999999999,-20499.704999999998,4867.785,-41757.479999999996,-4.811115787343338,-7.01010376671427,-8.812093007049516,-10.268310138886214,-12.989526886794394,-11.464381121217489,-11.863946397672258,-1.9105673268466863,0.01281735,-0.979550715,-0.270446085,-2.38056,-17.35062,15.06162,72.0
1774821981.4749024,0.005274295806884766,2026-03-29T22:06:21.474,2026-03-29T18:06:21.474,-31626.855,-49509.54,-84412.845,-50216.174999999996,-15082.154999999999,-20503.844999999998,4849.065,-41756.939999999995,-4.223141350561149,-6.26307057547889,-7.776622956719625,-8.514919946881028,-5.4545375119918145,-7.484255626716551,-12.832678716163958,-2.2977008847803195,0.01281735,-0.979550715,-0.270446085,-2.38056,-17.35062,15.06162,72.0
1774821981.4749222,1.9788742065429688e-05,2026-03-29T22:06:21.474,2026-03-29T18:06:21.474,-31631.399999999998,-49516.424999999996,-84423.645,-50233.77,-15102.675,-20517.704999999998,4825.53,-41753.52,-1.63842406540402,-2.6175395963209453,-3.152777489832193,-2.702113827580968,5.099824014436697,0.13209744457577494,-7.521029098599229,-1.4655518571725763,0.01281735,-0.979550715,-0.270446085,-2.38056,-17.35062,15.06162,72.0
1774821981.478587,0.003664731979370117,2026-03-29T22:06:21.478,2026-03-29T18:06:21.478,-31641.3,-49530.195,-84440.7,-50247.54,-15111.99,-20523.015,4847.22,-41757.93,1.7405823325261445,2.217868030538535,2.9054609049753823,4.448304370370323,13.737012536383073,7.790286889038771,1.4087263383613882,0.22522794954834896,0.00964353,-0.977597595,-0.270568155,-2.53316,-16.45028,15.839879999999999,72.0
1774821981.4786017,1.4781951904296875e-05,2026-03-29T22:06:21.478,2026-03-29T18:06:21.478,-31623.344999999998,-49506.75,-84413.025,-50216.085,-15077.744999999999,-20488.905,4912.83,-41751.405,4.31539763555563,5.981336292913455,7.579689331976458,9.547039859453415,16.21656053700851,11.8237838760885,9.547026820212498,1.92238379416618,0.00964353,-0.977597595,-0.270568155,-2.53316,-16.45028,15.839879999999999,72.0
1774821981.4817564,0.003154754638671875,2026-03-29T22:06:21.481,2026-03-29T18:06:21.481,-31608.18,-49496.4,-84401.73,-50203.395,-15066.585,-20480.535,4944.0599999999995,-41723.189999999995,4.858347753490698,6.930430873381957,8.715040246282838,10.160297606583574,11.0883231662074,10.271382541272637,12.930462954819829,2.719039893941459,0.00964353,-0.977597595,-0.270568155,-2.53316,-16.45028,15.839879999999999,72.0
1774821981.48177,1.3589859008789062e-05,2026-03-29T22:06:21.481,2026-03-29T18:06:21.481,-31622.129999999997,-49514.04,-84421.62,-50224.275,-15087.51,-20503.17,4896.8099999999995,-41734.89,3.108855470756417,4.662400187442981,5.828206502898111,5.98387452333274,0.5090857882795755,3.8443599749176887,9.985720497000084,2.1408338678473284,0.00964353,-0.977597595,-0.270568155,-2.53316,-16.45028,15.839879999999999,72.0
1774821981.4859536,0.004183530807495117,2026-03-29T22:06:21.485,2026-03-29T18:06:21.485,-31623.48,-49503.645,-84404.52,-50205.195,-15068.789999999999,-20488.364999999998,4882.815,-41751.81,-0.09479997446781133,0.2903955028641368,0.3179290059037874,-1.0030223376723035,-10.666977722648628,-4.39904184391836,2.2647370850256565,0.42084544184776823,0.00964353,-0.977597595,-0.270568155,-2.53316,-16.45028,15.839879999999999,72.0
1774821981.4859688,1.52587890625e-05,2026-03-29T22:06:21.485,2026-03-29T18:06:21.485,-31627.079999999998,-49514.04,-84418.47,-50221.215,-15085.98,-20503.844999999998,4881.915,-41744.07,-3.2174318539640563,-4.103944708344444,-5.215880579424026,-7.483038269749955,-17.139702472550052,-10.523092320102503,-6.374527345601352,-1.5941303761618648,0.00964353,-0.977597595,-0.270568155,-2.53316,-16.45028,15.839879999999999,72.0
1774821981.4900732,0.0041043758392333984,2026-03-29T22:06:21.490,2026-03-29T18:06:21.490,-31634.954999999998,-49532.265,-84444.12,-50248.89,-15112.845,-20527.739999999998,4865.8949999999995,-41738.895,-4.769767119030682,-6.4718441163733935,-8.211643294455287,-10.390517018459871,-15.701547096745003,-11.61594642929588,-11.709940074311062,-2.868598017006083,0.00964353,-0.977597595,-0.270568155,-2.53316,-16.45028,15.839879999999999,72.0
1774821981.4900897,1.6450881958007812e-05,2026-03-29T22:06:21.490,2026-03-29T18:06:21.490,-31649.355,-49541.49,-84450.78,-50256.09,-15123.15,-20540.88,4820.355,-41760.45,-4.029817812004566,-5.76680838213904,-7.348063165345151,-8.377894814392716,-6.8369058409435075,-7.195033203305394,-11.237323979910382,-2.7180810581893944,0.00964353,-0.977597595,-0.270568155,-2.53316,-16.45028,15.839879999999999,72.0
1774821981.4939492,0.0038595199584960938,2026-03-29T22:06:21.493,2026-03-29T18:06:21.493,-31656.555,-49549.545,-84459.33,-50265.494999999995,-15133.68,-20552.76,4794.795,-41770.125,-1.3888784233283549,-2.4175224240102255,-3.137779661768003,-2.4505890626310127,5.419248832026073,0.5705774513663687,-5.358589898010999,-1.1793921797553268,0.00964353,-0.977597595,-0.270568155,-2.53316,-16.45028,15.839879999999999,72.0
1774821981.4939666,1.7404556274414062e-05,2026-03-29T22:06:21.493,2026-03-29T18:06:21.493,-31635.899999999998,-49521.284999999996,-84425.265,-50228.505,-15100.74,-20526.12,4846.95,-41758.064999999995,1.8479225227952585,1.9140289037423706,2.358777156139128,4.533070954153382,15.336470075283213,7.927531058978327,2.8935300002358812,0.9896224871302186,0.00964353,-0.977597595,-0.270568155,-2.53316,-16.45028,15.839879999999999,72.0
1774821981.498629,0.004662513732910156,2026-03-29T22:06:21.498,2026-03-29T18:06:21.498,-31624.379999999997,-49508.729999999996,-84409.785,-50208.39,-15075.72,-20494.53,4917.87,-41738.354999999996,4.1074112165075585,5.1584375513071725,6.54534013427205,9.248863609326696,18.19670037145433,11.36858267724166,9.423212566624125,2.6894558539351605,0.010192845,-0.97839105,-0.269713665,-0.25942,-14.115499999999999,14.619079999999999,72.0
1774821981.4986973,6.818771362304688e-05,2026-03-29T22:06:21.498,2026-03-29T18:06:21.498,-31616.594999999998,-49494.509999999995,-84390.795,-50190.57,-15060.06,-20477.114999999998,4911.705,-41741.865,4.320515776649575,5.837773658579473,7.529018564819918,9.503926059668338,12.562926326638806,9.326500882766307,11.120811252083461,3.0449565308876934,0.010192845,-0.97839105,-0.269713665,-0.25942,-14.115499999999999,14.619079999999999,72.0
1774821981.5024316,0.0037343502044677734,2026-03-29T22:06:21.502,2026-03-29T18:06:21.502,-31618.754999999997,-49499.325,-84397.23,-50202.225,-15095.025,-20500.649999999998,4897.755,-41744.564999999995,2.4386825376662165,3.7511327054743697,4.989929361002125,5.270517934955667,1.0074392446060259,2.90409096460529,7.3621187184860535,1.8631495844281538,0.010192845,-0.97839105,-0.269713665,-0.25942,-14.115499999999999,14.619079999999999,72.0
1774821981.5024536,2.193450927734375e-05,2026-03-29T22:06:21.502,2026-03-29T18:06:21.502,-31610.745,-49502.205,-84407.67,-50220.63,-15128.46,-20530.215,4894.965,-41727.104999999996,-0.5592796051865341,0.023603029726450172,0.2757969005850348,-1.336992256681179,-11.071768883107795,-4.7068529978110005,0.22712842211090112,-0.2594002112001911,0.010192845,-0.97839105,-0.269713665,-0.25942,-14.115499999999999,14.619079999999999,72.0
1774821981.5076735,0.005219936370849609,2026-03-29T22:06:21.507,2026-03-29T18:06:21.507,-31621.545,-49504.409999999996,-84405.465,-50219.505,-15155.369999999999,-20530.89,4893.3,-41740.2,-3.1689473244121436,-3.486815863980116,-4.300962754102968,-7.116864516513481,-17.997804233203485,-9.81642819913612,-6.631984744363606,-2.2401312397867166,0.010192845,-0.97839105,-0.269713665,-0.25942,-14.115499999999999,14.619079999999999,72.0
1774821981.5076935,2.002716064453125e-05,2026-03-29T22:06:21.507,2026-03-29T18:06:21.507,-31636.215,-49519.755,-84422.7,-50230.08,-15154.695,-20531.34,4869.8099999999995,-41755.095,-4.115885426913118,-5.116292496005051,-6.601347477135159,-9.340487018079893,-16.512155009326488,-10.042136473291672,-9.865060106396859,-3.0693784373205233,0.010192845,-0.97839105,-0.269713665,-0.25942,-14.115499999999999,14.619079999999999,72.0
1774821981.5105011,0.0028076171875,2026-03-29T22:06:21.510,2026-03-29T18:06:21.510,-31628.61,-49523.939999999995,-84434.355,-50230.755,-15114.869999999999,-20540.969999999998,4885.695,-41738.22,-2.9851156763843396,-4.193102930501194,-5.671203951305765,-7.054109437079784,-7.328055555783833,-5.438442776693284,-8.0770456348508,-2.333266570837027,0.010192845,-0.97839105,-0.269713665,-0.25942,-14.115499999999999,14.619079999999999,72.0
1774821981.5105362,3.504753112792969e-05,2026-03-29T22:06:21.510,2026-03-29T18:06:21.510,-31620.285,-49509.134999999995,-84414.915,-50202.494999999995,-15015.51,-20479.364999999998,4896.405,-41730.21,-0.4106117261455235,-1.3198957115509,-2.142772101576731,-1.495027374053044,5.209369465017341,1.5932244600190675,-2.4376217629516606,-0.4264973447815883,0.010192845,-0.97839105,-0.269713665,-0.25942,-14.115499999999999,14.619079999999999,72.0
1774821981.5155127,0.004976511001586914,2026-03-29T22:06:21.515,2026-03-29T18:06:21.515,-31622.895,-49506.84,-84409.47,-50195.564999999995,-15013.529999999999,-20461.23,4888.485,-41730.39,2.265169109284862,1.9807968263076345,2.1452664971931825,4.562550794955909,15.195122713846505,7.545557949173342,4.0223052276523745,1.6568252530373093,0.010192845,-0.97839105,-0.269713665,-0.25942,-14.115499999999999,14.619079999999999,72.0
1774821981.515533,2.0265579223632812e-05,2026-03-29T22:06:21.515,2026-03-29T18:06:21.515,-31623.39,-49508.369999999995,-84412.305,-50203.17,-15056.55,-20486.25,4885.29,-41732.189999999995,3.6836204963625376,4.0603594707440385,5.094694846436419,8.191271438668663,17.973102356113454,9.559962073311718,8.023500759286819,2.844199043120218,0.010192845,-0.97839105,-0.269713665,-0.25942,-14.115499999999999,14.619079999999999,72.0
1774821981.5184388,0.0029058456420898438,2026-03-29T22:06:21.518,2026-03-29T18:06:21.518,-31620.465,-49505.49,-84409.33499999999,-50199.615,-15058.755,-20488.005,4888.44,-41731.695,3.159610459887728,3.967740163066217,5.377765821260303,7.733607803443454,12.333380615349446,6.814291260811072,7.708613652194142,2.5432237657563896,0.0061645350000000005,-0.9728979,-0.27148368,0.8698199999999999,-12.49794,13.67296,72.0
1774821981.5184658,2.6941299438476562e-05,2026-03-29T22:06:21.518,2026-03-29T18:06:21.518,-31620.239999999998,-49504.229999999996,-84404.87999999999,-50194.485,-15057.494999999999,-20490.75,4882.1849999999995,-41731.695,1.018179928150363,1.8912032973353834,3.0431392507328794,3.568666462628602,1.0495212591209686,0.8636118292324426,3.5170275071242743,0.9441013584350784,0.0061645350000000005,-0.9728979,-0.27148368,0.8698199999999999,-12.49794,13.67296,72.0
1774821981.5244164,0.0059506893157958984,2026-03-29T22:06:21.524,2026-03-29T18:06:21.524,-31622.76,-49507.74,-84412.935,-50207.13,-15076.394999999999,-20502.18,4873.545,-41733.27,-1.589487548874789,-0.9897914253773585,-0.5822524973709188,-2.1360182896406292,-10.487402570471923,-5.209791417410322,-2.152867031719958,-1.0911819496279769,0.0061645350000000005,-0.9728979,-0.27148368,0.8698199999999999,-12.49794,13.67296,72.0
1774821981.5244367,2.0265579223632812e-05,2026-03-29T22:06:21.524,2026-03-29T18:06:21.524,-31627.844999999998,-49513.814999999995,-84421.44,-50222.97,-15087.734999999999,-20500.515,4866.255,-41738.085,-3.2916398162959997,-3.147746839276769,-3.6173841794503665,-6.540344552956047,-16.86397872338654,-8.382708981571097,-6.274682539172119,-2.491170115754306,0.0061645350000000005,-0.9728979,-0.27148368,0.8698199999999999,-12.49794,13.67296,72.0
1774821981.524454,1.7404556274414062e-05,2026-03-29T22:06:21.524,2026-03-29T18:06:21.524,-31623.975,-49511.07,-84419.145,-50223.24,-15084.09,-20496.149999999998,4874.3099999999995,-41735.744999999995,-3.208809496355488,-3.5032242553931146,-4.591851660712998,-7.54468731822633,-15.21075227402688,-7.2004685402248745,-6.794193212859778,-2.5414089279761747,0.0061645350000000005,-0.9728979,-0.27148368,0.8698199999999999,-12.49794,13.67296,72.0
1774821981.5244606,6.4373016357421875e-06,2026-03-29T22:06:21.524,2026-03-29T18:06:21.524,-31620.015,-49503.96,-84405.87,-50208.345,-15077.699999999999,-20493.899999999998,4889.16,-41731.875,-1.4063302832693665,-1.9636501301183924,-3.1601288305240836,-4.796952273288628,-6.51148763387896,-2.4536283019851366,-3.6583940800178256,-1.2544226787279222,0.0061645350000000005,-0.9728979,-0.27148368,0.8698199999999999,-12.49794,13.67296,72.0
1774821981.5339568,0.009496212005615234,2026-03-29T22:06:21.533,2026-03-29T18:06:21.533,-31620.375,-49506.93,-84409.92,-50215.32,-15085.439999999999,-20498.265,4894.38,-41724.225,1.1457319286260592,0.5636926135317851,-0.2175735393638722,0.19201285491379783,4.949990691085434,3.297138868714942,1.2438917136987144,0.6506484491719561,0.0061645350000000005,-0.9728979,-0.27148368,0.8698199999999999,-12.49794,13.67296,72.0
1774821981.5339837,2.6941299438476562e-05,2026-03-29T22:06:21.533,2026-03-29T18:06:21.533,-31623.03,-49514.04,-84422.43,-50225.22,-15093.224999999999,-20508.614999999998,4886.955,-41723.729999999996,3.0830607104711207,2.677621859460258,2.616665608157617,4.857418411314636,13.704555624878475,7.07786944787567,5.16357482100631,2.1432869698354344,0.0061645350000000005,-0.9728979,-0.27148368,0.8698199999999999,-12.49794,13.67296,72.0
1774821981.5340078,2.4080276489257812e-05,2026-03-29T22:06:21.534,2026-03-29T18:06:21.534,-31620.6,-49507.155,-84412.89,-50213.744999999995,-15083.055,-20504.25,4874.085,-41727.735,3.363025260113639,3.2346841195631435,3.8639764163316874,6.887920170818725,15.7273217813303,7.029235937428886,5.9942790784259445,2.4366516669371885,0.0061645350000000005,-0.9728979,-0.27148368,0.8698199999999999,-12.49794,13.67296,72.0
1774821981.5340185,1.0728836059570312e-05,2026-03-29T22:06:21.534,2026-03-29T18:06:21.534,-31616.145,-49498.02,-84397.815,-50202.09,-15076.71,-20502.855,4863.6449999999995,-41729.715,1.8147236400139637,1.9515296454954352,2.945234025140083,5.368563758864946,10.308844274474584,3.323821682034713,3.3887746090967323,1.4041129005362813,0.0061645350000000005,-0.9728979,-0.27148368,0.8698199999999999,-12.49794,13.67296,72.0
1774821981.538174,0.004155397415161133,2026-03-29T22:06:21.538,2026-03-29T18:06:21.538,-31612.23,-49495.634999999995,-84394.75499999999,-50202.9,-15076.935,-20499.434999999998,4863.96,-41722.92,-0.7633468505667335,-0.4537690580064193,0.4491191182141203,1.194617983333721,0.28887999259977465,-1.9811560517730773,-1.0969607099776355,-0.3641013764447624,0.00463866,-0.967587855,-0.27331473,-1.38866,-11.03298,12.72684,72.0
1774821981.538197,2.3126602172851562e-05,2026-03-29T22:06:21.538,2026-03-29T18:06:21.538,-31638.375,-49523.354999999996,-84427.155,-50232.24,-15098.894999999999,-20516.085,4852.485,-41730.615,-3.0116092944763357,-2.6506590610399936,-2.2140087183671904,-3.431274200875927,-9.415341372570566,-6.05647105008539,-4.890627218539306,-1.8904889004932262,0.00463866,-0.967587855,-0.27331473,-1.38866,-11.03298,12.72684,72.0
1774821981.5420763,0.0038793087005615234,2026-03-29T22:06:21.542,2026-03-29T18:06:21.542,-31646.789999999997,-49535.1,-84444.03,-50251.59,-15121.349999999999,-20535.48,4837.1849999999995,-41738.445,-3.715817059048806,-3.4086298499821845,-3.5782667958132492,-6.1440573129217055,-14.22924806637111,-6.787137623289808,-5.829907630786513,-2.3446650172067045,0.00463866,-0.967587855,-0.27331473,-1.38866,-11.03298,12.72684,72.0
1774821981.5420957,1.9311904907226562e-05,2026-03-29T22:06:21.542,2026-03-29T18:06:21.542,-31641.254999999997,-49523.04,-84428.86499999999,-50230.305,-15097.185,-20512.665,4852.98,-41746.814999999995,-2.4478516089035836,-2.259378563949478,-2.9021401892749092,-5.613969092994457,-12.094821553032627,-3.8593059828922427,-3.354167265060224,-1.4923657256027922,0.00463866,-0.967587855,-0.27331473,-1.38866,-11.03298,12.72684,72.0
1774821981.5461493,0.004053592681884766,2026-03-29T22:06:21.546,2026-03-29T18:06:21.546,-31619.789999999997,-49501.215,-84404.745,-50206.905,-15073.289999999999,-20492.1,4875.66,-41726.295,0.19231501125806505,0.23880918756909703,-0.5561513567967139,-2.1943264882918188,-4.357506010247909,1.1070645524198852,1.1809140560263638,0.18293055770295136,0.00463866,-0.967587855,-0.27331473,-1.38866,-11.03298,12.72684,72.0
