unix_time_s,dt_s,UTC,LOCAL,EMG1_Raw,EMG2_Raw,EMG3_Raw,EMG4_Raw,EMG5_Raw,EMG6_Raw,EMG7_Raw,EMG8_Raw,EMG1_Filtered,EMG2_Filtered,EMG3_Filtered,EMG4_Filtered,EMG5_Filtered,EMG6_Filtered,EMG7_Filtered,EMG8_Filtered,Accel1_Raw,Accel2_Raw,Accel3_Raw,Gyro1_Raw,Gyro2_Raw,Gyro3_Raw,Battery
1774823695.1817527,,2026-03-29T22:34:55.181,2026-03-29T18:34:55.181,-21119.579999999998,-45286.47,-77038.605,-48646.665,-8438.895,-16311.15,8484.119999999999,-62406.18,0.4396149902597499,0.0961613434905951,-0.6844042133536479,-0.3786994035742267,-0.3663410364138814,-0.3595012343387108,0.28171662022172655,0.508893530744345,0.283385505,-0.88573992,0.392271945,-9.94952,12.955739999999999,-7.59948,67.0
1774823695.181775,2.2411346435546875e-05,2026-03-29T22:34:55.181,2026-03-29T18:34:55.181,-21128.355,-45293.534999999996,-77040.855,-48650.22,-8443.935,-16315.785,8476.425,-62410.229999999996,3.477826083399086,1.9096223671882986,0.6267253633673424,-0.14859608309961522,-0.3144249464623638,-0.2092846329731712,1.6335460617239346,2.4954282771628034,0.283385505,-0.88573992,0.392271945,-9.94952,12.955739999999999,-7.59948,67.0
1774823695.1817954,2.0265579223632812e-05,2026-03-29T22:34:55.181,2026-03-29T18:34:55.181,-21122.91,-45289.979999999996,-77040.675,-48654.09,-8449.02,-16321.769999999999,8469.315,-62406.99,4.8924987044676795,2.7421317512633983,1.5690290912720868,0.05484145824876769,-0.1649942195442418,0.012461758292783532,2.3067672623354007,3.277447848063489,0.283385505,-0.88573992,0.392271945,-9.94952,12.955739999999999,-7.59948,67.0
1774823695.181803,7.62939453125e-06,2026-03-29T22:34:55.181,2026-03-29T18:34:55.181,-21108.78,-45283.68,-77039.55,-48653.28,-8452.215,-16327.8,8459.235,-62398.665,3.968160531729865,2.2036616071347037,1.7248500382010987,0.09854144120343401,-0.022372318201002415,0.17524472097437965,1.8875449878446953,2.4099471390190623,0.283385505,-0.88573992,0.392271945,-9.94952,12.955739999999999,-7.59948,67.0
1774823695.1877823,0.005979299545288086,2026-03-29T22:34:55.187,2026-03-29T18:34:55.187,-21115.53,-45290.25,-77038.155,-48648.735,-8449.785,-16328.88,8452.98,-62400.015,1.1123889896339054,0.5910413365257433,1.0767715222238425,-0.012891558951703344,0.0511438332001174,0.20205132317727992,0.4754027524531086,0.2762673272396469,0.27215506500000003,-0.887876145,0.38928123000000003,-5.997179999999999,9.59854,-8.255659999999999,67.0
1774823695.1878295,4.7206878662109375e-05,2026-03-29T22:34:55.187,2026-03-29T18:34:55.187,-21148.065,-45302.58,-77046.345,-48657.284999999996,-8453.654999999999,-16330.23,8464.545,-62421.615,-2.3249602500615705,-1.2705671200294513,-0.00847800120303033,-0.14987889065005774,0.06361081531175639,0.10653994590959329,-1.3160660188507192,-2.0836378646475615,0.27215506500000003,-0.887876145,0.38928123000000003,-5.997179999999999,9.59854,-8.255659999999999,67.0
1774823695.193696,0.005866527557373047,2026-03-29T22:34:55.193,2026-03-29T18:34:55.193,-21146.805,-45305.955,-77060.34,-48674.88,-8466.119999999999,-16332.705,8470.755,-62423.189999999995,-4.693519707224274,-2.448087377022501,-0.9837750265977241,-0.15455262555168187,0.07043762875237311,-0.02589461632787375,-2.621623514674323,-3.4826884592104195,0.27215506500000003,-0.887876145,0.38928123000000003,-5.997179999999999,9.59854,-8.255659999999999,67.0
1774823695.193715,1.9073486328125e-05,2026-03-29T22:34:55.193,2026-03-29T18:34:55.193,-21138.12,-45306.854999999996,-77064.39,-48673.305,-8466.029999999999,-16332.39,8462.925,-62414.415,-4.837867190474085,-2.369097314165795,-1.4012654334625012,0.04096215643317931,0.11965362341725282,-0.09830470505230512,-2.740156007216193,-3.182508618928673,0.27215506500000003,-0.887876145,0.38928123000000003,-5.997179999999999,9.59854,-8.255659999999999,67.0
1774823695.1944969,0.0007817745208740234,2026-03-29T22:34:55.194,2026-03-29T18:34:55.194,-21118.454999999998,-45292.14,-77050.17,-48657.33,-8451.225,-16321.185,8465.985,-62392.14,-2.6614642341993506,-1.1027176704622377,-1.1235314145922817,0.35140014045450774,0.20478278306803147,-0.06535361784212408,-1.50491359441994,-1.2763975286947604,0.27215506500000003,-0.887876145,0.38928123000000003,-5.997179999999999,9.59854,-8.255659999999999,67.0
1774823695.194506,9.059906005859375e-06,2026-03-29T22:34:55.194,2026-03-29T18:34:55.194,-21106.079999999998,-45287.055,-77045.535,-48660.03,-8458.154999999999,-16326.404999999999,8462.835,-62375.67,0.8164606290930999,0.6860958890336131,-0.36431222774070715,0.5750478397887026,0.25936632427625544,0.03921332717278857,0.5850348054621235,1.3369200332259523,0.27215506500000003,-0.887876145,0.38928123000000003,-5.997179999999999,9.59854,-8.255659999999999,67.0
1774823695.1996944,0.005188465118408203,2026-03-29T22:34:55.199,2026-03-29T18:34:55.199,-21097.8,-45285.93,-77044.23,-48658.68,-8456.445,-16325.595,8466.029999999999,-62366.805,3.9421049593917177,2.081700158151475,0.45048545586822264,0.5146401088365931,0.20006628946659094,0.12708450648149774,2.5597260823980146,3.3823380861202206,0.27215506500000003,-0.887876145,0.38928123000000003,-5.997179999999999,9.59854,-8.255659999999999,67.0
1774823695.1997247,3.0279159545898438e-05,2026-03-29T22:34:55.199,2026-03-29T18:34:55.199,-21102.57,-45289.395,-77045.805,-48654.63,-8451.494999999999,-16324.65,8462.654999999999,-62381.34,5.21689637089081,2.384433135960126,0.917911926357841,0.11313021857113173,-0.007300615395943284,0.1162951870844051,3.427624720628716,3.832403987663718,0.27215506500000003,-0.887876145,0.38928123000000003,-5.997179999999999,9.59854,-8.255659999999999,67.0
1774823695.2026684,0.002943754196166992,2026-03-29T22:34:55.202,2026-03-29T18:34:55.202,-21132.54,-45300.015,-77046.525,-48659.58,-8454.824999999999,-16326.18,8466.435,-62410.32,4.016672176290393,1.4615093997943063,0.8609504598033936,-0.4799471178427643,-0.3024795042928926,-0.009696582037185443,2.67171849058741,2.4194260315655103,0.27215506500000003,-0.887876145,0.38928123000000003,-5.997179999999999,9.59854,-8.255659999999999,67.0
1774823695.2026873,1.8835067749023438e-05,2026-03-29T22:34:55.202,2026-03-29T18:34:55.202,-21149.055,-45304.965,-77056.92,-48674.34,-8466.615,-16334.955,8466.66,-62425.799999999996,0.8945039999024109,-0.19395691538278217,0.3957545972740819,-0.9612294290408412,-0.5414021062486005,-0.18291937301248087,0.5447333123055704,-0.21843069701511061,0.27215506500000003,-0.887876145,0.38928123000000003,-5.997179999999999,9.59854,-8.255659999999999,67.0
1774823695.2089317,0.0062444210052490234,2026-03-29T22:34:55.208,2026-03-29T18:34:55.208,-21127.68,-45298.619999999995,-77056.785,-48671.729999999996,-8465.265,-16338.465,8455.815,-62406.314999999995,-2.6784583963316,-1.7222412065642494,-0.16240928844102068,-1.0284023752799245,-0.5661907534441417,-0.2866718460991194,-2.0007533185803776,-2.8325095084691605,0.26324395500000003,-0.906674925,0.38622948,5.06632,6.34816,-11.10928,67.0
1774823695.2089689,3.719329833984375e-05,2026-03-29T22:34:55.208,2026-03-29T18:34:55.208,-21119.219999999998,-45296.865,-77052.78,-48661.335,-8458.425,-16337.025,8448.39,-62396.954999999994,-5.010242278535658,-2.3395331342066648,-0.4923822052729942,-0.5580556307580247,-0.3006368582720389,-0.2277356683837709,-3.738272240432383,-4.159921615840447,0.26324395500000003,-0.906674925,0.38622948,5.06632,6.34816,-11.10928,67.0
1774823695.211214,0.002245187759399414,2026-03-29T22:34:55.211,2026-03-29T18:34:55.211,-21130.469999999998,-45298.08,-77045.76,-48645.63,-8442.539999999999,-16323.615,8446.5,-62411.354999999996,-4.99056894799598,-1.7371347515277382,-0.447277183262718,0.29418814175527863,0.183724009224444,-0.002586267167224754,-3.7596231325005287,-3.5330235009211406,0.26324395500000003,-0.906674925,0.38622948,5.06632,6.34816,-11.10928,67.0
1774823695.2112267,1.2636184692382812e-05,2026-03-29T22:34:55.211,2026-03-29T18:34:55.211,-21135.105,-45303.165,-77044.815,-48638.88,-8436.6,-16317.18,8452.395,-62411.13,-2.61704769790927,-0.23495316215281095,-0.12240044567524193,1.1378649792063689,0.6762494303589913,0.28472721990574806,-1.9467051464213994,-1.2077334448935928,0.26324395500000003,-0.906674925,0.38622948,5.06632,6.34816,-11.10928,67.0
1774823695.2152388,0.004012107849121094,2026-03-29T22:34:55.215,2026-03-29T18:34:55.215,-21137.895,-45300.195,-77047.965,-48657.195,-8452.035,-16325.279999999999,8467.154999999999,-62412.165,1.0032581023843101,1.3866002432544724,0.22139003120632353,1.5282082188816317,0.9182366782210465,0.4697779771256943,0.9212206593602842,1.7478713708128237,0.26324395500000003,-0.906674925,0.38622948,5.06632,6.34816,-11.10928,67.0
1774823695.215259,2.0265579223632812e-05,2026-03-29T22:34:55.215,2026-03-29T18:34:55.215,-21131.415,-45292.725,-77040.495,-48653.235,-8447.895,-16321.68,8469.9,-62405.145,4.175241428583679,2.288396374961655,0.32868851417241113,1.1986123057626903,0.7373088600164935,0.4190765850843556,3.5005968802616807,3.952031087893931,0.26324395500000003,-0.906674925,0.38622948,5.06632,6.34816,-11.10928,67.0
1774823695.2192097,0.003950595855712891,2026-03-29T22:34:55.219,2026-03-29T18:34:55.219,-21129.12,-45299.52,-77054.895,-48668.939999999995,-8462.744999999999,-16334.955,8465.31,-62400.869999999995,5.411785325328926,2.0022842390386173,0.11235470861548633,0.22417768915997405,0.15594374101611727,0.11592879339049506,4.515972240630541,4.358068518127879,0.26324395500000003,-0.906674925,0.38622948,5.06632,6.34816,-11.10928,67.0
1774823695.2192397,3.0040740966796875e-05,2026-03-29T22:34:55.219,2026-03-29T18:34:55.219,-21125.61,-45297.945,-77052.78,-48659.04,-8451.63,-16325.865,8464.095,-62399.43,4.129137080346111,0.6701746212260523,-0.28814524153300763,-0.978293550369907,-0.5897875945307055,-0.3109046370528586,3.392769766705286,2.7471249908433153,0.26324395500000003,-0.906674925,0.38622948,5.06632,6.34816,-11.10928,67.0
1774823695.2247832,0.00554347038269043,2026-03-29T22:34:55.224,2026-03-29T18:34:55.224,-21117.329999999998,-45287.145,-77041.75499999999,-48655.845,-8448.615,-16320.644999999999,8467.65,-62394.03,0.9171709694717968,-1.0281077995737646,-0.58837581669418,-1.8294580297384095,-1.1438116723700291,-0.6397561730129732,0.5753745827795974,-0.16537985159818386,0.26324395500000003,-0.906674925,0.38622948,5.06632,6.34816,-11.10928,67.0
1774823695.2248461,6.29425048828125e-05,2026-03-29T22:34:55.224,2026-03-29T18:34:55.224,-21116.7,-45291.42,-77045.625,-48660.84,-8453.744999999999,-16324.92,8466.57,-62389.89,-2.737988322755082,-2.220639023864099,-0.5349018184135141,-1.868113362428263,-1.20009719525773,-0.6695235831751284,-2.6431362312173117,-3.0568746883105633,0.26324395500000003,-0.906674925,0.38622948,5.06632,6.34816,-11.10928,67.0
1774823695.2337928,0.008946657180786133,2026-03-29T22:34:55.233,2026-03-29T18:34:55.233,-21114.809999999998,-45295.92,-77047.47,-48665.159999999996,-8457.93,-16329.555,8460.72,-62388.54,-5.1453874679395595,-2.287109570055181,-0.07376474355163906,-0.9965959635810532,-0.6679469668065445,-0.33665803976536,-4.717932190575126,-4.603870472892968,0.26660088,-0.91625742,0.38891502,21.54712,5.96666,-7.584219999999999,67.0
1774823695.233814,2.1219253540039062e-05,2026-03-29T22:34:55.233,2026-03-29T18:34:55.233,-21119.04,-45297.99,-77038.2,-48655.845,-8453.744999999999,-16326.045,8455.904999999999,-62381.204999999994,-5.190919868980823,-1.1758914860304637,0.5897716999940736,0.4379651303479581,0.2552131826508399,0.23009652118357063,-4.599020314292341,-4.086430249819485,0.26660088,-0.91625742,0.38891502,21.54712,5.96666,-7.584219999999999,67.0
1774823695.2338345,2.0503997802734375e-05,2026-03-29T22:34:55.233,2026-03-29T18:34:55.233,-21122.235,-45290.744999999995,-77039.235,-48654.585,-8454.42,-16328.295,8454.06,-62380.215,-2.8480198297829142,0.5655989163408774,1.083252355267491,1.7804470113220825,1.151890114946324,0.75527506012808,-2.2642895640304266,-1.7152901776921494,0.26660088,-0.91625742,0.38891502,21.54712,5.96666,-7.584219999999999,67.0
1774823695.2338417,7.152557373046875e-06,2026-03-29T22:34:55.233,2026-03-29T18:34:55.233,-21117.645,-45284.895,-77049.27,-48658.229999999996,-8454.96,-16331.939999999999,8448.66,-62391.78,0.8143661480749284,2.0627498750890654,1.068958803652204,2.369236111580027,1.573034676024365,0.9489814852440402,1.2325675300196255,1.4632281435575736,0.26660088,-0.91625742,0.38891502,21.54712,5.96666,-7.584219999999999,67.0
1774823695.2338498,8.106231689453125e-06,2026-03-29T22:34:55.233,2026-03-29T18:34:55.233,-21114.315,-45289.799999999996,-77046.66,-48651.659999999996,-8447.039999999999,-16325.279999999999,8454.15,-62388.494999999995,4.1248172633339255,2.551688148623574,0.4484416106266567,1.8624747958856926,1.2620494316140642,0.6630199852291141,4.240313527920335,4.036449414748536,0.26660088,-0.91625742,0.38891502,21.54712,5.96666,-7.584219999999999,67.0
1774823695.2338555,5.7220458984375e-06,2026-03-29T22:34:55.233,2026-03-29T18:34:55.233,-21104.954999999998,-45284.04,-77036.22,-48653.189999999995,-8448.164999999999,-16322.13,8469.9,-62376.84,5.573329186305357,1.7642747984800184,-0.5466850306752181,0.42807943562550227,0.3029742868533891,-0.011683312554341034,5.296479136548873,4.854397353856416,0.26660088,-0.91625742,0.38891502,21.54712,5.96666,-7.584219999999999,67.0
1774823695.2458167,0.011961221694946289,2026-03-29T22:34:55.245,2026-03-29T18:34:55.245,-21101.76,-45287.685,-77041.395,-48659.67,-8456.67,-16327.394999999999,8477.73,-62370.314999999995,4.496290723144704,0.0678034864546273,-1.4393006218919806,-1.3049755281575823,-0.8897163596771253,-0.7655686187086063,3.8442905980328743,3.5379547975158157,0.26660088,-0.91625742,0.38891502,21.54712,5.96666,-7.584219999999999,67.0
1774823695.2458303,1.3589859008789062e-05,2026-03-29T22:34:55.245,2026-03-29T18:34:55.245,-21093.84,-45287.865,-77047.515,-48663.765,-8457.39,-16328.654999999999,8477.595,-62366.354999999996,1.3736652339874258,-1.7107824418702897,-1.736538544157481,-2.5240637830228128,-1.7486904924731426,-1.2104179524367256,0.5260068463532713,0.6445818794948805,0.26660088,-0.91625742,0.38891502,21.54712,5.96666,-7.584219999999999,67.0
1774823695.245844,1.3589859008789062e-05,2026-03-29T22:34:55.245,2026-03-29T18:34:55.245,-21107.114999999998,-45302.13,-77050.665,-48666.78,-8459.279999999999,-16332.345,8462.699999999999,-62368.155,-2.391280063585443,-2.6899108193284382,-1.1933874062655152,-2.6157590211861876,-1.823428752262849,-1.0764475230048935,-3.1019952489249403,-2.5758374091947798,0.26660088,-0.91625742,0.38891502,21.54712,5.96666,-7.584219999999999,67.0
1774823695.2458484,4.5299530029296875e-06,2026-03-29T22:34:55.245,2026-03-29T18:34:55.245,-21131.82,-45297.494999999995,-77040.62999999999,-48662.145,-8460.27,-16333.154999999999,8450.82,-62380.439999999995,-5.1053982262763995,-2.368264766591421,0.028010598960661645,-1.4729509390031437,-1.0139381390420856,-0.36755340678650344,-5.30582572949284,-4.72374500728713,0.26660088,-0.91625742,0.38891502,21.54712,5.96666,-7.584219999999999,67.0
1774823695.24722,0.001371622085571289,2026-03-29T22:34:55.247,2026-03-29T18:34:55.247,-21120.165,-45278.009999999995,-77035.185,-48658.905,-8460.315,-16333.965,8452.08,-62388.27,-5.544923253135867,-0.8756841972764859,1.3968543903261776,0.42678689427028815,0.35159103283002646,0.6115941958069963,-5.010773458847844,-4.854199337150257,0.27026298,-0.90783459,0.395934045,14.63434,11.26188,-8.98814,67.0
1774823695.2472284,8.344650268554688e-06,2026-03-29T22:34:55.247,2026-03-29T18:34:55.247,-21109.905,-45278.235,-77033.87999999999,-48652.83,-8451.585,-16322.939999999999,8469.9,-62381.07,-3.501242127804803,1.0832939860053261,2.2469826179597665,2.2205585517965902,1.6461347376353639,1.3834340073286064,-2.3306246798921246,-2.8840739426345383,0.27026298,-0.90783459,0.395934045,14.63434,11.26188,-8.98814,67.0
1774823695.2514389,0.004210472106933594,2026-03-29T22:34:55.251,2026-03-29T18:34:55.251,-21105.809999999998,-45285.119999999995,-77045.31,-48663.314999999995,-8460.494999999999,-16328.835,8477.324999999999,-62366.895,0.12714547007881746,2.5663853820387184,2.100992464688256,3.0539892729915574,2.231256510583888,1.5282721178512029,1.4735520334503505,0.3686900251371967,0.27026298,-0.90783459,0.395934045,14.63434,11.26188,-8.98814,67.0
1774823695.251466,2.7179718017578125e-05,2026-03-29T22:34:55.251,2026-03-29T18:34:55.251,-21107.295,-45296.685,-77065.37999999999,-48682.845,-8478.72,-16345.394999999999,8474.985,-62363.07,3.7336326420703174,2.847831522482327,0.9273457205619778,2.488937611837584,1.771131334648581,0.9072609108277945,4.592019230856386,3.52779393826353,0.27026298,-0.90783459,0.395934045,14.63434,11.26188,-8.98814,67.0
1774823695.2554157,0.003949642181396484,2026-03-29T22:34:55.255,2026-03-29T18:34:55.255,-21112.155,-45302.58,-77069.06999999999,-48681.45,-8476.425,-16345.71,8476.289999999999,-62363.655,5.714359148836499,1.7704787310742756,-0.8042299437678886,0.7303115748048468,0.41913942505366575,-0.238896095033923,5.535875310075169,5.238021523817764,0.27026298,-0.90783459,0.395934045,14.63434,11.26188,-8.98814,67.0
1774823695.2554517,3.600120544433594e-05,2026-03-29T22:34:55.255,2026-03-29T18:34:55.255,-21123.045,-45304.92,-77063.48999999999,-48669.705,-8465.4,-16338.689999999999,8455.41,-62376.884999999995,5.176868888818879,-0.1738797496775293,-2.3114079417776416,-1.4438769530248634,-1.2242350136999978,-1.3777559349771542,3.855764911240158,4.739333369194747,0.27026298,-0.90783459,0.395934045,14.63434,11.26188,-8.98814,67.0
1774823695.2590036,0.003551959991455078,2026-03-29T22:34:55.259,2026-03-29T18:34:55.259,-21136.68,-45307.665,-77055.48,-48658.814999999995,-8454.24,-16327.845,8446.725,-62395.47,2.335984810018723,-2.0743714839257796,-2.855658774599383,-3.0277158222317326,-2.3767243610224797,-1.9306699549126292,0.35924758034963594,2.1966578663356224,0.27026298,-0.90783459,0.395934045,14.63434,11.26188,-8.98814,67.0
1774823695.2590272,2.3603439331054688e-05,2026-03-29T22:34:55.259,2026-03-29T18:34:55.259,-21126.375,-45297.18,-77047.11,-48664.979999999996,-8461.8,-16331.039999999999,8442.81,-62390.835,-1.5755384461647481,-3.031198676831396,-2.1026472514965966,-3.2542475691806754,-2.4463371725779677,-1.5636028127808157,-3.2799324462065176,-1.3535093260764783,0.27026298,-0.90783459,0.395934045,14.63434,11.26188,-8.98814,67.0
1774823695.2628503,0.0038230419158935547,2026-03-29T22:34:55.262,2026-03-29T18:34:55.262,-21111.03,-45286.155,-77037.39,-48655.395,-8451.585,-16321.275,8450.055,-62373.375,-4.842467225695673,-2.5814527535706815,-0.3113708971322816,-1.9668081908068442,-1.3333898814060832,-0.3782755111289498,-5.330467464242476,-4.422392973144658,0.27026298,-0.90783459,0.395934045,14.63434,11.26188,-8.98814,67.0
1774823695.2628646,1.430511474609375e-05,2026-03-29T22:34:55.262,2026-03-29T18:34:55.262,-21116.745,-45297.765,-77050.62,-48665.295,-8460.36,-16332.255,8456.625,-62368.604999999996,-6.016127128348415,-0.9192444706074139,1.749799675135329,0.284728081960303,0.49068739578808407,1.1020665904727927,-4.835951501788598,-5.6865949004864245,0.27026298,-0.90783459,0.395934045,14.63434,11.26188,-8.98814,67.0
1774823695.2673104,0.004445791244506836,2026-03-29T22:34:55.267,2026-03-29T18:34:55.267,-21123.855,-45305.325,-77059.215,-48674.744999999995,-8469.27,-16340.355,8461.529999999999,-62372.97,-4.551893865736698,1.1928388190940449,3.1355879541030265,2.4781447880759018,2.180099795341891,2.1615962696117204,-2.0668829827347297,-4.552004487951505,0.27038505,-0.8837868,0.40453998,-2.12114,14.23758,-6.683879999999999,67.0
1774823695.2673388,2.8371810913085938e-05,2026-03-29T22:34:55.267,2026-03-29T18:34:55.267,-21122.415,-45301.14,-77055.03,-48668.174999999996,-8462.205,-16334.189999999999,8464.5,-62376.93,-1.0572929223680039,2.778209489827507,3.1595871021145823,3.5841538851828108,2.906518672802369,2.236442923248298,1.6241496024858555,-1.4276133597278213,0.27038505,-0.8837868,0.40453998,-2.12114,14.23758,-6.683879999999999,67.0
1774823695.2723944,0.005055665969848633,2026-03-29T22:34:55.272,2026-03-29T18:34:55.272,-21109.77,-45287.009999999995,-77041.44,-48651.03,-8445.869999999999,-16319.88,8463.51,-62371.755,2.9602746859905436,3.0999245691173196,1.7315808042138294,3.050605773492269,2.2646957023798673,1.209595085926839,4.467682704314758,2.4146218686558356,0.27038505,-0.8837868,0.40453998,-2.12114,14.23758,-6.683879999999999,67.0
1774823695.2724228,2.8371810913085938e-05,2026-03-29T22:34:55.272,2026-03-29T18:34:55.272,-21110.67,-45286.965,-77035.635,-48645.134999999995,-8441.955,-16316.505,8464.635,-62372.159999999996,5.7416315169725305,2.0020134662723006,-0.5681949424179661,1.0775220078964656,0.4934675461001761,-0.49618438298410983,5.133737876745886,5.350314196512831,0.27038505,-0.8837868,0.40453998,-2.12114,14.23758,-6.683879999999999,67.0
1774823695.2751725,0.0027496814727783203,2026-03-29T22:34:55.275,2026-03-29T18:34:55.275,-21115.395,-45289.575,-77038.83,-48659.354999999996,-8456.039999999999,-16326.494999999999,8460.855,-62376.165,6.042736991008325,-0.018880221871478066,-2.7255178429815325,-1.453647349124713,-1.6064097564093676,-2.088895526141186,3.3611815235300813,6.08328804808381,0.27038505,-0.8837868,0.40453998,-2.12114,14.23758,-6.683879999999999,67.0
1774823695.2751937,2.1219253540039062e-05,2026-03-29T22:34:55.275,2026-03-29T18:34:55.275,-21112.469999999998,-45286.29,-77037.97499999999,-48657.06,-8454.465,-16324.65,8461.755,-62373.465,3.6882179959784662,-2.0426725082283412,-3.74266380255034,-3.3740171175321287,-3.0334991065830077,-2.7745264264469798,0.05891618009667626,4.214971991504561,0.27038505,-0.8837868,0.40453998,-2.12114,14.23758,-6.683879999999999,67.0
1774823695.279352,0.0041582584381103516,2026-03-29T22:34:55.279,2026-03-29T18:34:55.279,-21109.005,-45286.604999999996,-77040.18,-48656.205,-8453.654999999999,-16323.795,8465.355,-62366.715,-0.33330321627948184,-3.1481047434266856,-3.1015453118761958,-3.7684769505319173,-3.06349147484532,-2.150907963177566,-3.1596348540383405,0.4540363021725192,0.27038505,-0.8837868,0.40453998,-2.12114,14.23758,-6.683879999999999,67.0
1774823695.2793717,1.9788742065429688e-05,2026-03-29T22:34:55.279,2026-03-29T18:34:55.279,-21111.165,-45291.15,-77045.265,-48661.92,-8458.47,-16328.744999999999,8463.555,-62367.704999999994,-4.282036840955127,-2.833002105052336,-1.023971159625024,-2.413091142281824,-1.615496907155062,-0.43348701129296374,-4.770362150939014,-3.6418577997966985,0.27038505,-0.8837868,0.40453998,-2.12114,14.23758,-6.683879999999999,67.0
1774823695.285406,0.006034374237060547,2026-03-29T22:34:55.285,2026-03-29T18:34:55.285,-21112.785,-45291.33,-77043.465,-48659.22,-8456.4,-16328.654999999999,8461.89,-62370.899999999994,-6.417428587686956,-1.2406705703404546,1.6002423201865994,0.10080952996310444,0.6779288102695152,1.610296167170611,-4.067456135432726,-6.304799594426871,0.27038505,-0.8837868,0.40453998,-2.12114,14.23758,-6.683879999999999,67.0
1774823695.2854216,1.5497207641601562e-05,2026-03-29T22:34:55.285,2026-03-29T18:34:55.285,-21112.605,-45291.555,-77041.53,-48657.78,-8455.68,-16328.34,8464.949999999999,-62370.09,-5.764245484945301,0.9086651525777611,3.5967305851135447,2.623353852843467,2.7454197514410756,3.0037994276546542,-1.4755302288333187,-6.318116238946691,0.27038505,-0.8837868,0.40453998,-2.12114,14.23758,-6.683879999999999,67.0
1774823695.2878423,0.002420663833618164,2026-03-29T22:34:55.287,2026-03-29T18:34:55.287,-21109.95,-45290.924999999996,-77042.83499999999,-48661.38,-8456.58,-16328.519999999999,8464.949999999999,-62367.84,-2.557994996114033,2.6471316115306873,4.035446117524452,3.972988862655191,3.5778299024015348,3.02817887653325,1.694461675660597,-3.573858857062272,0.26818779,-0.8718849750000001,0.400694775,-22.09648,16.84704,-2.79258,67.0
1774823695.2878575,1.52587890625e-05,2026-03-29T22:34:55.287,2026-03-29T18:34:55.287,-21104.73,-45285.705,-77036.22,-48657.96,-8455.185,-16327.394999999999,8457.885,-62360.505,1.8340258432397465,3.1972615884254654,2.6655097230957727,3.491840319481125,2.721087835916596,1.5900275361646818,3.909360964918207,0.8301220684688136,0.26818779,-0.8718849750000001,0.400694775,-22.09648,16.84704,-2.79258,67.0
1774823695.291695,0.00383758544921875,2026-03-29T22:34:55.291,2026-03-29T18:34:55.291,-21106.17,-45289.215,-77043.15,-48661.92,-8456.805,-16329.195,8460.135,-62359.875,5.493720633761128,2.3198625075307717,0.05219419762974572,1.3678245569764855,0.5199395802424212,-0.697328717141036,4.160830797926556,5.021103463154327,0.26818779,-0.8718849750000001,0.400694775,-22.09648,16.84704,-2.79258,67.0
1774823695.2917163,2.1219253540039062e-05,2026-03-29T22:34:55.291,2026-03-29T18:34:55.291,-21111.12,-45295.784999999996,-77053.275,-48670.74,-8463.96,-16335.404999999999,8468.505,-62363.295,6.790150445747523,0.4162312211225511,-2.6565250289449227,-1.4347369737123423,-2.0167857253380412,-2.7744888786368644,2.4286778868552332,7.146617736915717,0.26818779,-0.8718849750000001,0.400694775,-22.09648,16.84704,-2.79258,67.0
1774823695.2954988,0.003782510757446289,2026-03-29T22:34:55.295,2026-03-29T18:34:55.295,-21117.555,-45293.895,-77045.31,-48663.494999999995,-8456.49,-16327.215,8478.09,-62370.99,5.108723396984528,-1.6579824320035879,-4.237486127240359,-3.6127981188723175,-3.6790656459718587,-3.6284282269704775,-0.3544228178778203,6.197422197929473,0.26818779,-0.8718849750000001,0.400694775,-22.09648,16.84704,-2.79258,67.0
1774823695.2955184,1.9550323486328125e-05,2026-03-29T22:34:55.295,2026-03-29T18:34:55.295,-21126.87,-45297.854999999996,-77048.37,-48672.314999999995,-8465.67,-16333.154999999999,8463.105,-62382.284999999996,1.144437640648842,-2.9799079638663253,-3.9483008519202007,-4.132111528525253,-3.6340991100406432,-2.78696648180666,-2.7993751596689136,2.490737266171791,0.26818779,-0.8718849750000001,0.400694775,-22.09648,16.84704,-2.79258,67.0
1774823695.299553,0.004034519195556641,2026-03-29T22:34:55.299,2026-03-29T18:34:55.299,-21125.745,-45300.555,-77053.00499999999,-48675.33,-8470.215,-16339.994999999999,8440.605,-62380.845,-3.3820789366081137,-2.9715509623189322,-1.8776380010169322,-2.720704387262289,-1.8430815302603125,-0.5734876228253243,-3.756003269574492,-2.419924671231877,0.26818779,-0.8718849750000001,0.400694775,-22.09648,16.84704,-2.79258,67.0
1774823695.299584,3.0994415283203125e-05,2026-03-29T22:34:55.299,2026-03-29T18:34:55.299,-21119.309999999998,-45296.189999999995,-77046.56999999999,-48667.725,-8463.15,-16335.855,8430.795,-62375.49,-6.472198740006301,-1.6524542156095914,1.0760864736183633,-0.011876734328996318,0.89218526930624,2.0133481272112537,-2.85804746011793,-6.393865422485906,0.26818779,-0.8718849750000001,0.400694775,-22.09648,16.84704,-2.79258,67.0
1774823695.3028593,0.0032753944396972656,2026-03-29T22:34:55.302,2026-03-29T18:34:55.302,-21114.495,-45290.43,-77040.09,-48663.45,-8459.64,-16332.75,8440.65,-62369.729999999996,-6.735946896597833,0.37729867421599456,3.5964813967541165,2.738557238961523,3.288345159293366,3.7525468737315695,-0.6576593868210943,-7.64174283762071,0.26818779,-0.8718849750000001,0.400694775,-22.09648,16.84704,-2.79258,67.0
1774823695.3028855,2.6226043701171875e-05,2026-03-29T22:34:55.302,2026-03-29T18:34:55.302,-21118.68,-45289.53,-77038.065,-48659.715,-8455.86,-16329.105,8463.779999999999,-62373.284999999996,-4.022488597568434,2.2118942727592503,4.539823066630024,4.235286941554406,4.184389684313256,3.7798466890002387,1.6965452740547389,-5.539678659335751,0.26818779,-0.8718849750000001,0.400694775,-22.09648,16.84704,-2.79258,67.0
1774823695.3072965,0.004410982131958008,2026-03-29T22:34:55.307,2026-03-29T18:34:55.307,-21115.62,-45288.405,-77040.62999999999,-48661.74,-8458.785,-16333.74,8470.8,-62368.965,0.4943257343934771,3.045949790312231,3.457935085096344,3.7557919378129463,3.1053096579455466,2.016879151695232,3.0560460632685706,-0.9442683418178596,0.26708916,-0.883481625,0.39282126,-20.92146,17.3964,0.51884,67.0
1774823695.3073237,2.7179718017578125e-05,2026-03-29T22:34:55.307,2026-03-29T18:34:55.307,-21113.37,-45293.354999999996,-77047.11,-48666.24,-8464.949999999999,-16341.705,8458.695,-62364.42,4.823987034930194,2.5293102971467887,0.81265468637275,1.5014956497547398,0.5111882378990098,-0.7628061175171688,2.83458956412831,4.152377870666183,0.26708916,-0.883481625,0.39282126,-20.92146,17.3964,0.51884,67.0
1774823695.311257,0.0039331912994384766,2026-03-29T22:34:55.311,2026-03-29T18:34:55.311,-21100.14,-45294.75,-77055.56999999999,-48674.835,-8474.13,-16351.154999999999,8455.05,-62346.915,7.041589341202619,0.913853720991009,-2.221347712603879,-1.4838556255495912,-2.397896555317814,-3.2751617476286534,1.2596811843570797,7.491489861457205,0.26708916,-0.883481625,0.39282126,-20.92146,17.3964,0.51884,67.0
1774823695.3113344,7.748603820800781e-05,2026-03-29T22:34:55.311,2026-03-29T18:34:55.311,-21082.68,-45298.305,-77070.42,-48693.33,-8491.725,-16362.945,8455.86,-62321.13,6.151144644346436,-1.0690517963047168,-4.281263036114594,-3.797152846056918,-4.238998162785073,-4.322887958287542,-0.7937604783117003,7.559161311574312,0.26708916,-0.883481625,0.39282126,-20.92146,17.3964,0.51884,67.0
1774823695.3153667,0.0040323734283447266,2026-03-29T22:34:55.315,2026-03-29T18:34:55.315,-21090.239999999998,-45308.7,-77078.565,-48698.055,-8493.255,-16359.345,8453.744999999999,-62323.244999999995,2.5390433702252855,-2.5410082431677057,-4.4326802505468805,-4.336858041722015,-4.105792840823449,-3.3687189019444808,-2.2803429646100355,4.282417473226162,0.26708916,-0.883481625,0.39282126,-20.92146,17.3964,0.51884,67.0
1774823695.3153942,2.7418136596679688e-05,2026-03-29T22:34:55.315,2026-03-29T18:34:55.315,-21105.045,-45299.7,-77060.79,-48680.415,-8472.869999999999,-16337.789999999999,8458.11,-62345.07,-2.192118923078089,-2.8674480662167716,-2.5971638542851982,-2.8298792655661416,-2.014830196412186,-0.8088449588247834,-2.5148986275225256,-0.9151570108785835,0.26708916,-0.883481625,0.39282126,-20.92146,17.3964,0.51884,67.0
1774823695.3192723,0.0038781166076660156,2026-03-29T22:34:55.319,2026-03-29T18:34:55.319,-21150.855,-45293.895,-77027.04,-48639.689999999995,-8430.84,-16300.305,8475.795,-62407.079999999994,-5.939175045761627,-1.9324161474853416,0.4063484713425579,0.028656015699226312,1.081366953122432,2.192033226940772,-1.4877210770586162,-5.735824161768529,0.26708916,-0.883481625,0.39282126,-20.92146,17.3964,0.51884,67.0
1774823695.3192923,2.002716064453125e-05,2026-03-29T22:34:55.319,2026-03-29T18:34:55.319,-21143.655,-45289.845,-77029.065,-48650.13,-8442.404999999999,-16308.404999999999,8476.83,-62398.485,-7.042048368739679,-0.17786955742675378,3.228320459242021,2.894778072484474,3.73003496853186,4.235127360510717,0.18058607768637427,-8.03436637313643,0.26708916,-0.883481625,0.39282126,-20.92146,17.3964,0.51884,67.0
1774823695.323486,0.004193782806396484,2026-03-29T22:34:55.323,2026-03-29T18:34:55.323,-21125.969999999998,-45292.68,-77042.16,-48664.35,-8456.67,-16321.724999999999,8473.545,-62378.369999999995,-5.027881833900109,1.6048128436201794,4.598638438939547,4.407958661913974,4.662439199668449,4.344059944613177,1.5986372247411673,-6.78500442940314,0.26708916,-0.883481625,0.39282126,-20.92146,17.3964,0.51884,67.0
1774823695.323501,1.5020370483398438e-05,2026-03-29T22:34:55.323,2026-03-29T18:34:55.323,-21121.785,-45293.939999999995,-77046.39,-48668.4,-8462.25,-16328.43,8467.02,-62375.13,-0.8176735195928777,2.6330207250004936,3.9025070805496713,3.838529702282516,3.4029961016214743,2.4331238659013543,2.0753023093397864,-2.546599261420122,0.26708916,-0.883481625,0.39282126,-20.92146,17.3964,0.51884,67.0
1774823695.3290129,0.005511760711669922,2026-03-29T22:34:55.329,2026-03-29T18:34:55.329,-21115.53,-45288.674999999996,-77039.415,-48658.365,-8455.005,-16324.605,8467.154999999999,-62369.1,3.6971938901133528,2.4782993592700606,1.4592601191866836,1.4413700752263217,0.5100182702497739,-0.6381584977750204,1.4550119850683227,2.7886620706658163,0.26147394,-0.894467925,0.38378808000000003,-12.72684,17.89998,-0.56462,67.0
1774823695.3290367,2.384185791015625e-05,2026-03-29T22:34:55.329,2026-03-29T18:34:55.329,-21123.899999999998,-45293.534999999996,-77039.81999999999,-48651.84,-8450.46,-16324.244999999999,8467.244999999999,-62374.095,6.512967142115339,1.2458315190513867,-1.6235790050134598,-1.6563498153421854,-2.6730935067183896,-3.455753533751441,0.15497996767341926,6.849593380834033,0.26147394,-0.894467925,0.38378808000000003,-12.72684,17.89998,-0.56462,67.0
1774823695.3457556,0.01671886444091797,2026-03-29T22:34:55.345,2026-03-29T18:34:55.345,-21126.195,-45298.53,-77047.515,-48656.159999999996,-8455.095,-16329.734999999999,8466.48,-62374.005,6.412958847152588,-0.48757435432144514,-3.954388690854371,-3.984732465464734,-4.644598473148441,-4.707485248131391,-1.0945114732443784,7.8529799594852605,0.26147394,-0.894467925,0.38378808000000003,-12.72684,17.89998,-0.56462,67.0
1774823695.3457713,1.5735626220703125e-05,2026-03-29T22:34:55.345,2026-03-29T18:34:55.345,-21130.29,-45302.67,-77050.98,-48664.53,-8461.35,-16333.154999999999,8461.17,-62372.655,3.499693917917305,-1.943044135015595,-4.489232755022602,-4.429235340927252,-4.455175906087653,-3.7977943648581953,-1.6522903294822013,5.396601807973945,0.26147394,-0.894467925,0.38378808000000003,-12.72684,17.89998,-0.56462,67.0
1774823695.3457873,1.5974044799804688e-05,2026-03-29T22:34:55.345,2026-03-29T18:34:55.345,-21126.329999999998,-45299.7,-77047.65,-48669.299999999996,-8463.465,-16332.255,8463.779999999999,-62367.255,-0.8763438774106037,-2.4909963663041275,-3.002881033565983,-2.7652758998517593,-2.165086706516647,-1.1310849012406738,-1.2923355328882749,0.6206322221835469,0.26147394,-0.894467925,0.38378808000000003,-12.72684,17.89998,-0.56462,67.0
1774823695.345792,4.76837158203125e-06,2026-03-29T22:34:55.345,2026-03-29T18:34:55.345,-21125.25,-45298.89,-77047.83,-48670.92,-8464.41,-16334.01,8462.699999999999,-62370.09,-4.748344236031809,-1.9252766491820748,-0.18506923227378178,0.22765479690095905,1.1725523942719893,2.0711993992928206,-0.28870929409379276,-4.327503559668515,0.26147394,-0.894467925,0.38378808000000003,-12.72684,17.89998,-0.56462,67.0
1774823695.3457973,5.245208740234375e-06,2026-03-29T22:34:55.345,2026-03-29T18:34:55.345,-21122.684999999998,-45295.83,-77044.095,-48669.075,-8463.33,-16332.93,8461.395,-62369.954999999994,-6.427156555081016,-0.5399401673459887,2.679674691625547,3.1305282006814332,3.999087555116364,4.335448643634002,0.7686739150848295,-7.270733100455291,0.26147394,-0.894467925,0.38378808000000003,-12.72684,17.89998,-0.56462,67.0
1774823695.345801,3.814697265625e-06,2026-03-29T22:34:55.345,2026-03-29T18:34:55.345,-21118.77,-45288.765,-77026.545,-48658.634999999995,-8461.89,-16329.195,8459.055,-62357.534999999996,-5.246461821753185,1.0195708373843693,4.299745135223726,4.557572261593066,4.9811711665772505,4.618858643807659,1.3118025084965856,-6.971410795401962,0.26147394,-0.894467925,0.38378808000000003,-12.72684,17.89998,-0.56462,67.0
1774823695.345806,4.76837158203125e-06,2026-03-29T22:34:55.345,2026-03-29T18:34:55.345,-21123.675,-45295.064999999995,-77032.845,-48661.965,-8464.005,-16333.019999999999,8453.25,-62363.34,-1.8262819241446153,2.0569643317963275,3.961702578106091,3.818052281214879,3.6408853610265743,2.7916239237668403,1.0960229389063953,-3.654956399725996,0.26147394,-0.894467925,0.38378808000000003,-12.72684,17.89998,-0.56462,67.0
1774823695.3458095,3.5762786865234375e-06,2026-03-29T22:34:55.345,2026-03-29T18:34:55.345,-21119.085,-45291.915,-77034.19499999999,-48662.505,-8463.375,-16332.525,8451.045,-62364.284999999996,2.24895599109515,2.1374633847747795,1.8465319355462506,1.2506410826654815,0.5866720741700782,-0.305541151294207,0.3064199596496474,1.135011780450836,0.26147394,-0.894467925,0.38378808000000003,-12.72684,17.89998,-0.56462,67.0
1774823695.3502336,0.004424095153808594,2026-03-29T22:34:55.350,2026-03-29T18:34:55.350,-21101.715,-45276.03,-77017.68,-48650.534999999996,-8453.744999999999,-16321.23,8459.91,-62346.509999999995,5.1718121445463305,1.2712129993011265,-1.0641106245016367,-1.9315967682413946,-2.765869896879591,-3.253057995268847,-0.5753812935567381,5.263508961616848,0.25378353,-0.89587173,0.37853907000000003,-8.30144,19.09026,-0.35097999999999996,67.0
1774823695.3502684,3.4809112548828125e-05,2026-03-29T22:34:55.350,2026-03-29T18:34:55.350,-21089.745,-45268.92,-77013.045,-48648.284999999996,-8453.025,-16321.545,8462.115,-62338.005,5.722174915134439,-0.11019595448386546,-3.443968341286741,-4.214582430882745,-4.85368392217945,-4.708531048885918,-1.0564984239425996,6.966525191864613,0.25378353,-0.89587173,0.37853907000000003,-8.30144,19.09026,-0.35097999999999996,67.0
1774823695.3525088,0.002240419387817383,2026-03-29T22:34:55.352,2026-03-29T18:34:55.352,-21096.045,-45279.945,-77023.75499999999,-48652.604999999996,-8454.645,-16324.425,8460.585,-62348.759999999995,3.7790078386392993,-1.3657544600392952,-4.228185236993993,-4.503538397694701,-4.697176439084386,-4.021397741927552,-0.9050029845581108,5.609778523015305,0.25378353,-0.89587173,0.37853907000000003,-8.30144,19.09026,-0.35097999999999996,67.0
1774823695.3525298,2.09808349609375e-05,2026-03-29T22:34:55.352,2026-03-29T18:34:55.352,-21115.305,-45298.665,-77044.815,-48671.955,-8469.63,-16336.755,8457.435,-62358.659999999996,0.31773182256892696,-1.9424680335481137,-3.09140030171824,-2.6472062712300533,-2.359363643581114,-1.5231655281940162,-0.2601386622330373,1.9151600858361972,0.25378353,-0.89587173,0.37853907000000003,-8.30144,19.09026,-0.35097999999999996,67.0
1774823695.3585804,0.006050586700439453,2026-03-29T22:34:55.358,2026-03-29T18:34:55.358,-21128.76,-45296.729999999996,-77042.34,-48670.064999999995,-8467.47,-16334.595,8456.67,-62363.34,-3.0792207770210207,-1.6200627742508247,-0.5825354630449081,0.48499552260708223,1.08187938932401,1.6359311096716005,0.4712935790259376,-2.4199190941958353,0.25378353,-0.89587173,0.37853907000000003,-8.30144,19.09026,-0.35097999999999996,67.0
1774823695.3587444,0.000164031982421875,2026-03-29T22:34:55.358,2026-03-29T18:34:55.358,-21128.489999999998,-45293.04,-77036.985,-48658.455,-8455.815,-16326.494999999999,8457.885,-62372.97,-4.952693957517095,-0.5941182462539691,2.139278862807813,3.411499633997882,4.034904591385163,4.021866953544345,0.8629583104185985,-5.510309847012744,0.25378353,-0.89587173,0.37853907000000003,-8.30144,19.09026,-0.35097999999999996,67.0
1774823695.3641684,0.005424022674560547,2026-03-29T22:34:55.364,2026-03-29T18:34:55.364,-21126.059999999998,-45297.54,-77045.12999999999,-48657.104999999996,-8453.475,-16326.855,8458.65,-62371.89,-4.597536726313186,0.6332157090936102,3.8406614699266473,4.740005606560617,5.1337126451405934,4.572002105069128,0.7144018459036356,-6.1083364224980246,0.25378353,-0.89587173,0.37853907000000003,-8.30144,19.09026,-0.35097999999999996,67.0
1774823695.3641984,3.0040740966796875e-05,2026-03-29T22:34:55.364,2026-03-29T18:34:55.364,-21122.28,-45297.72,-77044.68,-48658.005,-8455.545,-16328.43,8456.58,-62365.86,-2.319331718179397,1.4965710233480622,3.7734704169389093,3.8290128754488206,3.8704848241160676,3.069101712332952,0.15444016296360843,-4.1026156211082405,0.25378353,-0.89587173,0.37853907000000003,-8.30144,19.09026,-0.35097999999999996,67.0
1774823695.3642187,2.0265579223632812e-05,2026-03-29T22:34:55.364,2026-03-29T18:34:55.364,-21122.325,-45294.705,-77037.705,-48662.865,-8459.595,-16330.365,8450.955,-62364.195,0.7710786246268665,1.6275397583581808,2.0035690070129224,1.0950999372152666,0.8278386004376471,0.22240715551423626,-0.4510840049330303,-0.49421647063958773,0.25378353,-0.89587173,0.37853907000000003,-8.30144,19.09026,-0.35097999999999996,67.0
1774823695.3642256,6.9141387939453125e-06,2026-03-29T22:34:55.364,2026-03-29T18:34:55.364,-21119.895,-45297.585,-77046.165,-48678.03,-8471.025,-16340.22,8446.815,-62363.34,3.300199377588821,1.0118737484113003,-0.6354439700045491,-2.180402120916417,-2.594346265031183,-2.671641940130034,-0.7270908011142364,3.1032937522864983,0.25378353,-0.89587173,0.37853907000000003,-8.30144,19.09026,-0.35097999999999996,67.0
1774823695.3705244,0.00629878044128418,2026-03-29T22:34:55.370,2026-03-29T18:34:55.370,-21117.105,-45297.63,-77048.73,-48680.055,-8473.365,-16343.55,8450.46,-62357.895,4.245643051054765,-0.023355452375305008,-2.934646951788193,-4.454214661309443,-4.827324244122397,-4.324611418483526,-0.5158166609782868,5.189368983864069,0.251159025,-0.895078275,0.380431155,-7.3705799999999995,19.258119999999998,0.6409199999999999,67.0
1774823695.370544,1.9550323486328125e-05,2026-03-29T22:34:55.370,2026-03-29T18:34:55.370,-21115.98,-45298.08,-77050.305,-48679.515,-8474.985,-16343.595,8465.85,-62350.74,3.3452096264542486,-0.9783282045014119,-3.863280894769813,-4.648410609689707,-4.8545779793452954,-4.0316014703173,0.031448538706892355,4.999292233921263,0.251159025,-0.895078275,0.380431155,-7.3705799999999995,19.258119999999998,0.6409199999999999,67.0
1774823695.3705604,1.6450881958007812e-05,2026-03-29T22:34:55.370,2026-03-29T18:34:55.370,-21131.415,-45308.025,-77057.64,-48681.225,-8472.869999999999,-16341.119999999999,8466.84,-62370.585,1.140347397943984,-1.41941429169127,-3.0296713234188024,-2.6588856732425863,-2.6730165901020366,-1.9690671347536006,0.550696126296462,2.767892691688377,0.251159025,-0.895078275,0.380431155,-7.3705799999999995,19.258119999999998,0.6409199999999999,67.0
1774823695.3705673,6.9141387939453125e-06,2026-03-29T22:34:55.370,2026-03-29T18:34:55.370,-21130.02,-45303.255,-77047.92,-48670.83,-8465.13,-16334.955,8457.705,-62373.6,-1.3304473673180663,-1.174869481830581,-0.8438898665768715,0.5941106413645875,0.7143532716678295,0.9093775310765428,0.6919382681101096,-0.44611604776758507,0.251159025,-0.895078275,0.380431155,-7.3705799999999995,19.258119999999998,0.6409199999999999,67.0
1774823695.375651,0.005083560943603516,2026-03-29T22:34:55.375,2026-03-29T18:34:55.375,-21120.39,-45297.494999999995,-77040.94499999999,-48663.405,-8461.664999999999,-16332.615,8458.875,-62361.945,-3.020298471218009,-0.39937886165301645,1.6839264482961502,3.59599561736731,3.764817458613455,3.318705646436523,0.34103358620311297,-3.2621363750178296,0.251159025,-0.895078275,0.380431155,-7.3705799999999995,19.258119999999998,0.6409199999999999,67.0
1774823695.3756764,2.5510787963867188e-05,2026-03-29T22:34:55.375,2026-03-29T18:34:55.375,-21116.024999999998,-45295.155,-77044.815,-48665.744999999995,-8461.08,-16331.849999999999,8463.779999999999,-62358.93,-3.314630864957269,0.5153777699467803,3.4100581854694325,4.945252257564994,5.10198164673089,4.2190955900670986,-0.2979846074051987,-4.567580838833621,0.251159025,-0.895078275,0.380431155,-7.3705799999999995,19.258119999999998,0.6409199999999999,67.0
1774823695.3793876,0.003711223602294922,2026-03-29T22:34:55.379,2026-03-29T18:34:55.379,-21120.84,-45298.845,-77048.325,-48673.08,-8467.11,-16337.564999999999,8460.09,-62364.689999999995,-2.2402782308780322,1.13468367273878,3.5727472541734615,4.006358870482271,4.1365151704412035,3.2632037838391867,-0.8148572266194934,-3.94552978845012,0.251159025,-0.895078275,0.380431155,-7.3705799999999995,19.258119999999998,0.6409199999999999,67.0
1774823695.3794143,2.6702880859375e-05,2026-03-29T22:34:55.379,2026-03-29T18:34:55.379,-21118.32,-45295.38,-77047.47,-48673.215,-8466.795,-16336.484999999999,8459.865,-62363.43,-0.38118673658881475,1.184245200918164,2.1249895182973515,1.2042671305602908,1.3216630094257793,0.9225032589894084,-0.8398888593356549,-1.7832729079329561,0.251159025,-0.895078275,0.380431155,-7.3705799999999995,19.258119999999998,0.6409199999999999,67.0
1774823695.3858912,0.006476879119873047,2026-03-29T22:34:55.385,2026-03-29T18:34:55.385,-21116.79,-45294.165,-77046.66,-48669.255,-8463.869999999999,-16333.74,8458.605,-62362.979999999996,1.427465996875935,0.6689292254646576,-0.2591935153238192,-2.174055124535923,-2.0651360045184797,-1.7486379049957539,-0.2828910728268497,0.9491141804456812,0.251159025,-0.895078275,0.380431155,-7.3705799999999995,19.258119999999998,0.6409199999999999,67.0
1774823695.38591,1.8835067749023438e-05,2026-03-29T22:34:55.385,2026-03-29T18:34:55.385,-21115.665,-45296.145,-77048.325,-48670.155,-8465.985,-16333.515,8463.42,-62359.424999999996,2.470037632726985,-0.14329008811731495,-2.4994125761024906,-4.575411403677246,-4.506793408267417,-3.5916497469295012,0.581285714474711,3.1289673873018526,0.251159025,-0.895078275,0.380431155,-7.3705799999999995,19.258119999999998,0.6409199999999999,67.0
1774823695.385928,1.7881393432617188e-05,2026-03-29T22:34:55.385,2026-03-29T18:34:55.385,-21117.105,-45297.765,-77049.62999999999,-48672.36,-8469.539999999999,-16337.34,8460.9,-62361.045,2.423735191336924,-0.857640201341269,-3.5967810799368096,-4.895191776527605,-4.927381811941063,-3.8460329726060487,1.2437608390729737,3.931591956854662,0.250426605,-0.8876320050000001,0.38439843,-12.37586,20.61626,0.9003399999999999,67.0
1774823695.3859348,6.9141387939453125e-06,2026-03-29T22:34:55.385,2026-03-29T18:34:55.385,-21117.239999999998,-45294.255,-77041.17,-48663.99,-8464.994999999999,-16333.064999999999,8458.56,-62360.145,1.4363965686921922,-1.1404516227233763,-3.075066424819505,-2.9815140579647617,-3.1629683891763727,-2.4575951654698267,1.24827366305035,3.126907994822416,0.250426605,-0.8876320050000001,0.38439843,-12.37586,20.61626,0.9003399999999999,67.0
1774823695.3917477,0.005812883377075195,2026-03-29T22:34:55.391,2026-03-29T18:34:55.391,-21113.415,-45289.89,-77033.87999999999,-48655.439999999995,-8456.49,-16325.955,8468.73,-62356.409999999996,0.006010806836367827,-0.8704025142217333,-1.1821334734493443,0.29981734014466144,-0.018040170011272706,-0.0708200666022631,0.47633608305846964,1.1254116363872415,0.250426605,-0.8876320050000001,0.38439843,-12.37586,20.61626,0.9003399999999999,67.0
1774823695.391767,1.9311904907226562e-05,2026-03-29T22:34:55.391,2026-03-29T18:34:55.391,-21115.98,-45291.825,-77035.31999999999,-48654.225,-8453.025,-16326.18,8466.119999999999,-62364.104999999996,-1.2601534572439301,-0.18642113725546824,1.230761918840579,3.4639161932448372,3.107146880523035,2.274279267275379,-0.7378379078896389,-1.2209226290774091,0.250426605,-0.8876320050000001,0.38439843,-12.37586,20.61626,0.9003399999999999,67.0
1774823695.395298,0.0035309791564941406,2026-03-29T22:34:55.395,2026-03-29T18:34:55.395,-21111.975,-45288.18,-77032.34999999999,-48652.784999999996,-8453.744999999999,-16326.539999999999,8460.27,-62362.17,-1.894145098131652,0.5842774305822372,3.091518822270126,5.082066416700939,4.842879349391287,3.596353850530145,-1.7465045082001915,-2.969837919880416,0.250426605,-0.8876320050000001,0.38439843,-12.37586,20.61626,0.9003399999999999,67.0
1774823695.3953135,1.5497207641601562e-05,2026-03-29T22:34:55.395,2026-03-29T18:34:55.395,-21114.899999999998,-45291.465,-77036.67,-48658.95,-8457.525,-16328.699999999999,8455.41,-62364.645,-1.7273340990415313,1.0802368972362124,3.5793947554366667,4.42471296844761,4.448352340181264,3.379089036778653,-1.9263164027583806,-3.4538269156949726,0.250426605,-0.8876320050000001,0.38439843,-12.37586,20.61626,0.9003399999999999,67.0
1774823695.3991525,0.0038390159606933594,2026-03-29T22:34:55.399,2026-03-29T18:34:55.399,-21116.655,-45293.22,-77042.655,-48668.13,-8464.455,-16332.345,8459.865,-62365.454999999994,-0.9158015628080899,1.0699643765452005,2.4806236600906777,1.7836127237581518,2.121663051782509,1.7638149604502937,-1.0411203805422908,-2.5259967313579055,0.250426605,-0.8876320050000001,0.38439843,-12.37586,20.61626,0.9003399999999999,67.0
1774823695.399172,1.9550323486328125e-05,2026-03-29T22:34:55.399,2026-03-29T18:34:55.399,-21120.704999999998,-45298.215,-77048.28,-48671.549999999996,-8468.324999999999,-16337.564999999999,8454.869999999999,-62370.314999999995,0.15760275424769174,0.5537656726587438,0.2764827593257191,-1.6658812431562928,-1.1049642681648864,-0.5381794564891926,0.5740477974952852,-0.6020580974283438,0.250426605,-0.8876320050000001,0.38439843,-12.37586,20.61626,0.9003399999999999,67.0
1774823695.403869,0.004696846008300781,2026-03-29T22:34:55.403,2026-03-29T18:34:55.403,-21118.86,-45299.79,-77048.685,-48670.064999999995,-8466.48,-16336.305,8455.77,-62367.39,1.051676407872401,-0.2387397592287981,-2.069391012335789,-4.393512883414277,-3.827401602242591,-2.561064051495642,2.129539132263904,1.5126924070576795,0.250426605,-0.8876320050000001,0.38439843,-12.37586,20.61626,0.9003399999999999,67.0
1774823695.403898,2.9087066650390625e-05,2026-03-29T22:34:55.403,2026-03-29T18:34:55.403,-21118.005,-45300.689999999995,-77053.545,-48673.89,-8471.61,-16341.66,8451.18,-62365.905,1.437484882475805,-0.9510043928422213,-3.5292388680707933,-5.193110281104459,-4.880192993533602,-3.4866557952532786,2.763737883379653,2.946219275428507,0.250426605,-0.8876320050000001,0.38439843,-12.37586,20.61626,0.9003399999999999,67.0
1774823695.407928,0.004029989242553711,2026-03-29T22:34:55.407,2026-03-29T18:34:55.407,-21118.184999999998,-45301.409999999996,-77053.68,-48671.865,-8470.08,-16342.154999999999,8446.32,-62365.545,1.2119539395333871,-1.2557131575137925,-3.454719875766661,-3.71041328091439,-3.8302432070977597,-2.9675525390424005,2.0072856706150484,3.111435235836024,0.249694185,-0.893247225,0.382140135,-15.06162,19.82274,3.25038,67.0
1774823695.4079468,1.8835067749023438e-05,2026-03-29T22:34:55.407,2026-03-29T18:34:55.407,-21117.555,-45300.465,-77053.14,-48671.82,-8469.404999999999,-16342.019999999999,8451.36,-62363.564999999995,0.5202598930967405,-0.9980690878566334,-1.857599769632366,-0.5914981010579006,-1.1473061665029924,-1.247984140087439,0.08317874823813809,1.9499759491457327,0.249694185,-0.893247225,0.382140135,-15.06162,19.82274,3.25038,67.0
1774823695.413024,0.0050771236419677734,2026-03-29T22:34:55.413,2026-03-29T18:34:55.413,-21115.305,-45290.295,-77039.055,-48657.015,-8454.6,-16328.07,8463.869999999999,-62366.715,-0.3154165565965625,-0.2667238888990309,0.5903001282543566,2.805942400168571,2.0114392727996044,0.9537959596327469,-2.1356411598864713,-0.0345368449409661,0.249694185,-0.893247225,0.382140135,-15.06162,19.82274,3.25038,67.0
1774823695.413053,2.9087066650390625e-05,2026-03-29T22:34:55.413,2026-03-29T18:34:55.413,-21122.055,-45295.965,-77041.575,-48663.494999999995,-8462.565,-16335.494999999999,8467.199999999999,-62371.799999999996,-0.9325176848815112,0.6369213041216326,2.837947765547766,5.005822002221543,4.301446842581086,2.743772066579889,-3.520695783900583,-1.9784855651807067,0.249694185,-0.893247225,0.382140135,-15.06162,19.82274,3.25038,67.0
1774823695.4155629,0.0025098323822021484,2026-03-29T22:34:55.415,2026-03-29T18:34:55.415,-21119.895,-45300.375,-77050.34999999999,-48673.125,-8473.23,-16345.935,8455.23,-62369.865,-1.079046913729871,1.3197216524626354,3.9000727563262347,5.051069609172122,4.758985266504937,3.4081940191254025,-3.2566297699788946,-3.0236821072764997,0.249694185,-0.893247225,0.382140135,-15.06162,19.82274,3.25038,67.0
1774823695.415574,1.1205673217773438e-05,2026-03-29T22:34:55.415,2026-03-29T18:34:55.415,-21110.219999999998,-45294.119999999995,-77045.4,-48669.165,-8469.315,-16341.66,8450.955,-62358.884999999995,-0.719816142213128,1.4610485034407963,3.2810505141840225,2.9120349193461794,3.1996317284929114,2.689494498967683,-1.2991723564131061,-2.697523446468971,0.249694185,-0.893247225,0.382140135,-15.06162,19.82274,3.25038,67.0
1774823695.4193032,0.003729104995727539,2026-03-29T22:34:55.419,2026-03-29T18:34:55.419,-21110.355,-45291.645,-77046.525,-48672.63,-8467.785,-16336.08,8470.035,-62359.244999999995,-0.05169214470359017,0.9550698729563567,1.1993747227390434,-0.5041875966543103,0.2862156815536702,0.8803910583265925,1.5273916947988568,-1.1392737159228281,0.249694185,-0.893247225,0.382140135,-15.06162,19.82274,3.25038,67.0
1774823695.4193232,2.002716064453125e-05,2026-03-29T22:34:55.419,2026-03-29T18:34:55.419,-21112.245,-45292.455,-77047.73999999999,-48671.145,-8468.55,-16339.095,8473.5,-62358.884999999995,0.5849565905919887,-0.028306460564136566,-1.4858393248539548,-3.741967990561024,-2.75497765952429,-1.2947953085670243,3.8742569645006477,0.9413593392364547,0.249694185,-0.893247225,0.382140135,-15.06162,19.82274,3.25038,67.0
1774823695.4234123,0.0040891170501708984,2026-03-29T22:34:55.423,2026-03-29T18:34:55.423,-21114.18,-45292.095,-77045.535,-48668.31,-8467.425,-16339.59,8464.949999999999,-62365.68,0.8664840952630385,-1.09452286756085,-3.623393522883461,-5.414926428900091,-4.647245503010567,-2.9638043917255876,4.511511276357363,2.5729742502730732,0.249694185,-0.893247225,0.382140135,-15.06162,19.82274,3.25038,67.0
1774823695.4234304,1.811981201171875e-05,2026-03-29T22:34:55.423,2026-03-29T18:34:55.423,-21113.774999999998,-45289.439999999995,-77040.495,-48663.27,-8461.755,-16333.605,8461.845,-62367.119999999995,0.6479488274492428,-1.7755922135470843,-4.255428317381409,-4.79252713234935,-4.592912163743411,-3.4475768435802245,2.9636904944050118,2.971571748001874,0.249694185,-0.893247225,0.382140135,-15.06162,19.82274,3.25038,67.0
1774823695.4293325,0.00590205192565918,2026-03-29T22:34:55.429,2026-03-29T18:34:55.429,-21106.53,-45290.25,-77042.295,-48665.744999999995,-8463.465,-16333.965,8461.035,-62357.445,0.04689400666940181,-1.7274994972269655,-3.03931654157715,-2.1111515260357243,-2.603266591192103,-2.5303266901848964,-0.18783288149009603,1.9245156289604999,0.24627622500000002,-0.908261835,0.377867685,-7.81312,16.64866,4.3338399999999995,67.0
1774823695.4293652,3.266334533691406e-05,2026-03-29T22:34:55.429,2026-03-29T18:34:55.429,-21114.315,-45293.13,-77041.44,-48662.685,-8460.72,-16332.48,8452.305,-62366.805,-0.6021197037710544,-0.8946313275197055,-0.42377216458430916,1.518638411371056,0.5040123742880388,-0.5545770665315798,-3.513564262892069,-0.0817046934928419,0.24627622500000002,-0.908261835,0.377867685,-7.81312,16.64866,4.3338399999999995,67.0
1774823695.4325707,0.003205537796020508,2026-03-29T22:34:55.432,2026-03-29T18:34:55.432,-21110.805,-45288.63,-77035.455,-48656.97,-8458.38,-16334.595,8440.65,-62365.545,-0.9129157577239027,0.43368827711257474,2.508038901098518,4.570303448816414,3.4383767955038156,1.7001669635333663,-5.3862170275992165,-2.0702448388893817,0.24627622500000002,-0.908261835,0.377867685,-7.81312,16.64866,4.3338399999999995,67.0
1774823695.4326153,4.458427429199219e-05,2026-03-29T22:34:55.432,2026-03-29T18:34:55.432,-21106.844999999998,-45284.4,-77029.785,-48653.82,-8457.074999999999,-16336.305,8434.305,-62360.865,-0.6586416809259307,1.7127631233750156,4.478608790769834,5.737036012321267,4.966329257763865,3.3160542225448815,-4.775703951016293,-3.0381578892658365,0.24627622500000002,-0.908261835,0.377867685,-7.81312,16.64866,4.3338399999999995,67.0
1774823695.4351356,0.002520322799682617,2026-03-29T22:34:55.435,2026-03-29T18:34:55.435,-21120.21,-45283.5,-77025.465,-48646.845,-8447.49,-16324.289999999999,8455.59,-62379.225,0.08110103094557461,2.357391766426193,4.565314812192816,4.4838532010916605,4.423616740994746,3.603501944343634,-1.8005913218055714,-2.460177053230948,0.24627622500000002,-0.908261835,0.377867685,-7.81312,16.64866,4.3338399999999995,67.0
1774823695.4351552,1.9550323486328125e-05,2026-03-29T22:34:55.435,2026-03-29T18:34:55.435,-21115.665,-45290.07,-77035.31999999999,-48656.43,-8454.914999999999,-16326.09,8469.945,-62375.805,0.9266055029748028,2.002141766685199,2.6265072379716816,1.286970706203759,2.0005314479765994,2.3932253001979134,2.253790571195521,-0.5795342239918391,0.24627622500000002,-0.908261835,0.377867685,-7.81312,16.64866,4.3338399999999995,67.0
1774823695.4460402,0.010885000228881836,2026-03-29T22:34:55.446,2026-03-29T18:34:55.446,-21124.125,-45301.59,-77040.81,-48658.634999999995,-8456.039999999999,-16328.115,8479.485,-62372.564999999995,1.3752451676010298,0.6948110507262846,-0.5898268312492473,-2.5438853152940557,-1.3204474783484834,0.13114792892430194,5.491688726275301,1.6767771045224988,0.24627622500000002,-0.908261835,0.377867685,-7.81312,16.64866,4.3338399999999995,67.0
1774823695.4460604,2.0265579223632812e-05,2026-03-29T22:34:55.446,2026-03-29T18:34:55.446,-21131.28,-45301.409999999996,-77050.395,-48668.715,-8468.1,-16342.695,8464.05,-62380.89,1.0740550163182856,-1.07491390895758,-3.7236729680894927,-5.3957085227911525,-4.156844885391619,-2.2754721204018713,6.296356284209339,3.1397830125803763,0.24627622500000002,-0.908261835,0.377867685,-7.81312,16.64866,4.3338399999999995,67.0
1774823695.4460785,1.811981201171875e-05,2026-03-29T22:34:55.446,2026-03-29T18:34:55.446,-21111.39,-45289.845,-77043.59999999999,-48664.89,-8468.279999999999,-16344.675,8444.025,-62366.49,0.047919901330670825,-2.547314940315032,-5.370317978088981,-6.024046060082139,-5.295218981359639,-3.8138857915221096,4.133782588697293,2.992918925442644,0.24627622500000002,-0.908261835,0.377867685,-7.81312,16.64866,4.3338399999999995,67.0
1774823695.446086,7.3909759521484375e-06,2026-03-29T22:34:55.446,2026-03-29T18:34:55.446,-21095.505,-45291.33,-77055.56999999999,-48677.534999999996,-8476.965,-16348.68,8458.56,-62342.505,-1.25186937196788,-3.0118444900132606,-4.7050532930371265,-4.090821272561961,-4.206481786080935,-3.7885751493989073,-0.12754766577184273,1.220558544498609,0.24627622500000002,-0.908261835,0.377867685,-7.81312,16.64866,4.3338399999999995,67.0
1774823695.4460945,8.58306884765625e-06,2026-03-29T22:34:55.446,2026-03-29T18:34:55.446,-21099.87,-45310.185,-77080.68,-48699.225,-8497.125,-16367.265,8450.235,-62340.524999999994,-2.1329207476408167,-2.143364946044589,-1.889822385320394,-0.33850178779443824,-1.2907406053295232,-2.1362304588476113,-4.561738749680653,-1.3331984463452395,0.24377379,-0.917295015,0.37383937500000003,-0.07629999999999999,14.00868,6.104,67.0
1774823695.4461012,6.67572021484375e-06,2026-03-29T22:34:55.446,2026-03-29T18:34:55.446,-21124.98,-45313.29,-77069.34,-48683.7,-8481.824999999999,-16354.98,8435.52,-62370.945,-2.0121264172013427,-0.19898910366383152,1.936477380275596,3.686524776227884,2.261278662613791,0.5099950337875898,-7.060205404201663,-3.353015136558591,0.24377379,-0.917295015,0.37383937500000003,-0.07629999999999999,14.00868,6.104,67.0
1774823695.45163,0.005528926849365234,2026-03-29T22:34:55.451,2026-03-29T18:34:55.451,-21148.38,-45301.59,-77039.86499999999,-48649.905,-8448.3,-16324.695,8443.935,-62407.079999999994,-0.7602898190440233,2.035420942798085,5.109276829719148,6.263313945956652,4.947352674413605,3.0531794293853705,-6.336770644622173,-3.715284025165024,0.24377379,-0.917295015,0.37383937500000003,-0.07629999999999999,14.00868,6.104,67.0
1774823695.4516451,1.5020370483398438e-05,2026-03-29T22:34:55.451,2026-03-29T18:34:55.451,-21135.015,-45304.2,-77055.165,-48665.07,-8459.055,-16333.875,8450.91,-62389.17,1.1511185980957594,3.554560403618285,6.157909718882238,6.226965899030708,5.5847288313603265,4.382490581957907,-2.582987842118704,-2.096352166592196,0.24377379,-0.917295015,0.37383937500000003,-0.07629999999999999,14.00868,6.104,67.0
1774823695.4566183,0.004973173141479492,2026-03-29T22:34:55.456,2026-03-29T18:34:55.456,-21120.48,-45301.545,-77053.59,-48662.729999999996,-8457.525,-16332.974999999999,8475.705,-62367.39,2.8109661023116495,3.582017217718666,4.484924914371457,3.49331131732635,3.830392868444956,3.8583287389478245,2.5575253755542096,0.7978493507015736,0.24377379,-0.917295015,0.37383937500000003,-0.07629999999999999,14.00868,6.104,67.0
1774823695.45664,2.1696090698242188e-05,2026-03-29T22:34:55.456,2026-03-29T18:34:55.456,-21118.68,-45296.055,-77045.805,-48669.03,-8466.119999999999,-16337.295,8482.77,-62363.384999999995,3.2932699573710345,1.9596728852640517,0.6922277800185324,-0.8577177532402526,0.36210148003172815,1.6209079527663617,6.711719205766434,3.528521506629817,0.24377379,-0.917295015,0.37383937500000003,-0.07629999999999999,14.00868,6.104,67.0
1774823695.4594972,0.002857208251953125,2026-03-29T22:34:55.459,2026-03-29T18:34:55.459,-21120.795,-45299.43,-77054.625,-48679.83,-8476.695,-16347.285,8465.175,-62366.67,2.1519237605369326,-0.7146130882900432,-3.619407437515697,-4.9985219085507255,-3.374135865693274,-1.4270416625059386,7.877707078922976,4.628524900670912,0.24377379,-0.917295015,0.37383937500000003,-0.07629999999999999,14.00868,6.104,67.0
1774823695.4595056,8.344650268554688e-06,2026-03-29T22:34:55.459,2026-03-29T18:34:55.459,-21120.48,-45300.104999999996,-77055.84,-48682.08,-8481.375,-16353.314999999999,8448.93,-62367.479999999996,-0.2719853985813169,-3.2940599256327,-6.5207237819207435,-7.1154975847063024,-5.761517861851737,-3.9777704716145386,5.390749188584293,3.373580074955789,0.24377379,-0.917295015,0.37383937500000003,-0.07629999999999999,14.00868,6.104,67.0
1774823695.4637315,0.004225969314575195,2026-03-29T22:34:55.463,2026-03-29T18:34:55.463,-21121.965,-45287.505,-77033.34,-48657.33,-8458.065,-16332.57,8456.445,-62377.784999999996,-2.9194836295970568,-4.5713464970738915,-6.616635617604643,-6.202085998126121,-5.711115452594933,-4.878355741334772,0.28807430900637715,0.22017622383525337,0.24377379,-0.917295015,0.37383937500000003,-0.07629999999999999,14.00868,6.104,67.0
1774823695.4637532,2.1696090698242188e-05,2026-03-29T22:34:55.463,2026-03-29T18:34:55.463,-21121.02,-45280.89,-77020.605,-48637.979999999996,-8440.92,-16318.619999999999,8473.545,-62377.064999999995,-4.470662242655202,-3.8423863076618394,-3.7157626210795804,-2.5373204504257196,-3.16053679930649,-3.65395761091599,-5.1225502846759765,-3.3428330136396918,0.24377379,-0.917295015,0.37383937500000003,-0.07629999999999999,14.00868,6.104,67.0
1774823695.4725757,0.008822441101074219,2026-03-29T22:34:55.472,2026-03-29T18:34:55.472,-21133.71,-45295.2,-77034.42,-48643.515,-8445.015,-16322.265,8475.57,-62384.534999999996,-3.995492891741784,-1.282644277881693,1.0143373006337044,2.3777698391838196,0.856670702264944,-0.7560262237022787,-8.31177757682178,-5.492665187120293,0.24456724500000002,-0.91869882,0.377867685,-1.4802199999999999,11.1398,7.63,67.0
1774823695.472602,2.6226043701171875e-05,2026-03-29T22:34:55.472,2026-03-29T18:34:55.472,-21131.19,-45302.49,-77049.9,-48659.939999999995,-8457.795,-16331.67,8471.25,-62382.645,-1.4800676431197946,2.0613517990153003,5.509030610576669,6.426900330169851,4.622400186532438,2.5934093053345415,-7.716256726396295,-4.9953369180668865,0.24456724500000002,-0.91869882,0.377867685,-1.4802199999999999,11.1398,7.63,67.0
1774823695.4726284,2.6464462280273438e-05,2026-03-29T22:34:55.472,2026-03-29T18:34:55.472,-21119.715,-45293.58,-77043.51,-48662.28,-8456.445,-16326.765,8472.06,-62374.994999999995,2.0598457937549197,4.694868155168197,7.707707207819041,7.787953737815192,6.4667111819079075,4.914121576892655,-3.505218002548129,-1.8885657724547984,0.24456724500000002,-0.91869882,0.377867685,-1.4802199999999999,11.1398,7.63,67.0
1774823695.472638,9.5367431640625e-06,2026-03-29T22:34:55.472,2026-03-29T18:34:55.472,-21120.524999999998,-45293.939999999995,-77043.015,-48673.215,-8465.94,-16331.984999999999,8472.555,-62375.445,4.981062799661338,5.34447125273325,6.501181324298232,5.755635431218763,5.510811785443198,5.1235843072425205,2.449793659807106,2.4450236826773417,0.24456724500000002,-0.91869882,0.377867685,-1.4802199999999999,11.1398,7.63,67.0
1774823695.4756472,0.003009319305419922,2026-03-29T22:34:55.475,2026-03-29T18:34:55.475,-21120.48,-45295.11,-77046.12,-48677.715,-8473.86,-16339.994999999999,8469.675,-62371.485,5.776915420293245,3.573767057496156,2.2884096221030243,1.1048063679022855,2.088766843197577,3.0450627200211278,7.40996126214462,5.8922724053069535,0.24456724500000002,-0.91869882,0.377867685,-1.4802199999999999,11.1398,7.63,67.0
1774823695.4756749,2.765655517578125e-05,2026-03-29T22:34:55.475,2026-03-29T18:34:55.475,-21122.594999999998,-45299.744999999995,-77050.665,-48679.695,-8476.965,-16343.82,8463.285,-62370.09,3.847211218924873,0.047257480808834414,-3.1362421872964026,-4.19198155874138,-2.355744664105131,-0.47195426575976474,9.035235348675517,6.639380625594105,0.24456724500000002,-0.91869882,0.377867685,-1.4802199999999999,11.1398,7.63,67.0
1774823695.4894006,0.013725757598876953,2026-03-29T22:34:55.489,2026-03-29T18:34:55.489,-21121.829999999998,-45301.68,-77055.3,-48679.29,-8473.59,-16343.505,8456.355,-62372.204999999994,-0.11716692453369862,-3.7088176829922164,-7.346204343959762,-7.797663655216121,-5.874521976980203,-3.893551089989897,6.493596942273358,4.115112476323956,0.24456724500000002,-0.91869882,0.377867685,-1.4802199999999999,11.1398,7.63,67.0
1774823695.4894228,2.2172927856445312e-05,2026-03-29T22:34:55.489,2026-03-29T18:34:55.489,-21113.145,-45293.13,-77047.47,-48668.715,-8463.195,-16334.55,8464.185,-62362.935,-4.363704942050833,-5.968883430863457,-8.372761273597773,-8.0449482118565,-6.8706161865689195,-5.670980839832091,0.8856122386329335,-0.6398233140478512,0.24456724500000002,-0.91869882,0.377867685,-1.4802199999999999,11.1398,7.63,67.0
1774823695.4894404,1.7642974853515625e-05,2026-03-29T22:34:55.489,2026-03-29T18:34:55.489,-21113.774999999998,-45295.244999999995,-77048.73,-48670.92,-8466.885,-16339.14,8465.085,-62362.485,-6.857187872409113,-5.60558686104245,-5.630208274130187,-4.712822320422725,-4.828349284722655,-4.945720262617117,-5.231750440001486,-5.3985948480555095,0.24456724500000002,-0.91869882,0.377867685,-1.4802199999999999,11.1398,7.63,67.0
1774823695.4894452,4.76837158203125e-06,2026-03-29T22:34:55.489,2026-03-29T18:34:55.489,-21112.11,-45288.63,-77036.48999999999,-48662.82,-8467.02,-16343.64,8455.32,-62366.805,-6.260405244655733,-2.6515488208257114,-0.23900509944194775,0.8189021082827503,-0.581546043689804,-1.9672666617140688,-9.016513689721284,-7.797573962592039,0.24456724500000002,-0.91869882,0.377867685,-1.4802199999999999,11.1398,7.63,67.0
1774823695.4894505,5.245208740234375e-06,2026-03-29T22:34:55.489,2026-03-29T18:34:55.489,-21087.45,-45276.39,-77025.69,-48657.42,-8467.785,-16350.435,8443.529999999999,-62346.465,-2.641488580551029,1.654841375372064,5.427810382713925,6.134521372363829,4.019976190188857,1.9809750161533022,-8.669498987200898,-6.511888795257426,0.246032085,-0.91198497,0.380553225,-8.63716,9.3086,10.55992,67.0
1774823695.4894876,3.719329833984375e-05,2026-03-29T22:34:55.489,2026-03-29T18:34:55.489,-21072.375,-45276.57,-77027.175,-48660.479999999996,-8472.33,-16356.33,8433.045,-62328.689999999995,2.4632323905077973,5.3888961349688875,8.793997932965835,8.839501330633087,6.916392598945844,5.133509850732821,-4.295098200308992,-1.9712415158473662,0.246032085,-0.91198497,0.380553225,-8.63716,9.3086,10.55992,67.0
1774823695.491536,0.0020482540130615234,2026-03-29T22:34:55.491,2026-03-29T18:34:55.491,-21078.135,-45272.79,-77022.675,-48658.275,-8470.845,-16355.744999999999,8436.51,-62321.805,6.70411383584382,6.806676595800694,8.259177744794048,7.646556357755234,6.765469561902931,6.0359266789894495,2.1191287332383735,3.7657497161978273,0.246032085,-0.91198497,0.380553225,-8.63716,9.3086,10.55992,67.0
1774823695.491551,1.5020370483398438e-05,2026-03-29T22:34:55.491,2026-03-29T18:34:55.491,-21106.035,-45280.89,-77027.355,-48649.814999999995,-8456.22,-16338.599999999999,8442.18,-62355.329999999994,8.01105359746231,5.165878572376044,3.9642362457023728,2.9948208058099524,3.5716922666502837,4.221551224052938,7.608614839141662,7.954188514217049,0.246032085,-0.91198497,0.380553225,-8.63716,9.3086,10.55992,67.0
1774823695.500282,0.00873112678527832,2026-03-29T22:34:55.500,2026-03-29T18:34:55.500,-21111.12,-45296.729999999996,-77050.08,-48665.744999999995,-8466.84,-16347.689999999999,8458.605,-62363.204999999994,5.611033612630723,1.1110389720797342,-2.2253447287742723,-3.0986955087738854,-1.2811555705971454,0.4542516589481102,9.609470432524015,8.487088683095921,0.246032085,-0.91198497,0.380553225,-8.63716,9.3086,10.55992,67.0
1774823695.5003111,2.9087066650390625e-05,2026-03-29T22:34:55.500,2026-03-29T18:34:55.500,-21133.575,-45303.03,-77044.995,-48655.89,-8453.34,-16335.135,8487.494999999999,-62388.674999999996,0.4668298513238333,-3.5758733952421724,-7.533193702421645,-7.913560196516489,-5.62738789001995,-3.589464489284089,7.164322042864327,4.957423895923039,0.246032085,-0.91198497,0.380553225,-8.63716,9.3086,10.55992,67.0
1774823695.500336,2.47955322265625e-05,2026-03-29T22:34:55.500,2026-03-29T18:34:55.500,-21154.815,-45319.229999999996,-77056.73999999999,-48668.895,-8461.8,-16338.375,8490.15,-62400.24,-5.106108029521253,-6.765302052031925,-9.526508097350902,-9.24772814901993,-7.490392878962287,-6.068998976085376,1.3855384060458171,-1.0788246199995957,0.246032085,-0.91198497,0.380553225,-8.63716,9.3086,10.55992,67.0
1774823695.500346,1.0013580322265625e-05,2026-03-29T22:34:55.500,2026-03-29T18:34:55.500,-21155.715,-45324.72,-77067.62999999999,-48687.884999999995,-8477.279999999999,-16347.06,8449.65,-62397.765,-8.494491846407845,-6.957228834894795,-7.240265767096501,-6.434773991882553,-5.9900421293297414,-5.823736011541796,-5.0505636505814095,-6.796376997554981,0.246032085,-0.91198497,0.380553225,-8.63716,9.3086,10.55992,67.0
1774823695.5038772,0.003531217575073242,2026-03-29T22:34:55.503,2026-03-29T18:34:55.503,-21143.295,-45319.14,-77066.595,-48689.369999999995,-8482.365,-16356.51,8426.654999999999,-62390.25,-8.027753800560696,-3.9927719758737554,-1.647333121889418,-0.6819586794629198,-1.7661551392657027,-2.9227842686947962,-9.14889254654764,-9.438863705384753,0.246032085,-0.91198497,0.380553225,-8.63716,9.3086,10.55992,67.0
1774823695.5039043,2.7179718017578125e-05,2026-03-29T22:34:55.503,2026-03-29T18:34:55.503,-21129.93,-45306.99,-77050.34999999999,-48670.695,-8469.135,-16346.474999999999,8430.345,-62386.2,-3.808725881618555,0.8402582421752798,4.75605697041419,5.4445281773201195,3.2891274385611795,1.342920377393817,-8.998404904774258,-7.660909917456694,0.246032085,-0.91198497,0.380553225,-8.63716,9.3086,10.55992,67.0
1774823695.507752,0.0038475990295410156,2026-03-29T22:34:55.507,2026-03-29T18:34:55.507,-21097.62,-45275.895,-77019.705,-48641.939999999995,-8440.83,-16318.439999999999,8458.83,-62363.655,2.281851972524569,5.371703098260373,9.072840890832675,9.169777939094926,6.8811620616395945,5.035496698678686,-4.671533774660456,-2.2146680333639726,0.24511656,-0.9118629,0.38232324,-12.65054,4.6543,13.52036,67.0
1774823695.5077715,1.9550323486328125e-05,2026-03-29T22:34:55.507,2026-03-29T18:34:55.507,-21094.92,-45265.32,-77007.23999999999,-48631.905,-8428.23,-16303.005,8491.14,-62356.049999999996,7.433866553186666,7.533751018700133,9.3270508998157,8.777924939460876,7.362370419521788,6.456053099984423,1.8068561750606082,4.3707577646050675,0.24511656,-0.9118629,0.38232324,-12.65054,4.6543,13.52036,67.0
1774823695.51663,0.008858442306518555,2026-03-29T22:34:55.516,2026-03-29T18:34:55.516,-21101.445,-45278.595,-77025.105,-48645.405,-8439.029999999999,-16309.755,8478.765,-62359.244999999995,9.222288153309753,6.314429389254791,5.376731732221724,4.413242078901626,4.497916154910933,4.934241141861457,7.409582691804681,8.979913587071103,0.24511656,-0.9118629,0.38232324,-12.65054,4.6543,13.52036,67.0
1774823695.5166447,1.4781951904296875e-05,2026-03-29T22:34:55.516,2026-03-29T18:34:55.516,-21097.934999999998,-45297.405,-77059.26,-48670.064999999995,-8463.285,-16335.765,8468.145,-62343.81,6.764855433077497,2.2356380116769,-1.007878463093431,-1.9644094292703984,-0.4128833193478354,1.1509166132848618,9.529433282963831,9.40439572848417,0.24511656,-0.9118629,0.38232324,-12.65054,4.6543,13.52036,67.0
1774823695.5166569,1.2159347534179688e-05,2026-03-29T22:34:55.516,2026-03-29T18:34:55.516,-21096.09,-45308.52,-77073.165,-48674.97,-8469.81,-16348.68,8470.305,-62333.415,1.1631394121304395,-2.87209400076813,-6.943566495185363,-7.461931799183206,-5.124833122392313,-3.1642017543767524,7.201887677378988,5.414694361100094,0.24511656,-0.9118629,0.38232324,-12.65054,4.6543,13.52036,67.0
1774823695.5166612,4.291534423828125e-06,2026-03-29T22:34:55.516,2026-03-29T18:34:55.516,-21089.07,-45295.56,-77047.515,-48664.665,-8465.85,-16344.494999999999,8466.795,-62326.665,-4.99611228300842,-6.700014301391698,-9.747242119967968,-9.574939206971626,-7.479138281624866,-6.026895037417861,1.5505311129353099,-1.1159899665986213,0.24511656,-0.9118629,0.38232324,-12.65054,4.6543,13.52036,67.0
1774823695.5198004,0.0031392574310302734,2026-03-29T22:34:55.519,2026-03-29T18:34:55.519,-21105.855,-45283.32,-77023.125,-48663.494999999995,-8468.1,-16339.545,8454.51,-62353.305,-8.85170431778036,-7.5158672698558755,-8.159814364630105,-7.340851056785542,-6.40249977382947,-6.118535790672056,-4.75362319477524,-7.1031173573280055,0.24511656,-0.9118629,0.38232324,-12.65054,4.6543,13.52036,67.0
1774823695.5198245,2.4080276489257812e-05,2026-03-29T22:34:55.519,2026-03-29T18:34:55.519,-21139.335,-45283.68,-77012.055,-48640.455,-8441.865,-16315.47,8451.404999999999,-62400.555,-8.617064397496247,-4.955969007815374,-2.9175284674063953,-1.786552462080983,-2.4061026689003997,-3.4018443810861263,-8.75940422986305,-9.728461159251351,0.24511656,-0.9118629,0.38232324,-12.65054,4.6543,13.52036,67.0
1774823695.5265613,0.00673675537109375,2026-03-29T22:34:55.526,2026-03-29T18:34:55.526,-21137.67,-45294.615,-77025.465,-48637.259999999995,-8438.58,-16318.26,8451.135,-62398.259999999995,-4.422766950676125,-0.1887728445838216,3.5911662097885113,4.541750306355866,2.6518819495919943,0.8589798866463461,-8.625828239827815,-7.787299294059103,0.24511656,-0.9118629,0.38232324,-12.65054,4.6543,13.52036,67.0
1774823695.52658,1.8835067749023438e-05,2026-03-29T22:34:55.526,2026-03-29T18:34:55.526,-21136.545,-45309.33,-77045.805,-48649.455,-8451.765,-16330.949999999999,8466.435,-62386.155,1.751401533490476,4.624182301597886,8.422479832830122,8.752012042586605,6.432170153239509,4.686802071251662,-4.476443530294447,-2.2519859776351985,0.24511656,-0.9118629,0.38232324,-12.65054,4.6543,13.52036,67.0
1774823695.5297267,0.003146648406982422,2026-03-29T22:34:55.529,2026-03-29T18:34:55.529,-21124.53,-45298.53,-77039.19,-48647.744999999995,-8444.385,-16320.105,8485.425,-62371.53,7.021192191627664,7.318531898634846,9.420200066257504,8.939363417713993,7.204215778766101,6.314704871312142,1.682655973909687,4.216943302076455,0.24426207,-0.920957115,0.376158705,-13.2762,2.19744,12.31482,67.0
1774823695.529752,2.5272369384765625e-05,2026-03-29T22:34:55.529,2026-03-29T18:34:55.529,-21120.57,-45283.994999999995,-77024.43,-48652.29,-8446.5,-16317.269999999999,8474.4,-62374.14,8.964215886010672,6.710196321487767,6.1868636255811,5.058969037765956,4.648692231001371,5.010226041840219,6.933348637722463,8.565916425124769,0.24426207,-0.920957115,0.376158705,-13.2762,2.19744,12.31482,67.0
1774823695.5323498,0.002597808837890625,2026-03-29T22:34:55.532,2026-03-29T18:34:55.532,-21114.54,-45278.369999999995,-77018.22,-48651.705,-8449.83,-16322.67,8467.425,-62367.03,6.752252098165327,3.120373190020339,0.24182300274262508,-1.066285762817572,-0.0041134128052759825,1.4123908370029077,8.83456425956087,8.812440546718133,0.24426207,-0.920957115,0.376158705,-13.2762,2.19744,12.31482,67.0
1774823695.5323813,3.147125244140625e-05,2026-03-29T22:34:55.532,2026-03-29T18:34:55.532,-21116.114999999998,-45290.475,-77029.69499999999,-48658.905,-8458.875,-16329.465,8476.38,-62358.255,1.511832867319865,-1.7923063457014936,-5.696387326868733,-6.603371802072469,-4.563180168813821,-2.776925793011786,6.565629524966967,4.966235106749162,0.24426207,-0.920957115,0.376158705,-13.2762,2.19744,12.31482,67.0
1774823695.5362225,0.0038411617279052734,2026-03-29T22:34:55.536,2026-03-29T18:34:55.536,-21120.704999999998,-45304.965,-77050.44,-48677.895,-8476.11,-16347.015,8472.735,-62360.729999999996,-4.247618195874219,-5.805174516282536,-8.962650210958438,-9.027621861162599,-6.912212721697625,-5.599957268644836,1.284384190876786,-1.0287095987723678,0.24426207,-0.920957115,0.376158705,-13.2762,2.19744,12.31482,67.0
1774823695.5362384,1.5974044799804688e-05,2026-03-29T22:34:55.536,2026-03-29T18:34:55.536,-21129.66,-45307.665,-77053.995,-48676.68,-8471.654999999999,-16345.845,8467.38,-62369.369999999995,-7.84834751339191,-7.146530845310523,-8.151424109132384,-7.284608547500737,-6.000533433625653,-5.764834428566456,-4.45820608423551,-6.281164691795032,0.24426207,-0.920957115,0.376158705,-13.2762,2.19744,12.31482,67.0
1774823695.5402286,0.00399017333984375,2026-03-29T22:34:55.540,2026-03-29T18:34:55.540,-21125.25,-45301.365,-77050.845,-48672.765,-8468.055,-16344.0,8469.945,-62365.77,-7.707981893100743,-5.284486795142334,-3.7261791180301973,-2.2557706169201377,-2.3216737739707036,-3.2452347144941873,-7.953012924369479,-8.365901719243938,0.24426207,-0.920957115,0.376158705,-13.2762,2.19744,12.31482,67.0
1774823695.5402482,1.9550323486328125e-05,2026-03-29T22:34:55.540,2026-03-29T18:34:55.540,-21125.925,-45300.375,-77045.94,-48665.43,-8460.404999999999,-16336.619999999999,8470.8,-62368.38,-4.047618063250874,-1.1355765554331925,2.2340543164015383,3.681005842097736,2.342170534863716,0.7241310496446672,-7.617969216570462,-6.464236992186074,0.24426207,-0.920957115,0.376158705,-13.2762,2.19744,12.31482,67.0
1774823695.5434852,0.003237009048461914,2026-03-29T22:34:55.543,2026-03-29T18:34:55.543,-21125.43,-45296.369999999995,-77036.67,-48654.674999999996,-8451.135,-16329.869999999999,8463.195,-62371.395,1.2785202428280666,3.3871030921066754,7.016052633033522,7.778761123054869,5.781263420675797,4.249051840470921,-3.7204192227938115,-1.6860785368186466,0.24426207,-0.920957115,0.376158705,-13.2762,2.19744,12.31482,67.0
1774823695.543506,2.0742416381835938e-05,2026-03-29T22:34:55.543,2026-03-29T18:34:55.543,-21118.86,-45292.365,-77033.16,-48652.244999999995,-8452.035,-16332.885,8455.904999999999,-62367.795,5.722752749002413,6.262798899591325,8.516274880691906,8.20051591099556,6.40951272692313,5.682601051066931,1.7962399208690416,3.5537674752140287,0.24426207,-0.920957115,0.376158705,-13.2762,2.19744,12.31482,67.0
1774823695.55433,0.010824203491210938,2026-03-29T22:34:55.554,2026-03-29T18:34:55.554,-21113.684999999998,-45296.909999999996,-77044.59,-48665.34,-8465.355,-16345.035,8450.685,-62362.71,7.27614882533921,6.272879701039324,6.173162538598139,4.850668437807247,4.003698946656581,4.401854648946246,6.279333280416491,6.762949608339561,0.250548675,-0.923154375,0.37390041,-8.667679999999999,1.58704,15.168439999999999,67.0
1774823695.554352,2.193450927734375e-05,2026-03-29T22:34:55.554,2026-03-29T18:34:55.554,-21102.75,-45298.845,-77047.515,-48666.284999999996,-8465.22,-16343.055,8454.33,-62352.63,5.391145593202194,3.518893600396566,1.1717476116761525,-0.6210193709193602,-0.21707093263866128,1.0852092070758212,7.646874455976335,6.575746581195699,0.250548675,-0.923154375,0.37390041,-8.667679999999999,1.58704,15.168439999999999,67.0
1774823695.5543716,1.9550323486328125e-05,2026-03-29T22:34:55.554,2026-03-29T18:34:55.554,-21118.14,-45310.049999999996,-77045.805,-48659.67,-8454.105,-16331.22,8464.59,-62357.085,1.1641576931526163,-0.6716867511872738,-4.150647377412604,-5.628024251639396,-4.200255110139456,-2.6361746704289692,5.360892740832849,3.3439424330495897,0.250548675,-0.923154375,0.37390041,-8.667679999999999,1.58704,15.168439999999999,67.0
1774823695.5543787,7.152557373046875e-06,2026-03-29T22:34:55.554,2026-03-29T18:34:55.554,-21146.94,-45314.415,-77042.205,-48653.415,-8447.039999999999,-16325.055,8463.555,-62376.03,-3.2766338982639858,-4.386723751815228,-7.401184513440013,-7.872833884802225,-6.05594415389213,-4.977428514312751,0.6359282872563032,-1.1460918552385062,0.250548675,-0.923154375,0.37390041,-8.667679999999999,1.58704,15.168439999999999,67.0
1774823695.5568051,0.0024263858795166016,2026-03-29T22:34:55.556,2026-03-29T18:34:55.556,-21135.555,-45298.755,-77042.52,-48656.924999999996,-8453.34,-16333.154999999999,8454.105,-62378.369999999995,-5.844785542988854,-6.006959258127176,-7.214076003515028,-6.407198261741702,-4.957237337411034,-4.859256893232979,-4.196629366357489,-4.643668742068294,0.250548675,-0.923154375,0.37390041,-8.667679999999999,1.58704,15.168439999999999,67.0
1774823695.556818,1.2874603271484375e-05,2026-03-29T22:34:55.556,2026-03-29T18:34:55.556,-21121.425,-45294.479999999996,-77045.355,-48658.455,-8458.154999999999,-16339.769999999999,8444.654999999999,-62374.994999999995,-5.487409901196767,-4.914842898150395,-3.8263536534679123,-2.0349010225891657,-1.5144182852669386,-2.412489347193077,-6.839325632743457,-5.570417543494558,0.250548675,-0.923154375,0.37390041,-8.667679999999999,1.58704,15.168439999999999,67.0
1774823695.5600927,0.003274679183959961,2026-03-29T22:34:55.560,2026-03-29T18:34:55.560,-21112.155,-45293.67,-77032.935,-48645.18,-8448.345,-16333.695,8440.74,-62362.89,-2.6184220117341854,-1.7233062174211908,1.0963479529007534,3.1146931969873344,2.5486970902171353,1.1108320242961927,-6.126054201646703,-3.745358735197542,0.250548675,-0.923154375,0.37390041,-8.667679999999999,1.58704,15.168439999999999,67.0
1774823695.5601008,8.106231689453125e-06,2026-03-29T22:34:55.560,2026-03-29T18:34:55.560,-21104.505,-45300.869999999995,-77033.16,-48649.455,-8454.06,-16336.755,8441.955,-62344.17,1.185730494135811,2.056126593602134,5.27506875590561,6.620488981552099,5.249365538355553,3.968246109341887,-2.5392945950272825,-0.35923322340883423,0.250548675,-0.923154375,0.37390041,-8.667679999999999,1.58704,15.168439999999999,67.0
1774823695.5634608,0.0033600330352783203,2026-03-29T22:34:55.563,2026-03-29T18:34:55.563,-21116.024999999998,-45310.59,-77035.31999999999,-48644.955,-8445.824999999999,-16326.045,8465.985,-62337.96,4.034615626028354,4.729993256751075,6.875955833874715,6.909576032206969,5.310650714465626,4.78531339621671,2.083762478950551,2.740764449520582,0.250548675,-0.923154375,0.37390041,-8.667679999999999,1.58704,15.168439999999999,67.0
1774823695.5635068,4.601478576660156e-05,2026-03-29T22:34:55.563,2026-03-29T18:34:55.563,-21114.63,-45292.634999999995,-77044.23,-48669.21,-8467.244999999999,-16340.4,8477.82,-62341.604999999996,4.6655921388339525,5.1839305793692105,5.3188650796989005,3.9655552081753624,2.76783678590613,3.2200780226540298,5.4873306814899285,4.045239644255618,0.250548675,-0.923154375,0.37390041,-8.667679999999999,1.58704,15.168439999999999,67.0
1774823695.567578,0.004071235656738281,2026-03-29T22:34:55.567,2026-03-29T18:34:55.567,-21114.225,-45274.994999999995,-77039.685,-48673.35,-8470.98,-16342.289999999999,8469.855,-62372.295,3.007893272211398,3.3452729607206098,1.478281858151766,-0.7145650915978035,-1.0723775249458918,0.11112118401654611,6.100236861557817,3.12507574678047,0.25830012,-0.91784433,0.381773925,-10.1479,4.54748,16.34346,67.0
1774823695.567612,3.3855438232421875e-05,2026-03-29T22:34:55.567,2026-03-29T18:34:55.567,-21116.52,-45290.564999999995,-77050.845,-48679.2,-8472.465,-16341.48,8455.005,-62366.625,0.11479051635078241,0.15665773844344455,-2.787384982002038,-4.8722662950421585,-4.291325662390282,-2.957153913392987,3.765289402888999,0.7531685773205821,0.25830012,-0.91784433,0.381773925,-10.1479,4.54748,16.34346,67.0
1774823695.5719213,0.004309415817260742,2026-03-29T22:34:55.571,2026-03-29T18:34:55.571,-21114.945,-45304.83,-77065.02,-48681.54,-8472.105,-16342.875,8465.355,-62357.174999999996,-2.4579792936392257,-2.900180362951244,-5.531387657307256,-6.573384136285843,-5.307658838092074,-4.451594965345229,-0.24593604780216222,-1.616536510335199,0.25830012,-0.91784433,0.381773925,-10.1479,4.54748,16.34346,67.0
1774823695.571931,9.5367431640625e-06,2026-03-29T22:34:55.571,2026-03-29T18:34:55.571,-21107.43,-45314.549999999996,-77082.25499999999,-48699.63,-8491.095,-16363.17,8463.42,-62349.479999999996,-3.475314528937543,-4.49210681508456,-5.608814884906634,-5.10703696552109,-3.650106947484455,-3.6525990231393037,-3.9131436975175355,-2.6930579570728037,0.25830012,-0.91784433,0.381773925,-10.1479,4.54748,16.34346,67.0
1774823695.5756721,0.0037412643432617188,2026-03-29T22:34:55.575,2026-03-29T18:34:55.575,-21129.3,-45313.064999999995,-77065.965,-48691.979999999996,-8485.47,-16356.914999999999,8458.785,-62370.045,-2.615902083245314,-4.014908093878134,-3.153826543501599,-1.280282463641466,-0.17775933243500955,-1.0042176923103636,-5.483312469501736,-2.040624565088948,0.25830012,-0.91784433,0.381773925,-10.1479,4.54748,16.34346,67.0
1774823695.5756905,1.8358230590820312e-05,2026-03-29T22:34:55.575,2026-03-29T18:34:55.575,-21127.32,-45302.22,-77057.28,-48684.42,-8480.115,-16349.535,8466.525,-62363.115,-0.5497762640285789,-1.8145638551997458,0.5541640360801148,3.011753901516387,3.355465397273155,2.119452205166324,-4.312127279366179,-0.25118203233375797,0.25830012,-0.91784433,0.381773925,-10.1479,4.54748,16.34346,67.0
1774823695.5792997,0.003609180450439453,2026-03-29T22:34:55.579,2026-03-29T18:34:55.579,-21107.925,-45291.645,-77047.73999999999,-48673.08,-8468.55,-16337.88,8469.72,-62352.405,1.501303981522481,1.0265200171731494,3.7425024687947777,5.715679367293066,5.1744312270266795,4.112843713027571,-1.1251482105470885,1.4691835431451237,0.25830012,-0.91784433,0.381773925,-10.1479,4.54748,16.34346,67.0
1774823695.579318,1.8358230590820312e-05,2026-03-29T22:34:55.579,2026-03-29T18:34:55.579,-21122.73,-45298.439999999995,-77049.09,-48671.28,-8465.76,-16335.09,8458.47,-62370.945,2.454159315459939,3.2157481563470167,4.988317710595092,5.596181300332202,4.36362575305349,3.9524560836438716,2.405625624990557,2.040039323671768,0.25830012,-0.91784433,0.381773925,-10.1479,4.54748,16.34346,67.0
1774823695.583759,0.004441022872924805,2026-03-29T22:34:55.583,2026-03-29T18:34:55.583,-21125.204999999998,-45299.79,-77050.395,-48671.189999999995,-8465.805,-16336.664999999999,8467.335,-62370.54,1.925180487671636,3.8353605648470155,3.853465549095484,2.7970150578062505,1.3222791082101875,1.7175991605020982,4.531824271007309,1.140846038900834,0.25830012,-0.91784433,0.381773925,-10.1479,4.54748,16.34346,67.0
1774823695.5837793,2.0265579223632812e-05,2026-03-29T22:34:55.583,2026-03-29T18:34:55.583,-21122.73,-45300.24,-77050.44,-48670.2,-8466.345,-16340.58,8471.97,-62362.935,0.3744623508369655,2.7230031271198873,1.0285530435468104,-1.2661791496733894,-2.430055249269502,-1.4445053392690246,4.295465564968104,-0.6193487843871801,0.25830012,-0.91784433,0.381773925,-10.1479,4.54748,16.34346,67.0
1774823695.588608,0.004828691482543945,2026-03-29T22:34:55.588,2026-03-29T18:34:55.588,-21119.67,-45295.515,-77043.825,-48664.215,-8460.72,-16338.33,8465.895,-62362.755,-1.2152752424770277,0.49269922293515206,-2.0550127792340303,-4.61213766857898,-5.003152861874206,-3.8954706247916326,1.962056952717612,-2.084005458128812,0.25817805,-0.90588147,0.392394015,-13.2762,8.1641,16.312939999999998,67.0
1774823695.588647,3.886222839355469e-05,2026-03-29T22:34:55.588,2026-03-29T18:34:55.588,-21119.13,-45298.125,-77045.805,-48664.305,-8459.324999999999,-16337.205,8449.695,-62363.61,-1.9214811699789383,-1.789231633472289,-3.9367165280988408,-5.650007959959892,-5.074411434484809,-4.3386739352493455,-1.17666937156464,-2.25411375721776,0.25817805,-0.90588147,0.392394015,-13.2762,8.1641,16.312939999999998,67.0
1774823695.5915983,0.002951383590698242,2026-03-29T22:34:55.591,2026-03-29T18:34:55.591,-21120.48,-45306.045,-77056.56,-48672.314999999995,-8467.065,-16343.055,8440.92,-62362.439999999995,-1.393181580025145,-3.1069801171664975,-3.813494987209262,-3.9275280384059865,-2.555123232800006,-2.4908129822893286,-3.503599727495086,-0.9040337469283571,0.25817805,-0.90588147,0.392394015,-13.2762,8.1641,16.312939999999998,67.0
1774823695.5916176,1.9311904907226562e-05,2026-03-29T22:34:55.591,2026-03-29T18:34:55.591,-21129.704999999998,-45304.515,-77043.105,-48652.965,-8448.705,-16326.0,8448.029999999999,-62379.765,-0.014476048063359667,-2.9424907988555122,-1.880810996195824,-0.323087627561385,1.3457352048789852,0.7502407873258592,-3.9060281944230577,1.2525249957167826,0.25817805,-0.90588147,0.392394015,-13.2762,8.1641,16.312939999999998,67.0
1774823695.5994108,0.0077931880950927734,2026-03-29T22:34:55.599,2026-03-29T18:34:55.599,-21118.454999999998,-45287.865,-77021.81999999999,-48640.68,-8435.115,-16310.474999999999,8459.279999999999,-62369.595,1.3523115415995803,-1.4728915470433186,0.8152544982255899,3.396787102768472,4.6986123730590945,3.7360491006256864,-2.309925190906877,2.9504601655694778,0.25817805,-0.90588147,0.392394015,-13.2762,8.1641,16.312939999999998,67.0
1774823695.5994403,2.956390380859375e-05,2026-03-29T22:34:55.599,2026-03-29T18:34:55.599,-21101.76,-45285.165,-77037.435,-48673.619999999995,-8463.465,-16330.904999999999,8468.955,-62342.729999999996,1.881467927856145,0.5532054427431915,2.9221195815189276,5.4330865790339145,5.7967509379871025,4.892173912309043,0.3390011095822682,3.101626683683374,0.25817805,-0.90588147,0.392394015,-13.2762,8.1641,16.312939999999998,67.0
1774823695.5994651,2.47955322265625e-05,2026-03-29T22:34:55.599,2026-03-29T18:34:55.599,-21114.765,-45297.54,-77055.795,-48682.395,-8472.195,-16339.769999999999,8466.164999999999,-62354.34,1.2581420059490085,2.185652202170796,3.445472953356105,4.812289524939563,4.008676868297865,3.529379170358341,2.613483979998604,1.4502385392159727,0.25817805,-0.90588147,0.392394015,-13.2762,8.1641,16.312939999999998,67.0
1774823695.599476,1.0967254638671875e-05,2026-03-29T22:34:55.599,2026-03-29T18:34:55.599,-21103.559999999998,-45297.494999999995,-77054.625,-48678.93,-8477.685,-16349.625,8467.605,-62341.155,-0.15298698596728963,2.7101976296195636,2.21327759874288,1.842391159589589,0.12017553859009207,0.23060081010279973,3.3641676510522864,-1.2259384150284869,0.25817805,-0.90588147,0.392394015,-13.2762,8.1641,16.312939999999998,67.0
1774823695.6051204,0.005644321441650391,2026-03-29T22:34:55.605,2026-03-29T18:34:55.605,-21109.005,-45296.505,-77044.36499999999,-48672.99,-8482.545,-16360.154999999999,8460.045,-62345.564999999995,-1.530269791225096,1.9556167075370003,-0.07501459694083229,-2.042347121382907,-4.012233189123531,-3.395358689280304,2.3001575747520295,-3.5006814933856525,0.25817805,-0.90588147,0.392394015,-13.2762,8.1641,16.312939999999998,67.0
1774823695.6051347,1.430511474609375e-05,2026-03-29T22:34:55.605,2026-03-29T18:34:55.605,-21079.934999999998,-45286.064999999995,-77054.04,-48697.02,-8503.74,-16384.32,8438.039999999999,-62317.215,-2.0728650605579797,0.34145789261679116,-2.223208871672283,-4.968346876962477,-6.342710187503829,-5.490748525853387,0.09745803306448339,-4.073171275383538,0.25817805,-0.90588147,0.392394015,-13.2762,8.1641,16.312939999999998,67.0
1774823695.6077693,0.0026345252990722656,2026-03-29T22:34:55.607,2026-03-29T18:34:55.607,-21074.175,-45287.595,-77062.455,-48704.985,-8503.92,-16384.725,8421.48,-62309.61,-1.4579162629134692,-1.3414239378014943,-3.143463563713336,-5.514349906229517,-5.6358050589366115,-4.88419288696814,-2.002815029844474,-2.50693965974947,0.25366146,-0.897641745,0.39135642,-13.62718,6.97382,14.5733,67.0
1774823695.6077888,1.9550323486328125e-05,2026-03-29T22:34:55.607,2026-03-29T18:34:55.607,-21106.215,-45296.595,-77055.705,-48687.345,-8485.92,-16362.314999999999,8433.675,-62339.759999999995,-0.019225459246091037,-2.3071634523078863,-2.392924906354127,-3.3882788933155052,-2.1010712527296653,-1.7198202215767253,-2.877394595918498,0.4832992219314646,0.25366146,-0.897641745,0.39135642,-13.62718,6.97382,14.5733,67.0
1774823695.6148942,0.007105350494384766,2026-03-29T22:34:55.614,2026-03-29T18:34:55.614,-21160.17,-45302.58,-77029.83,-48641.85,-8442.585,-16326.449999999999,8439.435,-62406.854999999996,1.448265168879745,-2.133402982756085,-0.3826676108799608,0.4273516383564663,2.6559414109331625,2.5485115885536196,-2.115709722818979,3.373472573293787,0.25366146,-0.897641745,0.39135642,-13.62718,6.97382,14.5733,67.0
1774823695.6149187,2.4557113647460938e-05,2026-03-29T22:34:55.614,2026-03-29T18:34:55.614,-21144.96,-45297.765,-77030.37,-48635.415,-8440.875,-16334.01,8442.404999999999,-62400.06,2.141037948215956,-0.9423141579117147,1.837758478930372,4.129773015499024,6.363021599641627,5.82245232672957,-0.21410994576004908,4.631480238384285,0.25366146,-0.897641745,0.39135642,-13.62718,6.97382,14.5733,67.0
1774823695.6198685,0.004949808120727539,2026-03-29T22:34:55.619,2026-03-29T18:34:55.619,-21108.78,-45285.93,-77027.44499999999,-48632.805,-8436.779999999999,-16326.765,8452.98,-62355.645,1.6964560140769007,0.6714366427033039,3.1105136720100814,5.939724740806324,7.159686999921789,6.380759160603805,1.7231699772341214,3.548633935903,0.25366146,-0.897641745,0.39135642,-13.62718,6.97382,14.5733,67.0
1774823695.6198945,2.5987625122070312e-05,2026-03-29T22:34:55.619,2026-03-29T18:34:55.619,-21099.285,-45283.68,-77024.97,-48637.53,-8440.695,-16320.914999999999,8480.385,-62339.85,0.3852682759184839,1.9267994811360167,2.753028933644979,4.943219479097241,4.515815229378596,3.763996591631719,2.60452932125441,0.6438988064021216,0.25366146,-0.897641745,0.39135642,-13.62718,6.97382,14.5733,67.0
1774823695.6199183,2.384185791015625e-05,2026-03-29T22:34:55.619,2026-03-29T18:34:55.619,-21143.565,-45299.655,-77029.02,-48633.165,-8436.42,-16318.935,8478.72,-62390.43,-1.056672672341248,2.223044069857633,0.908213148714118,1.5387551019172345,-0.45712712071941874,-0.924690785891664,1.9523967804219424,-2.5911628315379036,0.25366146,-0.897641745,0.39135642,-13.62718,6.97382,14.5733,67.0
1774823695.6199303,1.1920928955078125e-05,2026-03-29T22:34:55.619,2026-03-29T18:34:55.619,-21148.469999999998,-45301.14,-77030.73,-48635.865,-8436.914999999999,-16316.865,8478.36,-62384.534999999996,-1.8544304940467238,1.4195700442725323,-1.5128297864573441,-2.723267062380401,-5.473077998835047,-5.480733163199496,0.1597625615939074,-4.480086600252783,0.25366146,-0.897641745,0.39135642,-13.62718,6.97382,14.5733,67.0
1774823695.623839,0.003908634185791016,2026-03-29T22:34:55.623,2026-03-29T18:34:55.623,-21134.43,-45296.82,-77029.69499999999,-48648.869999999995,-8448.255,-16321.59,8497.71,-62358.884999999995,-1.6293247438539364,-0.09828691590716467,-3.2726521277990503,-5.843562354254991,-8.120792737602434,-7.630737447092558,-1.7349368907370686,-4.059219415002242,0.25366146,-0.897641745,0.39135642,-13.62718,6.97382,14.5733,67.0
1774823695.623861,2.2172927856445312e-05,2026-03-29T22:34:55.623,2026-03-29T18:34:55.623,-21138.75,-45302.67,-77038.245,-48660.93,-8454.195,-16319.205,8514.27,-62365.86,-0.5939501881789557,-1.5979260748488135,-3.4230097391548657,-6.302438063377208,-7.0150415988950225,-6.154950571904646,-2.6299661170595083,-1.5952327514743492,0.25366146,-0.897641745,0.39135642,-13.62718,6.97382,14.5733,67.0
1774823695.6276743,0.0038132667541503906,2026-03-29T22:34:55.627,2026-03-29T18:34:55.627,-21142.89,-45309.689999999995,-77047.605,-48662.055,-8453.34,-16321.095,8495.324999999999,-62371.35,0.6000246392777422,-2.342474422419175,-1.7943895493102584,-3.786973127705928,-2.503523834344699,-1.5503827527919556,-1.98077079770498,1.5650255292283515,0.24462828,-0.900815565,0.378233895,-6.9890799999999995,-4.10494,16.69444,67.0
1774823695.6276948,2.0503997802734375e-05,2026-03-29T22:34:55.627,2026-03-29T18:34:55.627,-21132.585,-45305.189999999995,-77048.50499999999,-48660.119999999995,-8454.375,-16325.55,8478.765,-62356.68,1.264494666588728,-1.9419743943358037,0.8857880036104032,0.6257284166944556,3.4246890171843987,4.115737180509861,-0.11736872211060424,3.734329289496613,0.24462828,-0.900815565,0.378233895,-6.9890799999999995,-4.10494,16.69444,67.0
1774823695.6323004,0.004605531692504883,2026-03-29T22:34:55.632,2026-03-29T18:34:55.632,-21114.989999999998,-45304.74,-77051.925,-48661.784999999996,-8459.46,-16336.845,8465.085,-62336.43,1.0850540184905835,-0.5496744984026566,3.3170513732093263,4.928678724297068,8.016624333216017,8.132399651271642,1.9209357701003094,3.80884925637939,0.24462828,-0.900815565,0.378233895,-6.9890799999999995,-4.10494,16.69444,67.0
1774823695.632319,1.8596649169921875e-05,2026-03-29T22:34:55.632,2026-03-29T18:34:55.632,-21118.14,-45309.689999999995,-77049.315,-48666.104999999996,-8464.994999999999,-16342.019999999999,8467.154999999999,-62328.465,0.2928460942232193,1.1927374543523954,4.248734127186732,7.093293270644646,9.032301491042755,8.43749604664656,2.951868908651967,1.8639181457946894,0.24462828,-0.900815565,0.378233895,-6.9890799999999995,-4.10494,16.69444,67.0
1774823695.6356084,0.003289461135864258,2026-03-29T22:34:55.635,2026-03-29T18:34:55.635,-21150.315,-45308.655,-77047.29,-48666.015,-8463.914999999999,-16339.68,8468.46,-62358.165,-0.504311309286591,2.444012756474196,3.107224893916272,6.017653082619529,5.830150261021727,4.662808176638755,2.3144835587423547,-0.911630512025063,0.24462828,-0.900815565,0.378233895,-6.9890799999999995,-4.10494,16.69444,67.0
1774823695.6356733,6.4849853515625e-05,2026-03-29T22:34:55.635,2026-03-29T18:34:55.635,-21164.805,-45292.634999999995,-77043.95999999999,-48664.665,-8466.795,-16346.835,8435.25,-62396.595,-0.7274586138168615,2.559649067020957,0.3190400015859268,2.0752512826971743,-0.2619136276250715,-1.5927404886264371,0.2668092097148188,-2.9073736472487357,0.24462828,-0.900815565,0.378233895,-6.9890799999999995,-4.10494,16.69444,67.0
1774823695.6396565,0.003983259201049805,2026-03-29T22:34:55.639,2026-03-29T18:34:55.639,-21170.295,-45314.415,-77067.22499999999,-48685.365,-8491.185,-16372.664999999999,8406.855,-62391.869999999995,-0.21706785006283597,1.4129790559575908,-2.843481769936444,-3.0048380162975703,-6.494178123154682,-7.4353012483672725,-2.1127966716344853,-3.019540605543189,0.24462828,-0.900815565,0.378233895,-6.9890799999999995,-4.10494,16.69444,67.0
1774823695.6396728,1.621246337890625e-05,2026-03-29T22:34:55.639,2026-03-29T18:34:55.639,-21173.489999999998,-45323.055,-77069.16,-48675.735,-8482.68,-16365.24,8417.43,-62383.905,0.6411465122580624,-0.5152137335168927,-4.84166634768843,-6.8946409056038815,-9.938338285766926,-10.014843406122694,-3.486428400952281,-1.2857256531587906,0.24462828,-0.900815565,0.378233895,-6.9890799999999995,-4.10494,16.69444,67.0
1774823695.6439965,0.004323720932006836,2026-03-29T22:34:55.643,2026-03-29T18:34:55.643,-21157.02,-45304.02,-77047.2,-48650.22,-8453.385,-16329.015,8465.76,-62363.159999999996,1.1494826308105492,-2.3337140894990167,-4.612695885144516,-7.7318356021076085,-8.864390518274714,-7.912149977124121,-2.991127660965448,1.1443303501987525,0.24462828,-0.900815565,0.378233895,-6.9890799999999995,-4.10494,16.69444,67.0
1774823695.644009,1.2636184692382812e-05,2026-03-29T22:34:55.644,2026-03-29T18:34:55.644,-21151.53,-45296.28,-77042.7,-48658.86,-8455.095,-16321.23,8484.435,-62357.354999999996,0.7632384214023218,-3.146753872027094,-2.1194640034543606,-5.007198592990967,-3.6039518468900744,-1.9009504966256592,-0.7513189134191735,2.6964207322524496,0.24462828,-0.900815565,0.378233895,-6.9890799999999995,-4.10494,16.69444,67.0
1774823695.647654,0.0036449432373046875,2026-03-29T22:34:55.647,2026-03-29T18:34:55.647,-21134.88,-45283.049999999996,-77027.12999999999,-48645.18,-8438.265,-16301.519999999999,8509.86,-62333.235,-0.49621125525068654,-2.4868200489112797,1.5711693516551946,0.14644893571827752,3.5288964641876146,5.317243837295192,2.12390667193775,2.329045001527043,0.24023376,-0.91979745,0.367369665,-2.60946,-5.08158,14.90902,67.0
1774823695.6476753,2.1219253540039062e-05,2026-03-29T22:34:55.647,2026-03-29T18:34:55.647,-21136.815,-45294.299999999996,-77031.09,-48646.08,-8437.994999999999,-16305.074999999999,8504.595,-62326.665,-1.9554200502386954,-0.5683396954266944,4.7452517677880905,5.422170562150628,9.257434071538155,10.327522958623641,4.0859210210501855,0.20016595133196602,0.24023376,-0.91979745,0.367369665,-2.60946,-5.08158,14.90902,67.0
1774823695.6880252,0.04034996032714844,2026-03-29T22:34:55.688,2026-03-29T18:34:55.688,-21153.105,-45313.2,-77051.655,-48660.299999999996,-8449.65,-16319.519999999999,8492.805,-62329.634999999995,-2.625320029909051,1.771019826135227,5.839362900425081,8.37380943844182,10.854188137611757,10.620731628122757,3.968219457434727,-2.368035742492467,0.24023376,-0.91979745,0.367369665,-2.60946,-5.08158,14.90902,67.0
1774823695.6880453,2.002716064453125e-05,2026-03-29T22:34:55.688,2026-03-29T18:34:55.688,-21157.829999999998,-45308.655,-77063.48999999999,-48671.055,-8465.805,-16337.609999999999,8481.555,-62334.494999999995,-1.8001880542689026,3.4331998116539606,4.20803779552234,7.554032215181465,7.445539515010069,5.849192650973725,1.6542378029266367,-3.6425675904971544,0.24023376,-0.91979745,0.367369665,-2.60946,-5.08158,14.90902,67.0
1774823695.6880643,1.9073486328125e-05,2026-03-29T22:34:55.688,2026-03-29T18:34:55.688,-21141.945,-45286.064999999995,-77038.065,-48651.884999999995,-8455.725,-16332.795,8472.465,-62336.295,0.4233483864056513,3.5715687918369565,0.48532924071012523,3.2246379499189635,0.4825620920938721,-1.9088763672780744,-1.7806553492379051,-2.5421960980113365,0.24023376,-0.91979745,0.367369665,-2.60946,-5.08158,14.90902,67.0
1774823695.6880715,7.152557373046875e-06,2026-03-29T22:34:55.688,2026-03-29T18:34:55.688,-21138.84,-45287.955,-77035.95,-48657.869999999995,-8457.84,-16330.635,8476.38,-62328.78,3.0428873655665165,2.014636292495631,-3.656491829355261,-2.7108172813545988,-6.873811948933602,-9.050296249615181,-4.563718695545685,0.6096323287736884,0.24023376,-0.91979745,0.367369665,-2.60946,-5.08158,14.90902,67.0
1774823695.6880803,8.821487426757812e-06,2026-03-29T22:34:55.688,2026-03-29T18:34:55.688,-21136.184999999998,-45292.905,-77049.765,-48668.939999999995,-8466.975,-16336.17,8480.385,-62324.235,4.587704321953199,-0.6081753426042847,-6.263760977769032,-7.547731340304792,-11.196312461220685,-12.126688130638776,-5.131329184577612,4.120777982043369,0.24023376,-0.91979745,0.367369665,-2.60946,-5.08158,14.90902,67.0
1774823695.6880875,7.152557373046875e-06,2026-03-29T22:34:55.688,2026-03-29T18:34:55.688,-21119.219999999998,-45274.994999999995,-77028.66,-48647.655,-8451.135,-16326.494999999999,8477.595,-62316.18,3.9133148405238076,-3.117977361467786,-6.030275139483312,-9.023533601890238,-10.402238620857727,-9.518802133584575,-2.9879051373772327,5.804939617904606,0.24023376,-0.91979745,0.367369665,-2.60946,-5.08158,14.90902,67.0
1774823695.6880953,7.867813110351562e-06,2026-03-29T22:34:55.688,2026-03-29T18:34:55.688,-21085.065,-45263.61,-77012.45999999999,-48634.784999999996,-8446.455,-16328.16,8466.57,-62296.604999999996,0.9336138215346559,-4.317034994743352,-2.9540401232194218,-6.387955691153074,-4.7690773979365035,-2.289231967046962,0.9461621372445166,4.254105034213181,0.24023376,-0.91979745,0.367369665,-2.60946,-5.08158,14.90902,67.0
1774823695.6881015,6.198883056640625e-06,2026-03-29T22:34:55.688,2026-03-29T18:34:55.688,-21103.29,-45306.314999999995,-77036.4,-48649.814999999995,-8457.795,-16336.89,8463.824999999999,-62279.64,-3.146305360148117,-3.559687317934459,1.6098166789361195,-0.7883721397932243,3.1461905963925507,6.235786316175075,4.718585746612083,-0.20401740697622134,0.24023376,-0.91979745,0.367369665,-2.60946,-5.08158,14.90902,67.0
1774823695.6881092,7.62939453125e-06,2026-03-29T22:34:55.688,2026-03-29T18:34:55.688,-21146.13,-45332.729999999996,-77091.345,-48704.534999999996,-8504.055,-16374.689999999999,8449.11,-62282.88,-6.300088068880997,-1.0912408164331049,5.550954935099901,5.23109591538194,9.673709261867549,12.00113328057034,6.30742374515149,-5.458540547834313,0.24816831,-0.91601328,0.374571795,-1.6022999999999998,1.72438,13.2762,67.0
1774823695.6881151,5.9604644775390625e-06,2026-03-29T22:34:55.688,2026-03-29T18:34:55.688,-21099.195,-45303.615,-77115.285,-48730.814999999995,-8529.975,-16404.975,8426.699999999999,-62281.53,-6.680222039961409,2.0207648303282033,6.99294143546616,8.89998531729424,11.750605346323532,12.166064566368261,4.6905637369394695,-8.602780570327036,0.24816831,-0.91601328,0.374571795,-1.6022999999999998,1.72438,13.2762,67.0
1774823695.6881232,8.106231689453125e-06,2026-03-29T22:34:55.688,2026-03-29T18:34:55.688,-21103.065,-45298.08,-77086.98,-48697.02,-8501.085,-16383.33,8424.27,-62296.38,-3.6562803907696835,4.35125187397103,5.201433397538402,8.518123047343177,8.381349179943536,6.5197490639750315,0.46317479741966433,-7.499683389146759,0.24816831,-0.91601328,0.374571795,-1.6022999999999998,1.72438,13.2762,67.0
1774823695.6881297,6.4373016357421875e-06,2026-03-29T22:34:55.688,2026-03-29T18:34:55.688,-21162.69,-45300.015,-77033.16,-48631.365,-8440.199999999999,-16329.105,8454.735,-62369.1,1.678362825499247,4.775116805903972,0.9656017877111426,4.262077455094221,1.1320940970390148,-2.342763344728152,-4.355007260815,-2.09583000218592,0.24816831,-0.91601328,0.374571795,-1.6022999999999998,1.72438,13.2762,67.0
1774823695.6881418,1.2159347534179688e-05,2026-03-29T22:34:55.688,2026-03-29T18:34:55.688,-21199.725,-45298.35,-77016.51,-48620.205,-8426.34,-16307.369999999999,8480.654999999999,-62421.884999999995,6.870503554113073,3.0118608845817496,-3.7493213009806885,-1.8910096734854906,-6.595147106485082,-10.211101788716345,-7.277705766297658,5.282981182502945,0.24816831,-0.91601328,0.374571795,-1.6022999999999998,1.72438,13.2762,67.0
1774823695.6881523,1.049041748046875e-05,2026-03-29T22:34:55.688,2026-03-29T18:34:55.688,-21183.93,-45314.865,-77049.98999999999,-48645.405,-8443.44,-16318.17,8490.824999999999,-62391.104999999996,9.241195162229936,-0.207687438788149,-6.727768676245715,-7.0947381630373565,-11.175559101034493,-13.273738035862712,-6.6247290304118485,10.924735772800776,0.24816831,-0.91601328,0.374571795,-1.6022999999999998,1.72438,13.2762,67.0
1774823695.688178,2.574920654296875e-05,2026-03-29T22:34:55.688,2026-03-29T18:34:55.688,-21168.989999999998,-45324.27,-77058.62999999999,-48672.99,-8465.355,-16332.57,8491.77,-62366.085,7.262840772892752,-3.4470009843073868,-6.567498810956306,-8.977931504632473,-10.491711237996038,-9.987815835761257,-2.4626083300734534,11.59394077033377,0.24816831,-0.91601328,0.374571795,-1.6022999999999998,1.72438,13.2762,67.0
1774823695.68819,1.1920928955078125e-05,2026-03-29T22:34:55.688,2026-03-29T18:34:55.688,-21169.395,-45323.145,-77055.795,-48681.674999999996,-8475.84,-16344.72,8468.145,-62365.095,1.4719455806127193,-5.213348899503173,-3.361513243062846,-6.755802230062589,-4.942563507402591,-1.8779035198312413,3.3030361812954765,6.329669909908645,0.24816831,-0.91601328,0.374571795,-1.6022999999999998,1.72438,13.2762,67.0
1774823695.6881988,8.821487426757812e-06,2026-03-29T22:34:55.688,2026-03-29T18:34:55.688,-21153.78,-45296.775,-77043.42,-48666.24,-8463.015,-16336.394999999999,8459.369999999999,-62365.14,-5.6063020222351945,-4.653746659663633,1.3434506365245837,-1.572135462736394,2.7640229925066007,7.158874381811277,7.790366711736123,-2.8018208390312616,0.24816831,-0.91601328,0.374571795,-1.6022999999999998,1.72438,13.2762,67.0
1774823695.688205,6.198883056640625e-06,2026-03-29T22:34:55.688,2026-03-29T18:34:55.688,-21137.76,-45286.695,-77040.405,-48659.174999999996,-8456.175,-16329.869999999999,8464.86,-62360.595,-10.568246144630509,-1.9688551684143745,5.2999138839027475,4.087147789256857,8.937785368685581,12.73256075082138,8.57412189241111,-11.497999977340267,0.24816831,-0.91601328,0.374571795,-1.6022999999999998,1.72438,13.2762,67.0
1774823695.688216,1.0967254638671875e-05,2026-03-29T22:34:55.688,2026-03-29T18:34:55.688,-21141.989999999998,-45298.53,-77050.17,-48665.655,-8465.49,-16345.845,8469.855,-62352.36,-10.784928544328361,1.6577021149557651,6.656790788327552,7.611987704441592,10.701787494665087,12.117063692415634,4.97965512284956,-15.264694972096684,0.249083835,-0.88683855,0.38366601,-12.604759999999999,8.33196,13.093079999999999,67.0
1774823695.688222,5.9604644775390625e-06,2026-03-29T22:34:55.688,2026-03-29T18:34:55.688,-21139.785,-45296.775,-77047.155,-48663.63,-8466.074999999999,-16348.68,8463.15,-62345.25,-5.787274141146062,4.590948610308427,4.8564723844054285,7.511792195881175,7.372533737180704,5.6149400679854224,-1.4451935941064353,-11.73460288336307,0.249083835,-0.88683855,0.38366601,-12.604759999999999,8.33196,13.093079999999999,67.0
1774823695.6975229,0.009300947189331055,2026-03-29T22:34:55.697,2026-03-29T18:34:55.697,-21114.495,-45281.159999999996,-77034.87,-48650.085,-8457.164999999999,-16337.43,8461.619999999999,-62327.115,2.3450929348781666,5.494127506939786,0.8836818088394203,4.074232181982027,0.7446157929315801,-3.566371184491358,-7.5806670471702775,-2.06320642382786,0.249083835,-0.88683855,0.38366601,-12.604759999999999,8.33196,13.093079999999999,67.0
1774823695.697604,8.106231689453125e-05,2026-03-29T22:34:55.697,2026-03-29T18:34:55.697,-21086.55,-45279.134999999995,-77038.785,-48651.795,-8460.765,-16336.17,8458.289999999999,-62300.655,9.854139763032917,3.946774025157766,-3.2566220274910944,-0.8683735510857504,-5.8523384497742965,-10.890127132130292,-10.244158991072677,9.392516842185149,0.249083835,-0.88683855,0.38366601,-12.604759999999999,8.33196,13.093079999999999,67.0
1774823695.697694,9.012222290039062e-05,2026-03-29T22:34:55.697,2026-03-29T18:34:55.697,-21095.145,-45291.33,-77050.305,-48665.7,-8474.67,-16347.465,8455.77,-62284.95,13.067144446379745,0.6409483376973968,-5.563184505420963,-4.9175417427156765,-9.23974665816603,-12.748006550122815,-7.830841618779874,17.06236141481856,0.249083835,-0.88683855,0.38366601,-12.604759999999999,8.33196,13.093079999999999,67.0
1774823695.6977427,4.863739013671875e-05,2026-03-29T22:34:55.697,2026-03-29T18:34:55.697,-21105.045,-45309.015,-77080.5,-48688.38,-8500.41,-16376.67,8440.335,-62277.84,10.213682536320787,-2.936886646869573,-5.038329924860182,-6.311566617778838,-7.961636566287934,-8.270737998184021,-1.2443950690226064,16.89941444970282,0.249083835,-0.88683855,0.38366601,-12.604759999999999,8.33196,13.093079999999999,67.0
1774823695.7017612,0.004018545150756836,2026-03-29T22:34:55.701,2026-03-29T18:34:55.701,-21135.555,-45338.265,-77097.15,-48680.729999999996,-8489.115,-16373.654999999999,8435.565,-62291.34,2.387137168344364,-5.188678022043912,-2.1515730316673163,-4.7344575242637825,-2.9481856192666975,0.2304738024319916,6.4084434082894095,8.507257562159879,0.249083835,-0.88683855,0.38366601,-12.604759999999999,8.33196,13.093079999999999,67.0
1774823695.7017817,2.0503997802734375e-05,2026-03-29T22:34:55.701,2026-03-29T18:34:55.701,-21162.375,-45325.17,-77073.84,-48675.42,-8477.324999999999,-16359.39,8439.119999999999,-62326.845,-6.867418404490347,-5.132165823994387,1.4644940793555714,-1.3378343700326734,3.0509985499419625,8.431572420547754,11.278259504906782,-4.458882181119873,0.249083835,-0.88683855,0.38366601,-12.604759999999999,8.33196,13.093079999999999,67.0
1774823695.705036,0.0032541751861572266,2026-03-29T22:34:55.705,2026-03-29T18:34:55.705,-21139.559999999998,-45288.63,-77042.655,-48683.43,-8481.96,-16353.314999999999,8455.41,-62317.485,-13.188321955922689,-2.835210078365343,3.9140633969985044,1.9907625411959156,6.948823045208232,12.193439960078498,10.704790180607608,-15.906422473367115,0.249083835,-0.88683855,0.38366601,-12.604759999999999,8.33196,13.093079999999999,67.0
1774823695.7050557,1.9788742065429688e-05,2026-03-29T22:34:55.705,2026-03-29T18:34:55.705,-21115.079999999998,-45290.655,-77055.39,-48681.585,-8484.525,-16354.89,8467.74,-62284.005,-13.487941455857074,0.6382382978341965,4.047802410243458,3.681735597727507,6.930463345402289,9.674123703523,4.652488993207333,-20.21239194457382,0.249083835,-0.88683855,0.38366601,-12.604759999999999,8.33196,13.093079999999999,67.0
1774823695.7083993,0.0033435821533203125,2026-03-29T22:34:55.708,2026-03-29T18:34:55.708,-21144.015,-45308.655,-77059.305,-48671.145,-8475.48,-16343.369999999999,8468.64,-62314.56,-7.480787583800311,3.7339191126113875,2.0405824836646116,3.272708976876386,3.3445895657202027,2.2684720656591035,-4.118170487729103,-15.016141405236173,0.244323105,-0.873105675,0.388365705,-28.856659999999998,10.43784,8.392999999999999,67.0
1774823695.7084153,1.5974044799804688e-05,2026-03-29T22:34:55.708,2026-03-29T18:34:55.708,-21156.434999999998,-45314.729999999996,-77065.065,-48667.095,-8476.605,-16351.289999999999,8444.34,-62315.415,2.116450632776244,5.118976385553687,-0.7689754724377986,1.5158252412497093,-1.5820859149399549,-6.120093560892166,-11.303639346372163,-2.496675561802831,0.244323105,-0.873105675,0.388365705,-28.856659999999998,10.43784,8.392999999999999,67.0
1774823695.7121985,0.0037832260131835938,2026-03-29T22:34:55.712,2026-03-29T18:34:55.712,-21095.684999999998,-45326.61,-77129.685,-48713.85,-8528.039999999999,-16408.8,8435.16,-62224.695,10.838178933836716,4.266229499220816,-2.6797056806047466,-0.21660083369655989,-5.0329708923379455,-11.111743167228747,-13.169871867130583,11.551259866854842,0.244323105,-0.873105675,0.388365705,-28.856659999999998,10.43784,8.392999999999999,67.0
1774823695.7122152,1.6689300537109375e-05,2026-03-29T22:34:55.712,2026-03-29T18:34:55.712,-21021.075,-45333.0,-77169.465,-48755.43,-8578.08,-16472.024999999998,8400.869999999999,-62122.68,14.587179251733296,1.6496159522397695,-2.6181790030593985,-0.8454286603808218,-5.178708006104492,-10.138243720049182,-8.487056773943776,20.446260627929313,0.244323105,-0.873105675,0.388365705,-28.856659999999998,10.43784,8.392999999999999,67.0
1774823695.7235377,0.011322498321533203,2026-03-29T22:34:55.723,2026-03-29T18:34:55.723,-21017.565,-45327.735,-77152.41,-48781.845,-8610.029999999999,-16508.7,8385.345,-62100.63,11.59419985046065,-1.5190363893333223,-0.7573079008399718,-0.2560154389641568,-2.1739024760828336,-3.7911335050618846,0.7142627385309601,19.848203251310892,0.244323105,-0.873105675,0.388365705,-28.856659999999998,10.43784,8.392999999999999,67.0
1774823695.7235515,1.3828277587890625e-05,2026-03-29T22:34:55.723,2026-03-29T18:34:55.723,-21155.94,-45308.384999999995,-77053.185,-48684.915,-8514.045,-16425.765,8395.065,-62284.634999999995,3.2668570724914927,-3.8665948195133355,1.5952918103452907,0.6833650997786672,1.9779276159163823,4.488099630329473,10.012510799582225,9.903264997754938,0.244323105,-0.873105675,0.388365705,-28.856659999999998,10.43784,8.392999999999999,67.0
1774823695.723565,1.3589859008789062e-05,2026-03-29T22:34:55.723,2026-03-29T18:34:55.723,-21270.69,-45318.015,-77002.65,-48595.86,-8410.365,-16316.369999999999,8456.94,-62433.99,-6.485821051636076,-4.467688894732009,2.788478984579879,0.7700809535196789,4.6173848725260624,10.229877841899839,14.725112274175176,-4.766150674854212,0.244323105,-0.873105675,0.388365705,-28.856659999999998,10.43784,8.392999999999999,67.0
1774823695.7235696,4.5299530029296875e-06,2026-03-29T22:34:55.723,2026-03-29T18:34:55.723,-21245.445,-45310.814999999995,-76996.8,-48601.619999999995,-8406.9,-16292.07,8472.555,-62395.38,-13.1230822253272,-3.20935495617684,1.8541779389890116,-0.6194191091560092,4.011917867207037,10.321922181285144,12.271070751526423,-17.247936178564444,0.244323105,-0.873105675,0.388365705,-28.856659999999998,10.43784,8.392999999999999,67.0
1774823695.7259414,0.0023717880249023438,2026-03-29T22:34:55.725,2026-03-29T18:34:55.725,-21199.364999999998,-45296.189999999995,-76997.11499999999,-48607.83,-8410.77,-16272.99,8460.09,-62319.915,-13.626512604275417,-0.7673862838169766,-0.8297628480957091,-2.941619404849855,0.425805989493667,4.694942116043934,3.5714398069957776,-21.651956014346506,0.244323105,-0.873105675,0.388365705,-28.856659999999998,10.43784,8.392999999999999,67.0
1774823695.7259583,1.6927719116210938e-05,2026-03-29T22:34:55.725,2026-03-29T18:34:55.725,-21156.03,-45252.18,-76972.68,-48584.564999999995,-8394.39,-16261.83,8487.585,-62285.939999999995,-7.89870612979976,1.7594675010192231,-3.6578960417127395,-4.649193062844041,-3.958458132490098,-3.6037917925911347,-7.267979199660832,-15.936124959024328,0.244323105,-0.873105675,0.388365705,-28.856659999999998,10.43784,8.392999999999999,67.0
1774823695.7259743,1.5974044799804688e-05,2026-03-29T22:34:55.725,2026-03-29T18:34:55.725,-21164.579999999998,-45266.174999999996,-76994.86499999999,-48606.345,-8416.305,-16301.474999999999,8477.595,-62273.07,1.2531811035963745,3.3591254601922294,-4.682140631061953,-4.090590722000042,-6.268429341341298,-10.016864103478971,-14.901963397595052,-2.8707917029552212,0.231261615,-0.87682881,0.370543485,-26.262459999999997,-10.392059999999999,11.55182,67.0
1774823695.725983,8.58306884765625e-06,2026-03-29T22:34:55.725,2026-03-29T18:34:55.725,-21175.245,-45298.799999999996,-77044.36499999999,-48668.22,-8480.654999999999,-16368.84,8437.77,-62266.454999999994,9.51232897810901,3.5164555086561355,-2.798386017511268,-0.6595442443186507,-4.659532188151839,-10.93174550568005,-15.394894723860752,11.321259040711167,0.231261615,-0.87682881,0.370543485,-26.262459999999997,-10.392059999999999,11.55182,67.0
1774823695.735832,0.009849071502685547,2026-03-29T22:34:55.735,2026-03-29T18:34:55.735,-21157.515,-45302.58,-77046.525,-48671.145,-8483.13,-16371.135,8416.395,-62238.78,13.12381671853937,2.3551396501886526,1.4439288980627454,4.512333626597017,0.45463368810449434,-5.678367297298038,-8.254505586263464,19.97361503151167,0.231261615,-0.87682881,0.370543485,-26.262459999999997,-10.392059999999999,11.55182,67.0
1774823695.7358456,1.3589859008789062e-05,2026-03-29T22:34:55.735,2026-03-29T18:34:55.735,-21157.695,-45284.625,-77009.58,-48623.759999999995,-8421.705,-16287.255,8482.455,-62219.52,10.633014228610557,0.4873166893954399,5.927489547839404,8.839387274144743,6.414589922466001,3.02232258763833,3.2037370388315836,19.159404156551002,0.231261615,-0.87682881,0.370543485,-26.262459999999997,-10.392059999999999,11.55182,67.0
1774823695.7358575,1.1920928955078125e-05,2026-03-29T22:34:55.735,2026-03-29T18:34:55.735,-21185.91,-45290.97,-77029.56,-48638.34,-8416.26,-16250.355,8555.535,-62222.939999999995,3.472231251168355,-1.3148911583632577,7.99593800891316,9.536559205107656,9.66061519475503,10.443839273052745,13.402680925452149,9.50672315507525,0.231261615,-0.87682881,0.370543485,-26.262459999999997,-10.392059999999999,11.55182,67.0
1774823695.735862,4.5299530029296875e-06,2026-03-29T22:34:55.735,2026-03-29T18:34:55.735,-21203.55,-45301.68,-77050.44,-48650.67,-8434.755,-16281.9,8529.615,-62247.329999999994,-4.840194348630386,-2.4482298227874213,5.935890196226574,5.250689043941852,7.744234460340176,12.376960562223871,17.237334905738734,-4.206876539312079,0.231261615,-0.87682881,0.370543485,-26.262459999999997,-10.392059999999999,11.55182,67.0
1774823695.7489119,0.013049840927124023,2026-03-29T22:34:55.748,2026-03-29T18:34:55.748,-21212.594999999998,-45321.525,-77063.94,-48634.92,-8430.705,-16300.215,8486.55,-62235.72,-10.447659387343164,-2.6625623644641996,0.11389167610745,-2.8389694620933272,0.9058726615461408,7.4583606281731045,12.648029403997267,-15.438508394647318,0.231261615,-0.87682881,0.370543485,-26.262459999999997,-10.392059999999999,11.55182,67.0
1774823695.748925,1.3113021850585938e-05,2026-03-29T22:34:55.748,2026-03-29T18:34:55.748,-21219.39,-45325.485,-77057.595,-48624.795,-8424.36,-16301.654999999999,8468.82,-62222.895,-10.973026153544456,-2.054587919772405,-6.9175530030428805,-11.182648114453842,-7.724492789726294,-1.9634567530165206,1.7273274895002502,-19.044081255538728,0.231261615,-0.87682881,0.370543485,-26.262459999999997,-10.392059999999999,11.55182,67.0
1774823695.7489383,1.33514404296875e-05,2026-03-29T22:34:55.748,2026-03-29T18:34:55.748,-21221.64,-45313.604999999996,-77037.165,-48639.42,-8437.095,-16310.115,8485.515,-62198.46,-6.537231577982869,-0.9289625362482683,-11.52529832912251,-15.395501324087771,-13.549782053515479,-10.946062668674355,-10.235512469455747,-13.674341762497479,0.231261615,-0.87682881,0.370543485,-26.262459999999997,-10.392059999999999,11.55182,67.0
1774823695.7489429,4.5299530029296875e-06,2026-03-29T22:34:55.748,2026-03-29T18:34:55.748,-21220.29,-45307.17,-77047.965,-48638.655,-8449.965,-16343.46,8478.81,-62193.78,0.461623265977079,0.36333950804480447,-10.840199529482799,-12.514213775689168,-12.909923168973226,-14.52459230233507,-17.337311867108472,-2.27027151417216,0.231261615,-0.87682881,0.370543485,-26.262459999999997,-10.392059999999999,11.55182,67.0
1774823695.7489476,4.76837158203125e-06,2026-03-29T22:34:55.748,2026-03-29T18:34:55.748,-21203.64,-45290.07,-77040.62999999999,-48625.02,-8440.02,-16347.869999999999,8460.135,-62184.42,6.628770052176269,1.5207069283354615,-4.414849852820772,-2.8295557013669703,-5.225255244158742,-10.405592814822947,-16.001190126959557,9.517174788985562,0.21191352,-0.921811605,0.331969365,-31.64924,-20.08216,11.1398,67.0
1774823695.7489512,3.5762786865234375e-06,2026-03-29T22:34:55.748,2026-03-29T18:34:55.748,-21193.559999999998,-45272.384999999995,-77009.48999999999,-48612.24,-8419.904999999999,-16309.619999999999,8472.555,-62161.155,9.233866305284444,2.302460628947201,5.224045452562141,9.76745732074709,6.326970358608565,-0.33825072573364195,-6.797626222123185,16.143510006192063,0.21191352,-0.921811605,0.331969365,-31.64924,-20.08216,11.1398,67.0
