unix_time_s,dt_s,UTC,LOCAL,EMG1_Raw,EMG2_Raw,EMG3_Raw,EMG4_Raw,EMG5_Raw,EMG6_Raw,EMG7_Raw,EMG8_Raw,EMG1_Filtered,EMG2_Filtered,EMG3_Filtered,EMG4_Filtered,EMG5_Filtered,EMG6_Filtered,EMG7_Filtered,EMG8_Filtered,Accel1_Raw,Accel2_Raw,Accel3_Raw,Gyro1_Raw,Gyro2_Raw,Gyro3_Raw,Battery
1774823476.4090722,,2026-03-29T22:31:16.409,2026-03-29T18:31:16.409,-22056.93,-43403.805,-77222.565,-48827.07,-8983.755,-16283.654999999999,7711.92,-63215.909999999996,-0.1389296863216848,-0.2475419583563101,-1.0537801121023083,-0.9486224427364672,-0.19367626418868972,0.105994161731855,0.1881303613610558,-0.24267006205931946,0.40673724,-0.942807645,0.13708461,0.48832,7.4011,-8.606639999999999,68.0
1774823476.4090867,1.4543533325195312e-05,2026-03-29T22:31:16.409,2026-03-29T18:31:16.409,-22045.41,-43404.165,-77228.595,-48825.674999999996,-8982.315,-16284.15,7711.065,-63199.799999999996,2.2655556096148493,-0.15350880915259366,-1.173708299406264,-2.9281343711137784,-1.9946887794553914,-1.3942207881460806,-0.6235199170422226,2.5353364563830274,0.40673724,-0.942807645,0.13708461,0.48832,7.4011,-8.606639999999999,68.0
1774823476.4118311,0.002744436264038086,2026-03-29T22:31:16.411,2026-03-29T18:31:16.411,-22041.629999999997,-43403.67,-77229.9,-48841.244999999995,-8995.095,-16290.135,7709.535,-63196.064999999995,3.679143260803814,-0.23710869232596996,-0.9206109843128519,-3.617721904632013,-3.044930103861958,-2.4925459073989846,-1.3039131963940034,4.3616951576263,0.40600482,-0.9362769,0.13738978500000001,-1.09872,4.39488,-7.446879999999999,68.0
1774823476.4118848,5.364418029785156e-05,2026-03-29T22:31:16.411,2026-03-29T18:31:16.411,-22039.829999999998,-43404.84,-77229.45,-48849.705,-8999.279999999999,-16291.98,7711.155,-63191.34,3.5104413157035,-0.4359860797305617,-0.3130963791751484,-2.5852138506807676,-2.8367227779791895,-2.713672422439874,-1.5808647480015579,4.481237712046857,0.40600482,-0.9362769,0.13738978500000001,-1.09872,4.39488,-7.446879999999999,68.0
1774823476.4154854,0.003600597381591797,2026-03-29T22:31:16.415,2026-03-29T18:31:16.415,-22041.0,-43409.655,-77238.72,-48853.979999999996,-9003.105,-16295.175,7718.94,-63192.24,1.851644490989625,-0.5280642458981546,0.5013332493990632,-0.2153485962601693,-1.3734116429700414,-1.8608740467573714,-1.2788318980098565,2.7920596894562686,0.40600482,-0.9362769,0.13738978500000001,-1.09872,4.39488,-7.446879999999999,68.0
1774823476.4154954,1.0013580322265625e-05,2026-03-29T22:31:16.415,2026-03-29T18:31:16.415,-22043.295,-43409.564999999995,-77240.34,-48856.59,-9008.145,-16299.63,7717.7699999999995,-63197.009999999995,-0.5712500419147831,-0.2947089895037525,1.2544548295008002,2.4283340563953324,0.7905972978323004,-0.14961510681807924,-0.42238840444676534,-0.08647025863212203,0.40600482,-0.9362769,0.13738978500000001,-1.09872,4.39488,-7.446879999999999,68.0
1774823476.4199357,0.0044403076171875,2026-03-29T22:31:16.419,2026-03-29T18:31:16.419,-22041.719999999998,-43408.53,-77238.765,-48854.34,-9006.615,-16299.63,7715.5199999999995,-63195.93,-2.7180877673212422,0.2950872161394477,1.6316292182339331,4.0817129151010185,2.74938840845966,1.8092991256919984,0.7220762489319074,-3.027902865792612,0.40600482,-0.9362769,0.13738978500000001,-1.09872,4.39488,-7.446879999999999,68.0
1774823476.4199567,2.09808349609375e-05,2026-03-29T22:31:16.419,2026-03-29T18:31:16.419,-22039.739999999998,-43407.045,-77237.595,-48853.575,-9005.265,-16299.269999999999,7714.62,-63195.795,-3.6824760655800697,1.004648515578363,1.401144116944616,3.8829374637460377,3.619244727463206,3.208280381433827,1.710644093051769,-4.828895401595196,0.40600482,-0.9362769,0.13738978500000001,-1.09872,4.39488,-7.446879999999999,68.0
1774823476.4246373,0.004680633544921875,2026-03-29T22:31:16.424,2026-03-29T18:31:16.424,-22040.055,-43407.765,-77239.215,-48856.77,-9008.19,-16299.99,7713.855,-63196.515,-3.0746142131655367,1.4223976941262544,0.5466033916028329,1.8128382408231505,2.9356132284097862,3.3711576511870307,2.0897452771998815,-4.697479193892569,0.40600482,-0.9362769,0.13738978500000001,-1.09872,4.39488,-7.446879999999999,68.0
1774823476.424654,1.6689300537109375e-05,2026-03-29T22:31:16.424,2026-03-29T18:31:16.424,-22043.204999999998,-43411.77,-77242.31999999999,-48858.299999999996,-9009.855,-16303.68,7709.535,-63199.619999999995,-1.1775173766886924,1.1924086417941784,-0.6703222321903962,-1.2491543321917888,0.8959460605301364,2.0805163498593044,1.606782990463092,-2.6038826155806976,0.40600482,-0.9362769,0.13738978500000001,-1.09872,4.39488,-7.446879999999999,68.0
1774823476.427842,0.003187894821166992,2026-03-29T22:31:16.427,2026-03-29T18:31:16.427,-22042.079999999998,-43411.14,-77241.23999999999,-48857.265,-9007.74,-16302.869999999999,7709.8949999999995,-63199.305,1.1850932143292097,0.2563334527741943,-1.771194791827548,-3.899683842281955,-1.6767088507533918,-0.2546192183093152,0.3646320483888993,0.6625396781729249,0.40600482,-0.9362769,0.13738978500000001,-1.09872,4.39488,-7.446879999999999,68.0
1774823476.42786,1.811981201171875e-05,2026-03-29T22:31:16.427,2026-03-29T18:31:16.427,-22038.66,-43407.494999999995,-77237.50499999999,-48853.439999999995,-9003.645,-16298.64,7712.6849999999995,-63196.29,3.007338718088998,-1.0426781509696383,-2.245149237419263,-4.856714030837012,-3.6584007368845963,-2.700629110530198,-1.1700375566716734,3.7774591451275468,0.40600482,-0.9362769,0.13738978500000001,-1.09872,4.39488,-7.446879999999999,68.0
1774823476.4324424,0.004582405090332031,2026-03-29T22:31:16.432,2026-03-29T18:31:16.432,-22039.965,-43409.384999999995,-77239.26,-48854.43,-9005.31,-16300.305,7710.66,-63197.145,3.5297860326349912,-2.078821787168064,-1.7874826298508948,-3.577678155261715,-4.113599572213526,-4.164965805827002,-2.3349158887446992,5.412698030501611,0.404478945,-0.9348120600000001,0.142028445,0.9156,4.7306,-8.33196,68.0
1774823476.4324691,2.6702880859375e-05,2026-03-29T22:31:16.432,2026-03-29T18:31:16.432,-22038.344999999998,-43407.045,-77236.2,-48851.369999999995,-9003.15,-16297.875,7711.514999999999,-63193.994999999995,2.555547358110427,-2.248310702864214,-0.4802288020260281,-0.5530013620263565,-2.7372026206498723,-3.887005971179,-2.5604804650763993,4.804909216102309,0.404478945,-0.9348120600000001,0.142028445,0.9156,4.7306,-8.33196,68.0
1774823476.4381876,0.0057184696197509766,2026-03-29T22:31:16.438,2026-03-29T18:31:16.438,-22039.065,-43406.865,-77236.11,-48850.424999999996,-9002.88,-16298.234999999999,7710.66,-63194.354999999996,0.5227623126930205,-1.3100034671610903,1.1877699329369622,2.879286615030863,-0.04011419671709651,-1.8322840424296702,-1.6519931467396383,2.1174775713721874,0.404478945,-0.9348120600000001,0.142028445,0.9156,4.7306,-8.33196,68.0
1774823476.4382043,1.6689300537109375e-05,2026-03-29T22:31:16.438,2026-03-29T18:31:16.438,-22041.315,-43408.845,-77238.94499999999,-48853.215,-9006.3,-16301.609999999999,7708.86,-63197.954999999994,-1.6921666601875027,0.42637316449441254,2.497280181318417,5.129292067197056,2.8287742712592228,1.2140600491282212,0.0760189545941527,-1.5783530628401852,0.404478945,-0.9348120600000001,0.142028445,0.9156,4.7306,-8.33196,68.0
1774823476.4416773,0.003473043441772461,2026-03-29T22:31:16.441,2026-03-29T18:31:16.441,-22039.245,-43407.494999999995,-77237.81999999999,-48852.045,-9005.85,-16301.43,7708.679999999999,-63196.695,-3.1523178708259305,2.188412944046874,2.8117815213416124,5.09443156284118,4.569434548993172,3.9353997151695377,1.8970890263603335,-4.722082648744787,0.404478945,-0.9348120600000001,0.142028445,0.9156,4.7306,-8.33196,68.0
1774823476.4416988,2.1457672119140625e-05,2026-03-29T22:31:16.441,2026-03-29T18:31:16.441,-22037.04,-43404.345,-77232.33,-48848.354999999996,-9005.085,-16300.17,7708.1849999999995,-63192.915,-3.2563731928870787,3.089745599000062,1.8895119458579583,2.6970749315640457,4.321703876316424,5.054814382293446,2.979343980824285,-5.923739930971415,0.404478945,-0.9348120600000001,0.142028445,0.9156,4.7306,-8.33196,68.0
1774823476.4439752,0.0022764205932617188,2026-03-29T22:31:16.443,2026-03-29T18:31:16.443,-22037.715,-43406.595,-77234.76,-48848.58,-9006.615,-16302.869999999999,7706.34,-63194.265,-1.9860056754466189,2.579324914561376,0.04004052295048256,-1.04073965406838,2.090894574874281,3.9406992754544676,2.771555626614758,-4.585823145901617,0.404478945,-0.9348120600000001,0.142028445,0.9156,4.7306,-8.33196,68.0
1774823476.4440165,4.124641418457031e-05,2026-03-29T22:31:16.444,2026-03-29T18:31:16.444,-22036.14,-43405.875,-77234.355,-48846.284999999996,-9006.39,-16303.14,7704.8099999999995,-63193.095,0.09689038981919794,0.761847755977376,-1.968574669779993,-4.4364454034006755,-1.2030689818263414,0.9565490039967899,1.2868747460018306,-1.2057575534132985,0.404478945,-0.9348120600000001,0.142028445,0.9156,4.7306,-8.33196,68.0
1774823476.4481623,0.00414586067199707,2026-03-29T22:31:16.448,2026-03-29T18:31:16.448,-22034.204999999998,-43408.08,-77240.34,-48851.369999999995,-9010.664999999999,-16307.595,7702.0199999999995,-63190.395,2.0975589930967726,-1.5916258185276,-3.2313948767470477,-5.909794008289754,-4.100592888325411,-2.636401078759858,-0.8629077228890997,2.7963170257662004,0.404478945,-0.9348120600000001,0.142028445,0.9156,4.7306,-8.33196,68.0
1774823476.4481788,1.6450881958007812e-05,2026-03-29T22:31:16.448,2026-03-29T18:31:16.448,-22029.344999999998,-43408.71,-77234.44499999999,-48841.83,-9009.765,-16312.275,7695.585,-63185.939999999995,3.1720108026658793,-3.374931604685174,-3.1210912388250938,-4.721141343834541,-5.251316560480901,-5.212301764488532,-2.71832031439299,5.672744795052681,0.404478945,-0.9348120600000001,0.142028445,0.9156,4.7306,-8.33196,68.0
1774823476.4554043,0.007225513458251953,2026-03-29T22:31:16.455,2026-03-29T18:31:16.455,-22020.704999999998,-43416.9,-77239.53,-48840.21,-9014.4,-16319.835,7688.565,-63169.244999999995,2.8829994994594403,-3.675511290601988,-1.6021464455762007,-1.3388442748502491,-4.047598497795693,-5.524466315289794,-3.406254963104559,6.1181859939241,0.399840285,-0.93090582,0.14660607,3.31142,4.5017,-8.95762,68.0
1774823476.4554265,2.2172927856445312e-05,2026-03-29T22:31:16.455,2026-03-29T18:31:16.455,-22025.879999999997,-43424.909999999996,-77244.75,-48842.189999999995,-9011.699999999999,-16316.955,7688.5199999999995,-63169.02,1.3785068473079665,-2.24365850501276,0.7140826748795476,2.745481123454429,-0.9433629461490807,-3.315749068582783,-2.5581196612068737,3.8719645074681743,0.399840285,-0.93090582,0.14660607,3.31142,4.5017,-8.95762,68.0
1774823476.4554448,1.8358230590820312e-05,2026-03-29T22:31:16.455,2026-03-29T18:31:16.455,-22040.055,-43425.36,-77244.39,-48832.92,-8999.82,-16307.144999999999,7691.3099999999995,-63184.5,-0.6802174919722493,0.34028502509699815,2.816879619593201,5.680970699201439,2.7084242277478228,0.5065162514568128,-0.5086821527775724,-0.12953604556960788,0.399840285,-0.93090582,0.14660607,3.31142,4.5017,-8.95762,68.0
1774823476.4554517,6.9141387939453125e-06,2026-03-29T22:31:16.455,2026-03-29T18:31:16.455,-22051.035,-43416.63,-77260.095,-48839.13,-8989.109999999999,-16289.055,7701.705,-63207.36,-2.407345822386949,2.902934673447683,3.745496923619292,6.102501532749548,5.246834180154862,4.2401311342256705,1.8319454731492844,-4.138749158674041,0.399840285,-0.93090582,0.14660607,3.31142,4.5017,-8.95762,68.0
1774823476.460146,0.004694223403930664,2026-03-29T22:31:16.460,2026-03-29T18:31:16.460,-22048.695,-43386.795,-77230.53,-48838.545,-8975.295,-16266.869999999999,7721.955,-63222.84,-3.0728466539688664,4.221305671907108,3.036526210053389,3.7681234266725947,5.463915455161,6.153548575072292,3.3866858912608286,-6.364630855162484,0.399840285,-0.93090582,0.14660607,3.31142,4.5017,-8.95762,68.0
1774823476.4601717,2.574920654296875e-05,2026-03-29T22:31:16.460,2026-03-29T18:31:16.460,-22037.535,-43387.74,-77234.535,-48867.84,-9000.765,-16284.24,7721.235,-63207.09,-2.411825371418308,3.61584775149754,0.9568371966639105,-0.3099648735707454,3.1842805117194963,5.299513502946683,3.4150856992159953,-5.782931045797654,0.399840285,-0.93090582,0.14660607,3.31142,4.5017,-8.95762,68.0
1774823476.4654365,0.005264759063720703,2026-03-29T22:31:16.465,2026-03-29T18:31:16.465,-22038.795,-43403.22,-77246.955,-48880.755,-9013.365,-16297.965,7714.53,-63202.994999999995,-0.7316482622266217,1.3009863032982605,-1.5961777730534048,-4.309396911555688,-0.6170588048281545,1.9895818357212864,1.8731226643083259,-2.617792974246387,0.399840285,-0.93090582,0.14660607,3.31142,4.5017,-8.95762,68.0
1774823476.4654567,2.0265579223632812e-05,2026-03-29T22:31:16.465,2026-03-29T18:31:16.465,-22033.575,-43403.22,-77239.75499999999,-48882.015,-9015.525,-16301.34,7716.509999999999,-63197.369999999995,1.2272374137070101,-1.6881542669248404,-3.490379151791519,-6.419626567543372,-4.231417941378482,-2.310606552776883,-0.5486086071401269,1.7362911062834272,0.399840285,-0.93090582,0.14660607,3.31142,4.5017,-8.95762,68.0
1774823476.467846,0.002389192581176758,2026-03-29T22:31:16.467,2026-03-29T18:31:16.467,-22035.285,-43408.845,-77241.87,-48878.145,-9021.15,-16307.82,7709.94,-63197.595,2.615308354522365,-3.9692288362581922,-3.87206539377818,-5.667848377840231,-5.990009203534131,-5.635750117991153,-2.735885161699757,5.3301461573831235,0.399840285,-0.93090582,0.14660607,3.31142,4.5017,-8.95762,68.0
1774823476.467874,2.8133392333984375e-05,2026-03-29T22:31:16.467,2026-03-29T18:31:16.467,-22034.835,-43402.005,-77218.73999999999,-48843.72,-9006.885,-16301.115,7709.355,-63195.704999999994,2.842234864252575,-4.464597212646561,-2.5585040472197584,-2.3693301051012234,-5.04159284238593,-6.430253955669791,-3.670184501260744,6.540822889209204,0.399840285,-0.93090582,0.14660607,3.31142,4.5017,-8.95762,68.0
1774823476.4757967,0.007922649383544922,2026-03-29T22:31:16.475,2026-03-29T18:31:16.475,-22040.145,-43399.89,-77210.145,-48830.445,-8994.24,-16293.599999999999,7714.62,-63205.29,1.8301092511290822,-2.9181268953268793,-0.12532172221145624,2.0072042807126462,-1.7684590108248253,-4.286559720499922,-2.911295179039657,4.815777972449682,0.39465231,-0.9232764450000001,0.15039024,0.0,3.11304,-6.80596,68.0
1774823476.4758127,1.5974044799804688e-05,2026-03-29T22:31:16.475,2026-03-29T18:31:16.475,-22040.1,-43403.895,-77222.87999999999,-48846.015,-9000.99,-16296.21,7716.599999999999,-63204.57,0.04220687969501595,-0.02521063493067139,2.353448248630252,5.5005997978701116,2.3643900133968017,-0.15719434413319544,-0.8109229670924802,0.9339846098039373,0.39465231,-0.9232764450000001,0.15039024,0.0,3.11304,-6.80596,68.0
1774823476.4769957,0.0011830329895019531,2026-03-29T22:31:16.476,2026-03-29T18:31:16.476,-22036.77,-43402.994999999995,-77225.76,-48846.689999999995,-8999.279999999999,-16294.68,7716.735,-63200.34,-1.7247166425545366,2.8893407070508283,3.791816226287539,6.544190378806513,5.469358128445232,4.070872935381883,1.6488684967944407,-3.3432546930301226,0.39465231,-0.9232764450000001,0.15039024,0.0,3.11304,-6.80596,68.0
1774823476.4770093,1.3589859008789062e-05,2026-03-29T22:31:16.477,2026-03-29T18:31:16.477,-22033.62,-43401.33,-77225.94,-48846.645,-9000.09,-16297.785,7711.11,-63198.585,-2.6934132719506256,4.491845745418984,3.5785532808391673,4.67403168531965,6.106252946204438,6.448245912722983,3.3186888109178216,-6.076355323682921,0.39465231,-0.9232764450000001,0.15039024,0.0,3.11304,-6.80596,68.0
1774823476.4798734,0.0028641223907470703,2026-03-29T22:31:16.479,2026-03-29T18:31:16.479,-22033.395,-43402.77,-77229.0,-48848.895,-9002.385,-16299.045,7710.66,-63198.314999999995,-2.4491731698712256,4.061417075554498,1.8405127302625723,0.7358352254105073,3.9575343955845685,5.87397658712038,3.4262166179898235,-6.0369759582169245,0.39465231,-0.9232764450000001,0.15039024,0.0,3.11304,-6.80596,68.0
1774823476.4799008,2.7418136596679688e-05,2026-03-29T22:31:16.479,2026-03-29T18:31:16.479,-22034.745,-43406.189999999995,-77231.295,-48851.505,-9005.94,-16302.195,7708.32,-63196.515,-1.1212360027356545,1.8173609416643657,-0.6330347660802387,-3.502039039227778,-0.011142028402553695,2.614149057546428,1.9409226534992843,-3.2705117594167827,0.39465231,-0.9232764450000001,0.15039024,0.0,3.11304,-6.80596,68.0
1774823476.48367,0.0037691593170166016,2026-03-29T22:31:16.483,2026-03-29T18:31:16.483,-22032.18,-43407.945,-77237.19,-48856.005,-9008.82,-16305.119999999999,7706.655,-63193.545,0.6784480754738031,-1.1980656447601807,-2.7605934976906763,-6.150576562805693,-3.98721896876981,-1.8200193549138557,-0.4162883873340765,0.9307107605636069,0.39465231,-0.9232764450000001,0.15039024,0.0,3.11304,-6.80596,68.0
1774823476.4836996,2.956390380859375e-05,2026-03-29T22:31:16.483,2026-03-29T18:31:16.483,-22026.285,-43406.865,-77241.825,-48861.854999999996,-9012.69,-16310.43,7703.865,-63187.875,2.132625640487056,-3.616948520427561,-3.654255706161829,-6.0500388061086054,-6.146261715570351,-5.379285422609824,-2.5226310882897702,4.631216856660047,0.39465231,-0.9232764450000001,0.15039024,0.0,3.11304,-6.80596,68.0
1774823476.4881766,0.004477024078369141,2026-03-29T22:31:16.488,2026-03-29T18:31:16.488,-22026.149999999998,-43407.27,-77241.15,-48861.765,-9012.105,-16311.105,7701.344999999999,-63186.479999999996,2.588658155771339,-4.379650973418933,-2.996515199328571,-3.282049139024923,-5.497750310225033,-6.434792417586672,-3.3925979522458993,6.150762695923548,0.39465231,-0.9232764450000001,0.15039024,0.0,3.11304,-6.80596,68.0
1774823476.488197,2.0503997802734375e-05,2026-03-29T22:31:16.488,2026-03-29T18:31:16.488,-22027.364999999998,-43403.49,-77233.41,-48853.395,-9003.914999999999,-16305.029999999999,7702.605,-63191.52,1.854227461697142,-3.2050685124837686,-1.1446620674876717,0.8841636625560659,-2.345566756425567,-4.534358046677626,-2.645875750952811,4.837177944367836,0.39465231,-0.9232764450000001,0.15039024,0.0,3.11304,-6.80596,68.0
1774823476.4918935,0.003696441650390625,2026-03-29T22:31:16.491,2026-03-29T18:31:16.491,-22022.594999999998,-43397.775,-77227.92,-48849.03,-9001.395,-16303.32,7704.179999999999,-63185.13,0.283757393610166,-0.6853668357761775,1.0666729579070637,4.579251626721662,1.8537167208605307,-0.6005619810930035,-0.6789969257531845,1.3537268145223846,0.39166159500000003,-0.921445395,0.15478476,0.07629999999999999,3.4335,-6.50076,68.0
1774823476.4919152,2.1696090698242188e-05,2026-03-29T22:31:16.491,2026-03-29T18:31:16.491,-22041.135,-43390.665,-77208.075,-48828.284999999996,-8980.965,-16282.935,7713.855,-63219.78,-1.3857723942469018,2.0211159868254227,2.7150418292840093,6.180866810080055,5.169019251066677,3.5182375024765697,1.5390737764426112,-2.6491383004797684,0.39166159500000003,-0.921445395,0.15478476,0.07629999999999999,3.4335,-6.50076,68.0
1774823476.5032492,0.011333942413330078,2026-03-29T22:31:16.503,2026-03-29T18:31:16.503,-22035.78,-43385.22,-77203.665,-48825.63,-8980.695,-16283.564999999999,7712.91,-63218.07,-2.3764010066077725,3.736188294555544,3.183793022646871,5.033049348172543,6.091359883784814,5.924791350403488,2.94395363812609,-5.317429333704843,0.39166159500000003,-0.921445395,0.15478476,0.07629999999999999,3.4335,-6.50076,68.0
1774823476.503266,1.6927719116210938e-05,2026-03-29T22:31:16.503,2026-03-29T18:31:16.503,-22038.3,-43400.115,-77220.36,-48836.07,-8989.515,-16291.439999999999,7707.554999999999,-63211.095,-2.231732815269621,3.7831540747408687,2.3870705323604104,1.7158021525274634,4.228707249309825,5.557915747657517,2.8905358918797983,-5.459585795702235,0.39166159500000003,-0.921445395,0.15478476,0.07629999999999999,3.4335,-6.50076,68.0
1774823476.5032866,2.0503997802734375e-05,2026-03-29T22:31:16.503,2026-03-29T18:31:16.503,-22041.855,-43413.659999999996,-77234.67,-48842.82,-8995.365,-16295.22,7706.205,-63209.384999999995,-1.031571938904367,2.2481846100771836,0.7470267870330112,-2.2464266411829694,0.4754073898650087,2.667760801782108,1.4548347596716196,-3.0869487070357335,0.39166159500000003,-0.921445395,0.15478476,0.07629999999999999,3.4335,-6.50076,68.0
1774823476.5032916,5.0067901611328125e-06,2026-03-29T22:31:16.503,2026-03-29T18:31:16.503,-22042.44,-43421.13,-77247.9,-48849.705,-8998.56,-16300.305,7705.889999999999,-63207.72,0.6441257481240663,-0.11601738321607968,-1.036052571632786,-5.091633967902075,-3.418503028251595,-1.3348549819417683,-0.6205159216620857,0.620213352206698,0.39166159500000003,-0.921445395,0.15478476,0.07629999999999999,3.4335,-6.50076,68.0
1774823476.5050795,0.0017879009246826172,2026-03-29T22:31:16.505,2026-03-29T18:31:16.505,-22038.614999999998,-43416.63,-77244.39,-48848.759999999995,-8996.4,-16300.529999999999,7708.95,-63202.32,1.988693752846759,-2.2700641814644835,-2.2936864741550984,-5.61224728355679,-5.670150603031987,-4.569860192524607,-2.304480908650684,3.894872170470471,0.39166159500000003,-0.921445395,0.15478476,0.07629999999999999,3.4335,-6.50076,68.0
1774823476.5050929,1.33514404296875e-05,2026-03-29T22:31:16.505,2026-03-29T18:31:16.505,-22038.704999999998,-43413.705,-77240.97,-48851.82,-8999.73,-16301.97,7712.505,-63201.555,2.353485430766321,-3.3550474171575275,-2.636487412217771,-3.6726297890118182,-5.288900252621824,-5.57990678321621,-2.7888428400675,5.228067721079328,0.39166159500000003,-0.921445395,0.15478476,0.07629999999999999,3.4335,-6.50076,68.0
1774823476.5080595,0.002966642379760742,2026-03-29T22:31:16.508,2026-03-29T18:31:16.508,-22045.05,-43412.22,-77238.18,-48854.205,-9002.565,-16301.34,7715.384999999999,-63212.13,1.5618647503913439,-3.031986532860126,-2.0488008397145587,-0.22798451086093618,-2.5178426121670876,-3.995747103833527,-1.8792128988003691,4.07111873793975,0.39166159500000003,-0.921445395,0.15478476,0.07629999999999999,3.4335,-6.50076,68.0
1774823476.5080895,3.0040740966796875e-05,2026-03-29T22:31:16.508,2026-03-29T18:31:16.508,-22039.245,-43406.28,-77232.23999999999,-48861.045,-9008.279999999999,-16304.175,7713.54,-63207.09,-1.3359209817748498e-05,-1.561115014246232,-0.8255336441450165,3.145859348176714,1.3077863998438823,-0.6672036559566895,-0.07550515611748333,1.0652917182784607,0.39166159500000003,-0.921445395,0.15478476,0.07629999999999999,3.4335,-6.50076,68.0
1774823476.5139112,0.005821704864501953,2026-03-29T22:31:16.513,2026-03-29T18:31:16.513,-22035.015,-43403.715,-77229.045,-48857.22,-9002.654999999999,-16301.025,7712.28,-63202.86,-1.5643094637220931,0.3781497951446965,0.5845143526250114,4.9806206147544545,4.4069832089413925,2.784540288606336,1.6925089946786422,-2.2992297034691074,0.393370575,-0.9195533100000001,0.15685995,-1.9990599999999998,3.52506,-4.51696,68.0
1774823476.5139327,2.1457672119140625e-05,2026-03-29T22:31:16.513,2026-03-29T18:31:16.513,-22040.864999999998,-43408.755,-77232.015,-48847.185,-8996.76,-16296.57,7715.295,-63208.079999999994,-2.3526044873190077,2.0112810556017138,1.742468299731971,4.562263575233008,5.389970913277858,4.760337628026311,2.537904599153291,-4.418498782999741,0.393370575,-0.9195533100000001,0.15685995,-1.9990599999999998,3.52506,-4.51696,68.0
1774823476.517412,0.0034792423248291016,2026-03-29T22:31:16.517,2026-03-29T18:31:16.517,-22038.704999999998,-43407.854999999996,-77229.45,-48844.08,-8996.58,-16296.75,7714.035,-63207.09,-1.9601473933274973,2.777523547895186,2.3305178829329085,2.2078901465400587,3.8889690735118,4.432145377943514,2.0594796242595867,-4.342544192743568,0.393370575,-0.9195533100000001,0.15685995,-1.9990599999999998,3.52506,-4.51696,68.0
1774823476.517435,2.3126602172851562e-05,2026-03-29T22:31:16.517,2026-03-29T18:31:16.517,-22038.254999999997,-43408.439999999995,-77234.94,-48849.03,-8999.414999999999,-16298.01,7710.75,-63207.854999999996,-0.5646523710894237,2.5006572668899554,2.1991936053840027,-0.934287498581342,0.6929187468942707,2.093227328831654,0.5344644189215261,-2.206646857753227,0.393370575,-0.9195533100000001,0.15685995,-1.9990599999999998,3.52506,-4.51696,68.0
1774823476.5201097,0.002674579620361328,2026-03-29T22:31:16.520,2026-03-29T18:31:16.520,-22038.614999999998,-43408.89,-77238.58499999999,-48853.395,-8999.369999999999,-16297.47,7710.075,-63208.845,1.1485145909175931,1.3838002730907137,1.375469466099054,-3.4463574721539807,-2.6618446639211024,-1.0401572498573417,-1.2322244952138486,0.87225883306333,0.393370575,-0.9195533100000001,0.15685995,-1.9990599999999998,3.52506,-4.51696,68.0
1774823476.5201418,3.218650817871094e-05,2026-03-29T22:31:16.520,2026-03-29T18:31:16.520,-22039.11,-43409.744999999995,-77239.8,-48864.465,-9003.465,-16299.99,7708.41,-63207.27,2.3162666380732904,-0.12650774511213214,0.0586682706941555,-4.288647081493215,-4.634687975956873,-3.4556665213880478,-2.3230793643022523,3.369338173157223,0.393370575,-0.9195533100000001,0.15685995,-1.9990599999999998,3.52506,-4.51696,68.0
1774823476.5238266,0.0036847591400146484,2026-03-29T22:31:16.523,2026-03-29T18:31:16.523,-22034.745,-43407.99,-77240.06999999999,-48874.5,-9010.484999999999,-16304.4,7709.04,-63205.424999999996,2.326726058093418,-1.521014903943592,-1.39467647727226,-3.234604446437588,-4.3961691763049755,-4.07925785933564,-2.176619303076676,4.104715087404212,0.393370575,-0.9195533100000001,0.15685995,-1.9990599999999998,3.52506,-4.51696,68.0
1774823476.5238447,1.811981201171875e-05,2026-03-29T22:31:16.523,2026-03-29T18:31:16.523,-22031.774999999998,-43405.02,-77232.23999999999,-48858.299999999996,-9006.48,-16303.724999999999,7710.075,-63202.454999999994,1.136094747915027,-2.378929889536661,-2.5232627110944965,-0.9083004179919538,-2.1800091979357594,-2.7584544391711616,-0.8729966776113172,2.804351748965594,0.393370575,-0.9195533100000001,0.15685995,-1.9990599999999998,3.52506,-4.51696,68.0
1774823476.5352414,0.011396646499633789,2026-03-29T22:31:16.535,2026-03-29T18:31:16.535,-22028.895,-43406.415,-77235.885,-48859.29,-9010.529999999999,-16307.91,7706.205,-63198.765,-0.6894689458705322,-2.458033816193239,-2.877644890514121,1.56513142078718,0.8795687680259645,-0.27440857196907154,0.9072743848734769,0.20058079343189503,0.393370575,-0.9195533100000001,0.15685995,-1.9990599999999998,3.52506,-4.51696,68.0
1774823476.5352793,3.790855407714844e-05,2026-03-29T22:31:16.535,2026-03-29T18:31:16.535,-22022.64,-43409.34,-77245.065,-48868.064999999995,-9017.01,-16313.805,7704.585,-63192.329999999994,-2.238347761771622,-1.7317226310510714,-2.1923466531156772,3.1072194446922574,3.3256454691599924,2.097400250796751,2.230796005059197,-2.3641092960529635,0.393370575,-0.9195533100000001,0.15685995,-1.9990599999999998,3.52506,-4.51696,68.0
1774823476.535339,5.984306335449219e-05,2026-03-29T22:31:16.535,2026-03-29T18:31:16.535,-22018.364999999998,-43412.49,-77250.33,-48874.455,-9023.13,-16319.07,7704.8099999999995,-63185.85,-2.7029884052403252,-0.39273227167612873,-0.5516299906777671,3.1640898259253865,4.0783156603973465,3.238430285286488,2.3900437429125048,-3.6213542601475837,0.395567835,-0.92016366,0.16052205,-0.8698199999999999,4.53222,-4.91372,68.0
1774823476.5353603,2.1219253540039062e-05,2026-03-29T22:31:16.535,2026-03-29T18:31:16.535,-22014.36,-43410.915,-77248.53,-48874.59,-9024.21,-16318.755,7705.349999999999,-63178.47,-1.7949243621996647,1.172457411214415,1.546356987566608,1.89914878191062,2.9176578594377527,2.7190858070490327,1.2714979451943644,-3.0033115842176357,0.395567835,-0.92016366,0.16052205,-0.8698199999999999,4.53222,-4.91372,68.0
1774823476.5353937,3.337860107421875e-05,2026-03-29T22:31:16.535,2026-03-29T18:31:16.535,-22041.719999999998,-43403.265,-77218.29,-48840.479999999996,-8993.565,-16289.055,7710.03,-63216.945,0.08604296573137335,2.4555826656291955,3.303441669955811,0.03637989678344366,0.5309278207935775,0.9563968036689713,-0.5747761931208207,-0.9018060635668801,0.395567835,-0.92016366,0.16052205,-0.8698199999999999,4.53222,-4.91372,68.0
1774823476.535421,2.7179718017578125e-05,2026-03-29T22:31:16.535,2026-03-29T18:31:16.535,-22042.35,-43397.955,-77205.105,-48828.104999999996,-8987.67,-16285.904999999999,7707.735,-63221.625,2.0246690579782776,2.961656953318623,3.9138021279891237,-1.5385217368832684,-1.8746562548811285,-1.0583614271909234,-2.2034484275311064,1.559640860715007,0.395567835,-0.92016366,0.16052205,-0.8698199999999999,4.53222,-4.91372,68.0
1774823476.5404632,0.005042314529418945,2026-03-29T22:31:16.540,2026-03-29T18:31:16.540,-22034.52,-43404.39,-77214.555,-48836.295,-8998.875,-16299.0,7699.59,-63210.509999999995,3.0324235695969306,2.3919042772888055,2.9344718704394666,-2.205064504911086,-3.182255856461944,-2.2999642796229045,-2.749789224272853,3.1149360896277636,0.395567835,-0.92016366,0.16052205,-0.8698199999999999,4.53222,-4.91372,68.0
1774823476.5404859,2.2649765014648438e-05,2026-03-29T22:31:16.540,2026-03-29T18:31:16.540,-22027.364999999998,-43407.63,-77224.995,-48844.034999999996,-9004.635,-16305.255,7698.195,-63202.365,2.546744867671913,0.8117037575194854,0.5630387432884607,-1.8547064644112468,-2.8904360692576714,-2.229059236207482,-1.8762900879388382,3.0011100805478685,0.395567835,-0.92016366,0.16052205,-0.8698199999999999,4.53222,-4.91372,68.0
1774823476.5444164,0.003930568695068359,2026-03-29T22:31:16.544,2026-03-29T18:31:16.544,-22027.454999999998,-43415.775,-77239.75499999999,-48842.28,-8999.82,-16301.07,7698.87,-63197.909999999996,0.7368344265249154,-1.2882737437978697,-2.3397391606107902,-0.8576680644403466,-1.303071458692315,-1.0285626375424943,0.03628145974002454,1.3331665309523113,0.395567835,-0.92016366,0.16052205,-0.8698199999999999,4.53222,-4.91372,68.0
1774823476.5444393,2.288818359375e-05,2026-03-29T22:31:16.544,2026-03-29T18:31:16.544,-22054.68,-43428.735,-77257.395,-48835.259999999995,-8984.97,-16285.23,7707.014999999999,-63226.439999999995,-1.547665271962668,-3.109112170456011,-4.544846948734408,0.20008927959981468,0.6868158354972441,0.5480672918990112,2.056110191392894,-0.9767875687337129,0.395567835,-0.92016366,0.16052205,-0.8698199999999999,4.53222,-4.91372,68.0
1774823476.5479114,0.0034720897674560547,2026-03-29T22:31:16.547,2026-03-29T18:31:16.547,-22061.204999999998,-43433.28,-77260.095,-48840.345,-8978.984999999999,-16277.265,7715.5199999999995,-63232.515,-3.1750717356306803,-3.8360276162278337,-4.976966258865063,0.8473321330906001,2.0852349999746367,1.6162066811666966,3.151594530591367,-2.7068023388586355,0.395567835,-0.92016366,0.16052205,-0.8698199999999999,4.53222,-4.91372,68.0
1774823476.5479245,1.3113021850585938e-05,2026-03-29T22:31:16.547,2026-03-29T18:31:16.547,-22050.495,-43430.265,-77263.29,-48856.86,-8990.234999999999,-16288.92,7711.065,-63219.375,-3.2908422225237675,-3.0059193281158927,-3.2410941999392504,0.9440731266979648,2.295814611136843,1.6417148070916092,2.7088712522630063,-2.9629751546668683,0.395567835,-0.92016366,0.16052205,-0.8698199999999999,4.53222,-4.91372,68.0
1774823476.552245,0.004320383071899414,2026-03-29T22:31:16.552,2026-03-29T18:31:16.552,-22042.62,-43414.83,-77241.465,-48863.97,-8999.145,-16296.57,7706.745,-63214.92,-1.7616998597626095,-0.782751269923652,0.10536352534429085,0.6814332596014302,1.3778226485167737,0.7078282256490014,0.8592383901339818,-1.638180886083066,0.3967275,-0.91283946,0.1611324,-0.47306,4.68482,-2.57894,68.0
1774823476.552286,4.100799560546875e-05,2026-03-29T22:31:16.552,2026-03-29T18:31:16.552,-22031.055,-43404.93,-77225.895,-48868.11,-9008.595,-16303.68,7704.315,-63206.865,0.7247487687105002,2.0167760692115153,3.702756298593625,0.39107042381044205,-0.05000904416817777,-0.5661256086133925,-1.5526346063673808,0.5429133408605763,0.3967275,-0.91283946,0.1611324,-0.47306,4.68482,-2.57894,68.0
1774823476.5561893,0.0039033889770507812,2026-03-29T22:31:16.556,2026-03-29T18:31:16.556,-22024.53,-43404.03,-77227.33499999999,-48856.68,-9008.82,-16303.949999999999,7705.44,-63201.555,2.9698082959704677,4.206976409527138,5.940259019363965,0.29683086764730965,-1.1850334319250964,-1.397226597479301,-3.356169898485739,2.4121300545003264,0.3967275,-0.91283946,0.1611324,-0.47306,4.68482,-2.57894,68.0
1774823476.5562153,2.5987625122070312e-05,2026-03-29T22:31:16.556,2026-03-29T18:31:16.556,-22022.145,-43406.415,-77237.28,-48868.244999999995,-9024.795,-16317.18,7696.3949999999995,-63195.21,3.8435984364053106,4.7376231459946005,5.685381668680307,0.366883732955045,-1.4803913423038324,-1.2904763284784355,-3.619294482657862,2.974857746412002,0.3967275,-0.91283946,0.1611324,-0.47306,4.68482,-2.57894,68.0
1774823476.5602512,0.00403594970703125,2026-03-29T22:31:16.560,2026-03-29T18:31:16.560,-22038.93,-43398.99,-77222.16,-48857.67,-9004.275,-16297.875,7705.844999999999,-63224.415,2.8538071617584553,3.203378261192812,2.857614283724797,0.35695531527330365,-0.9122566523874404,-0.3187341618578808,-2.1188756272197824,1.933489540541805,0.3967275,-0.91283946,0.1611324,-0.47306,4.68482,-2.57894,68.0
1774823476.5602753,2.4080276489257812e-05,2026-03-29T22:31:16.560,2026-03-29T18:31:16.560,-22039.695,-43395.615,-77219.64,-48850.2,-8992.8,-16286.984999999999,7719.389999999999,-63227.024999999994,0.41672527646909785,0.10829055838258773,-1.4448663443664744,0.014454856988317229,0.05766730288402272,0.9222867030156523,0.5162768713552557,-0.15613477643467938,0.3967275,-0.91283946,0.1611324,-0.47306,4.68482,-2.57894,68.0
1774823476.5644443,0.004168987274169922,2026-03-29T22:31:16.564,2026-03-29T18:31:16.564,-22035.149999999998,-43402.229999999996,-77224.86,-48859.515,-9003.779999999999,-16296.705,7718.04,-63218.07,-2.3167237174041655,-3.27482578023748,-5.365237559115737,-0.6902903500667684,0.7861232912845496,1.657804542645071,3.0714168686216423,-2.1775933672287584,0.3967275,-0.91283946,0.1611324,-0.47306,4.68482,-2.57894,68.0
1774823476.564467,2.2649765014648438e-05,2026-03-29T22:31:16.564,2026-03-29T18:31:16.564,-22035.825,-43403.534999999996,-77215.5,-48847.229999999996,-8999.279999999999,-16297.244999999999,7713.45,-63218.43,-4.008504993935147,-5.427589997123967,-7.097843896804619,-1.464133398209217,0.8366425554809277,1.3854418540673814,4.306964729608822,-3.043811090297351,0.3967275,-0.91283946,0.1611324,-0.47306,4.68482,-2.57894,68.0
1774823476.5687735,0.0043065547943115234,2026-03-29T22:31:16.568,2026-03-29T18:31:16.568,-22030.695,-43397.595,-77212.215,-48845.564999999995,-8999.369999999999,-16299.404999999999,7710.795,-63215.729999999996,-3.792720868362614,-5.27706673277508,-5.730574125674731,-1.8089267073240904,0.22978498887861082,0.18192874566899592,3.5548434138382596,-2.2753584638374322,0.3967275,-0.91283946,0.1611324,-0.47306,4.68482,-2.57894,68.0
1774823476.5687904,1.6927719116210938e-05,2026-03-29T22:31:16.568,2026-03-29T18:31:16.568,-22030.02,-43398.18,-77220.62999999999,-48855.689999999995,-9007.47,-16306.064999999999,7706.835,-63215.595,-1.7200122136024472,-2.7355271853299192,-1.7218352933574066,-1.312376785609709,-0.5842161383583913,-1.3113620188636714,1.0649657519316411,-0.2621244120212682,0.3967275,-0.91283946,0.1611324,-0.47306,4.68482,-2.57894,68.0
1774823476.5721333,0.003342866897583008,2026-03-29T22:31:16.572,2026-03-29T18:31:16.572,-22031.055,-43401.015,-77225.58,-48855.33,-9005.085,-16301.205,7706.61,-63214.965,1.2417137301537537,1.1849088437361026,3.236306239610138,0.048651314159900504,-1.0106111426094415,-2.226543645418325,-2.0727941923355058,1.9331971686428444,0.398497515,-0.904233525,0.164977605,-2.5636799999999997,5.82932,-1.63282,68.0
1774823476.572152,1.8596649169921875e-05,2026-03-29T22:31:16.572,2026-03-29T18:31:16.572,-22029.57,-43400.34,-77224.95,-48852.81,-9001.44,-16295.265,7707.0599999999995,-63214.29,3.663081822875572,4.771413931441353,6.938618157984949,1.7834148910018683,-0.6859417779784235,-1.9543269061097142,-4.4091562541516405,3.1317882415547422,0.398497515,-0.904233525,0.164977605,-2.5636799999999997,5.82932,-1.63282,68.0
1774823476.576288,0.004136085510253906,2026-03-29T22:31:16.576,2026-03-29T18:31:16.576,-22026.69,-43397.235,-77222.25,-48848.174999999996,-8997.39,-16292.205,7711.74,-63210.915,4.34977870712302,6.368350790656386,7.661103559122359,3.051169419238005,0.2763746440778948,-0.511894262135538,-4.80492061959639,2.6662112328341445,0.398497515,-0.904233525,0.164977605,-2.5636799999999997,5.82932,-1.63282,68.0
1774823476.576308,2.002716064453125e-05,2026-03-29T22:31:16.576,2026-03-29T18:31:16.576,-22030.965,-43404.975,-77228.86499999999,-48851.369999999995,-8999.414999999999,-16294.859999999999,7710.4349999999995,-63213.57,2.937808028870907,5.154001237789914,4.974569592388252,3.0673111294842257,1.3208764661450045,1.416908259076656,-2.97994827576919,0.7473272105020193,0.398497515,-0.904233525,0.164977605,-2.5636799999999997,5.82932,-1.63282,68.0
1774823476.5802715,0.003963470458984375,2026-03-29T22:31:16.580,2026-03-29T18:31:16.580,-22032.629999999997,-43412.13,-77235.93,-48857.58,-9005.49,-16300.89,7706.5199999999995,-63213.345,0.08816627804230272,1.5659187022861174,-0.011520927922450356,1.5563997517608195,1.7578111593105668,2.8093184192298004,0.3204986524064069,-1.6290318126446515,0.398497515,-0.904233525,0.164977605,-2.5636799999999997,5.82932,-1.63282,68.0
1774823476.5803013,2.9802322387695312e-05,2026-03-29T22:31:16.580,2026-03-29T18:31:16.580,-22028.129999999997,-43409.97,-77232.59999999999,-48855.465,-9007.65,-16302.24,7708.32,-63208.979999999996,-2.8240650483318666,-2.84647683998854,-5.1098224483112915,-0.9988995769450185,1.177791207098276,2.8408707794812855,3.6326482630568186,-3.195779262038361,0.398497515,-0.904233525,0.164977605,-2.5636799999999997,5.82932,-1.63282,68.0
1774823476.6017249,0.0214235782623291,2026-03-29T22:31:16.601,2026-03-29T18:31:16.601,-22028.715,-43411.725,-77231.79,-48846.825,-9005.715,-16304.58,7707.6449999999995,-63209.475,-4.379871391303429,-6.09886032058003,-8.028054623481083,-3.48420611760292,-0.26328344439749407,1.3520236115048019,5.42657248548603,-3.085381984761985,0.398497515,-0.904233525,0.164977605,-2.5636799999999997,5.82932,-1.63282,68.0
1774823476.6017404,1.5497207641601562e-05,2026-03-29T22:31:16.601,2026-03-29T18:31:16.601,-22034.879999999997,-43409.79,-77225.805,-48828.915,-8991.945,-16295.939999999999,7706.5199999999995,-63219.555,-3.8166888041761164,-6.679081816694854,-7.415140742257213,-4.641133485039441,-1.8655433186747792,-1.0123322538880621,4.811811145023364,-1.305082750242585,0.398497515,-0.904233525,0.164977605,-2.5636799999999997,5.82932,-1.63282,68.0
1774823476.6017544,1.4066696166992188e-05,2026-03-29T22:31:16.601,2026-03-29T18:31:16.601,-22045.905,-43415.369999999995,-77232.19499999999,-48822.255,-8985.015,-16291.394999999999,7707.554999999999,-63232.064999999995,-1.4097078549799567,-4.2628259163066335,-3.495923910675585,-3.7026092235497243,-2.7262040322504584,-3.085244300766184,1.9711915497878432,1.24128564759231,0.398497515,-0.904233525,0.164977605,-2.5636799999999997,5.82932,-1.63282,68.0
1774823476.6017597,5.245208740234375e-06,2026-03-29T22:31:16.601,2026-03-29T18:31:16.601,-22039.695,-43410.15,-77227.515,-48824.909999999996,-8986.635,-16290.945,7712.639999999999,-63222.39,1.6598495678387224,0.10672153246100438,2.0080162446302396,-0.8558442550298608,-2.2336451600841913,-3.7569893868872826,-1.8854886260989419,3.2091401694825055,0.398497515,-0.904233525,0.164977605,-2.5636799999999997,5.82932,-1.63282,68.0
1774823476.601766,6.4373016357421875e-06,2026-03-29T22:31:16.601,2026-03-29T18:31:16.601,-22030.379999999997,-43402.185,-77223.69,-48852.63,-9001.17,-16297.695,7708.86,-63212.579999999994,3.888019752271033,4.474237737419946,6.645677336406426,2.732505310021237,-0.44928191551219293,-2.562449768688811,-5.040607616070829,3.518220827850602,0.3991689,-0.8984352,0.170959035,-2.25848,7.43162,-3.69292,68.0
1774823476.6017704,4.291534423828125e-06,2026-03-29T22:31:16.601,2026-03-29T18:31:16.601,-22019.535,-43398.134999999995,-77225.12999999999,-48865.545,-9004.635,-16298.91,7702.83,-63205.92,4.193842705902877,6.861741501122047,8.345060499645463,5.392439686415183,1.846032492889008,0.031662778272639816,-6.036074142876797,1.939541248239738,0.3991689,-0.8984352,0.170959035,-2.25848,7.43162,-3.69292,68.0
1774823476.601776,5.4836273193359375e-06,2026-03-29T22:31:16.601,2026-03-29T18:31:16.601,-22019.76,-43401.869999999995,-77222.43,-48853.17,-9000.945,-16299.269999999999,7697.115,-63206.145,2.4543701752398346,6.1808675411537815,6.353621818637794,5.735465619524874,3.4967811199600014,2.806689697056902,-4.345006021748955,-0.751783915345275,0.3991689,-0.8984352,0.170959035,-2.25848,7.43162,-3.69292,68.0
1774823476.6017804,4.5299530029296875e-06,2026-03-29T22:31:16.601,2026-03-29T18:31:16.601,-22031.055,-43411.814999999995,-77231.47499999999,-48850.965,-8999.82,-16296.57,7693.5599999999995,-63215.28,-0.44028976971512934,2.739456465053382,1.576955630839908,3.376207370609114,3.5551294133495537,4.371122515163641,-0.63916264447758,-3.1536874389538654,0.3991689,-0.8984352,0.170959035,-2.25848,7.43162,-3.69292,68.0
1774823476.6017852,4.76837158203125e-06,2026-03-29T22:31:16.601,2026-03-29T18:31:16.601,-22042.44,-43419.78,-77241.23999999999,-48857.715,-9005.535,-16299.045,7700.715,-63225.18,-3.039856149903316,-1.8983910687709404,-3.839491337520683,-0.7831613162371275,1.8069365226750038,3.8609317908989773,3.4797042688582307,-3.9622549519321617,0.3991689,-0.8984352,0.170959035,-2.25848,7.43162,-3.69292,68.0
1774823476.6017892,4.0531158447265625e-06,2026-03-29T22:31:16.601,2026-03-29T18:31:16.601,-22032.899999999998,-43408.845,-77232.285,-48856.59,-9004.545,-16297.56,7709.264999999999,-63219.645,-4.065598720444522,-5.635141082173327,-7.489781007684498,-4.888156957695642,-1.0442208164584523,1.407649323082653,6.1760955901817445,-2.6720426062605176,0.3991689,-0.8984352,0.170959035,-2.25848,7.43162,-3.69292,68.0
1774823476.6112652,0.009475946426391602,2026-03-29T22:31:16.611,2026-03-29T18:31:16.611,-22032.135,-43410.96,-77238.81,-48865.365,-9011.34,-16302.465,7718.13,-63214.424999999996,-3.0499755948448164,-6.806198135607286,-7.793763666710791,-6.9685545263093855,-3.6594989266723728,-1.8759694926812738,6.200190328411254,0.12121675603381192,0.3991689,-0.8984352,0.170959035,-2.25848,7.43162,-3.69292,68.0
1774823476.6113858,0.00012063980102539062,2026-03-29T22:31:16.611,2026-03-29T18:31:16.611,-22032.629999999997,-43412.85,-77241.105,-48867.57,-9017.369999999999,-16309.529999999999,7715.924999999999,-63211.454999999994,-0.5600250793322924,-4.936407383176588,-4.691604581066554,-5.8948192463756435,-4.700829116893553,-4.407148329374656,3.464004025486899,2.99136738878819,0.3991689,-0.8984352,0.170959035,-2.25848,7.43162,-3.69292,68.0
1774823476.6114142,2.8371810913085938e-05,2026-03-29T22:31:16.611,2026-03-29T18:31:16.611,-22029.614999999998,-43411.86,-77240.06999999999,-48864.195,-9017.46,-16312.23,7708.365,-63207.134999999995,2.106967912542662,-0.9356320681526517,0.36393244490609233,-1.9853877740550183,-3.5150437500851344,-4.903440743522788,-0.8900531979046635,4.405007496553315,0.3991689,-0.8984352,0.170959035,-2.25848,7.43162,-3.69292,68.0
1774823476.6114256,1.1444091796875e-05,2026-03-29T22:31:16.611,2026-03-29T18:31:16.611,-22029.93,-43416.765,-77247.0,-48867.884999999995,-9020.34,-16318.26,7697.295,-63208.305,3.596655002676559,3.348962976964622,5.098392599172162,3.05974373527532,-0.5161808769919963,-3.0341227964703887,-4.969687432726515,3.5322423833776635,0.3991689,-0.8984352,0.170959035,-2.25848,7.43162,-3.69292,68.0
1774823476.6149597,0.003534078598022461,2026-03-29T22:31:16.614,2026-03-29T18:31:16.614,-22023.54,-43415.82,-77250.015,-48870.494999999995,-9024.795,-16323.795,7687.755,-63202.545,3.191650315710435,6.001764564807079,7.456697285887512,6.906360044587171,2.949187157980358,0.3789512328460681,-6.958495998942636,0.7197147931368609,0.398863725,-0.893491365,0.17553666,-4.059159999999999,8.40826,-3.9828599999999996,68.0
1774823476.6149888,2.9087066650390625e-05,2026-03-29T22:31:16.614,2026-03-29T18:31:16.614,-22021.785,-43414.064999999995,-77247.135,-48862.125,-9016.515,-16316.46,7694.37,-63202.5,1.168552480126736,5.912914666311167,6.509722677473726,7.682451916995029,5.215787328179174,3.7269736859879155,-5.925188752668487,-2.6380708742161976,0.398863725,-0.893491365,0.17553666,-4.059159999999999,8.40826,-3.9828599999999996,68.0
1774823476.6161633,0.0011744499206542969,2026-03-29T22:31:16.616,2026-03-29T18:31:16.616,-22017.105,-43412.354999999996,-77258.87999999999,-48854.52,-9007.199999999999,-16303.904999999999,7711.965,-63194.805,-1.3644603661183177,3.2505018206047605,2.8193911199533357,4.9014044136499155,5.108554625021887,5.381696126222447,-2.2555960593503004,-4.7867379942673,0.398863725,-0.893491365,0.17553666,-4.059159999999999,8.40826,-3.9828599999999996,68.0
1774823476.6161752,1.1920928955078125e-05,2026-03-29T22:31:16.616,2026-03-29T18:31:16.616,-22049.864999999998,-43420.005,-77259.735,-48852.09,-8994.914999999999,-16286.984999999999,7724.5199999999995,-63233.82,-3.0613948684825814,-0.6744823110183371,-1.880966066692896,-0.2488351718634956,2.549669586633444,4.494632224795338,2.4912647028345334,-4.5210273670680206,0.398863725,-0.893491365,0.17553666,-4.059159999999999,8.40826,-3.9828599999999996,68.0
1774823476.6203265,0.004151344299316406,2026-03-29T22:31:16.620,2026-03-29T18:31:16.620,-22048.2,-43422.119999999995,-77263.92,-48872.79,-9007.875,-16296.705,7721.775,-63236.52,-3.050376004282499,-4.0619997656190385,-5.514211055257387,-5.417387086445074,-1.3494552078400928,1.432457492145551,6.249157658307144,-1.8465615396666095,0.398863725,-0.893491365,0.17553666,-4.059159999999999,8.40826,-3.9828599999999996,68.0
1774823476.6203551,2.86102294921875e-05,2026-03-29T22:31:16.620,2026-03-29T18:31:16.620,-22031.415,-43420.59,-77258.565,-48874.545,-9009.045,-16302.24,7711.605,-63216.405,-1.3887489196306575,-5.4662702824534986,-6.594015111947057,-8.181111555084945,-4.779043688505812,-2.3750641017751017,7.346539614371283,1.9635380865472254,0.398863725,-0.893491365,0.17553666,-4.059159999999999,8.40826,-3.9828599999999996,68.0
1774823476.625952,0.00559687614440918,2026-03-29T22:31:16.625,2026-03-29T18:31:16.625,-22031.415,-43419.555,-77237.28,-48865.5,-9000.945,-16297.605,7703.28,-63215.82,0.9786393517159058,-4.425363474229239,-4.838056594237565,-7.200484272895688,-6.084019604950182,-5.111405124698516,5.24976596397278,4.973286897210283,0.398863725,-0.893491365,0.17553666,-4.059159999999999,8.40826,-3.9828599999999996,68.0
1774823476.6259809,2.8848648071289062e-05,2026-03-29T22:31:16.625,2026-03-29T18:31:16.625,-22031.46,-43419.465,-77231.34,-48867.299999999996,-9008.64,-16302.869999999999,7704.045,-63214.695,2.7356204446157326,-1.5964454504308059,-1.2039641979535818,-2.8802579525282495,-4.571115891799343,-5.450026293662484,0.817434404830004,5.562892285164054,0.398863725,-0.893491365,0.17553666,-4.059159999999999,8.40826,-3.9828599999999996,68.0
1774823476.6323397,0.0063588619232177734,2026-03-29T22:31:16.632,2026-03-29T18:31:16.632,-22035.059999999998,-43400.07,-77197.86,-48823.47,-8988.029999999999,-16291.98,7704.179999999999,-63227.07,2.910593678347928,1.6330888738951492,2.6269215558756467,2.7962907351201665,-0.8724288385274872,-3.20388419987554,-4.053347995793977,3.2884859855409854,0.398863725,-0.893491365,0.17553666,-4.059159999999999,8.40826,-3.9828599999999996,68.0
1774823476.6323526,1.2874603271484375e-05,2026-03-29T22:31:16.632,2026-03-29T18:31:16.632,-22029.165,-43384.59,-77185.44,-48804.21,-8977.14,-16285.32,7701.344999999999,-63228.78,1.4086359976868865,3.837420507193064,5.042146484276485,7.192983045248137,3.323869020675995,0.5732146556204186,-7.2420088166262016,-0.8294614064377842,0.398863725,-0.893491365,0.17553666,-4.059159999999999,8.40826,-3.9828599999999996,68.0
1774823476.6323676,1.5020370483398438e-05,2026-03-29T22:31:16.632,2026-03-29T18:31:16.632,-22026.149999999998,-43386.119999999995,-77202.72,-48824.865,-8982.359999999999,-16285.455,7705.485,-63225.18,-0.9291883832247398,4.197452854629807,5.186874723695977,8.267581791970148,6.05839555156377,4.087700141093527,-7.329524825643606,-4.763197471981724,0.39874165500000003,-0.893491365,0.177428745,-5.646199999999999,7.1264199999999995,-3.37246,68.0
1774823476.6323743,6.67572021484375e-06,2026-03-29T22:31:16.632,2026-03-29T18:31:16.632,-22026.915,-43394.715,-77211.0,-48834.9,-8991.72,-16292.34,7712.91,-63221.04,-2.7779631395251725,2.799796978847977,3.249436079747142,5.539845162236175,6.029454467415857,5.66854039135844,-4.229384134645976,-6.475791959368724,0.39874165500000003,-0.893491365,0.177428745,-5.646199999999999,7.1264199999999995,-3.37246,68.0
1774823476.639236,0.006861686706542969,2026-03-29T22:31:16.639,2026-03-29T18:31:16.639,-22026.78,-43393.365,-77198.67,-48831.84,-8996.49,-16298.64,7712.505,-63214.064999999995,-3.0557816570996876,0.4828079061480579,0.257971852533539,0.3127872295088676,3.219040263818305,4.571439136626079,0.7556549122828944,-4.968600241379345,0.39874165500000003,-0.893491365,0.177428745,-5.646199999999999,7.1264199999999995,-3.37246,68.0
1774823476.639269,3.314018249511719e-05,2026-03-29T22:31:16.639,2026-03-29T18:31:16.639,-22023.989999999998,-43394.04,-77207.08499999999,-48845.744999999995,-9003.42,-16303.14,7708.7699999999995,-63213.75,-1.5349721419218747,-1.6472245755863053,-2.463998754160134,-4.958353853651197,-1.0882716723760906,1.3335263547691867,5.483184795638186,-0.8417705704354859,0.39874165500000003,-0.893491365,0.177428745,-5.646199999999999,7.1264199999999995,-3.37246,68.0
1774823476.6430402,0.003771066665649414,2026-03-29T22:31:16.643,2026-03-29T18:31:16.643,-22020.165,-43400.61,-77221.665,-48854.97,-9007.83,-16307.505,7714.844999999999,-63209.564999999995,0.9996926091360839,-2.7575981122557276,-3.8953386541924155,-7.840289176818904,-4.905668665631945,-2.4924763569271926,7.894482772524269,3.9392199515091413,0.39874165500000003,-0.893491365,0.177428745,-5.646199999999999,7.1264199999999995,-3.37246,68.0
1774823476.643064,2.384185791015625e-05,2026-03-29T22:31:16.643,2026-03-29T18:31:16.643,-22006.395,-43405.47,-77236.965,-48868.515,-9019.89,-16313.039999999999,7721.28,-63187.244999999995,3.146932653462519,-2.617619164437843,-3.6925468477838184,-7.068091693451102,-6.477081131711519,-5.09186172522329,6.912804735874906,6.983258775633741,0.39874165500000003,-0.893491365,0.177428745,-5.646199999999999,7.1264199999999995,-3.37246,68.0
1774823476.6430876,2.3603439331054688e-05,2026-03-29T22:31:16.643,2026-03-29T18:31:16.643,-22005.629999999997,-43416.854999999996,-77256.45,-48888.72,-9037.98,-16330.365,7694.054999999999,-63178.74,3.642460792904001,-1.5822714019784718,-2.2086545388113237,-3.112944046204964,-5.0970009205863445,-5.259570689010471,2.9241888691677183,6.66822905578455,0.39874165500000003,-0.893491365,0.177428745,-5.646199999999999,7.1264199999999995,-3.37246,68.0
1774823476.6430943,6.67572021484375e-06,2026-03-29T22:31:16.643,2026-03-29T18:31:16.643,-22016.565,-43421.04,-77252.895,-48884.58,-9035.82,-16331.76,7683.884999999999,-63188.595,2.072200549914776,-0.2928312752534565,-0.20953621011149087,2.089971617124934,-1.4286789992117246,-2.9662829051779744,-2.373870353000405,2.993564640799331,0.39874165500000003,-0.893491365,0.177428745,-5.646199999999999,7.1264199999999995,-3.37246,68.0
1774823476.64829,0.00519561767578125,2026-03-29T22:31:16.648,2026-03-29T18:31:16.648,-22051.485,-43404.705,-77207.67,-48833.415,-8986.59,-16285.005,7709.355,-63249.119999999995,-0.8464012046447565,0.7031654762646704,1.5242033921765974,6.101572734785142,2.8236335187500106,0.6503994143900039,-6.696960046152183,-2.3532745927045435,0.39874165500000003,-0.893491365,0.177428745,-5.646199999999999,7.1264199999999995,-3.37246,68.0
1774823476.648303,1.3113021850585938e-05,2026-03-29T22:31:16.648,2026-03-29T18:31:16.648,-22053.555,-43405.064999999995,-77209.965,-48827.655,-8982.09,-16279.83,7714.844999999999,-63255.375,-3.589160070973865,1.1937795092624988,2.5016444843680237,7.144871672672659,5.722685168205329,3.8550805052875217,-8.161681198725388,-6.777546267176169,0.39874165500000003,-0.893491365,0.177428745,-5.646199999999999,7.1264199999999995,-3.37246,68.0
1774823476.654639,0.0063359737396240234,2026-03-29T22:31:16.654,2026-03-29T18:31:16.654,-22042.934999999998,-43408.215,-77220.855,-48836.88,-8993.925,-16293.24,7699.634999999999,-63240.75,-4.610378149822753,1.294626955291373,2.613494973164119,4.909129215643734,5.995990130477879,5.157221096292235,-6.108788156258781,-8.041039350223596,0.401305125,-0.89404068,0.180114285,-6.1955599999999995,7.2637599999999996,-3.44876,68.0
1774823476.654662,2.288818359375e-05,2026-03-29T22:31:16.654,2026-03-29T18:31:16.654,-22038.75,-43409.88,-77225.12999999999,-48840.525,-8997.345,-16297.38,7694.865,-63234.045,-3.187662798663809,1.2403569205255358,2.028685784324291,0.6199266769754131,3.6001552079183554,4.013731026794208,-1.400775634767336,-5.390824450432202,0.401305125,-0.89404068,0.180114285,-6.1955599999999995,7.2637599999999996,-3.44876,68.0
1774823476.6546855,2.3603439331054688e-05,2026-03-29T22:31:16.654,2026-03-29T18:31:16.654,-22035.42,-43407.18,-77219.73,-48841.155,-8990.414999999999,-16289.234999999999,7714.485,-63227.744999999995,0.1263078298393799,1.1434598195265047,1.0139714543218719,-3.6252303347334154,-0.3013227876597953,1.0560825279697124,3.9409542104854185,0.015464680973788588,0.401305125,-0.89404068,0.180114285,-6.1955599999999995,7.2637599999999996,-3.44876,68.0
1774823476.6546967,1.1205673217773438e-05,2026-03-29T22:31:16.654,2026-03-29T18:31:16.654,-22040.684999999998,-43414.02,-77229.09,-48865.725,-9000.045,-16294.23,7724.384999999999,-63229.454999999994,3.7102232315767316,0.895609064665738,-0.19156917123838657,-5.8982467524258935,-3.9148843811092253,-2.2532724942974665,7.606893059032496,5.620327620032938,0.401305125,-0.89404068,0.180114285,-6.1955599999999995,7.2637599999999996,-3.44876,68.0
1774823476.6603043,0.00560760498046875,2026-03-29T22:31:16.660,2026-03-29T18:31:16.660,-22039.829999999998,-43413.57,-77228.325,-48862.08,-9003.15,-16301.835,7716.6449999999995,-63230.445,5.666571094539059,0.2820582640325611,-1.386161006396365,-5.3347491876446576,-5.657360525957468,-4.350189517458197,8.002177930837286,8.685239800528619,0.401305125,-0.89404068,0.180114285,-6.1955599999999995,7.2637599999999996,-3.44876,68.0
1774823476.6603343,3.0040740966796875e-05,2026-03-29T22:31:16.660,2026-03-29T18:31:16.660,-22029.48,-43403.534999999996,-77222.34,-48839.22,-8994.555,-16300.394999999999,7708.094999999999,-63226.53,4.812729622470948,-0.771001597109833,-2.3396286351800453,-2.4577535718283934,-4.858881006382319,-4.317492179882659,4.944241666085482,7.6323959677852615,0.401305125,-0.89404068,0.180114285,-6.1955599999999995,7.2637599999999996,-3.44876,68.0
1774823476.6642835,0.003949165344238281,2026-03-29T22:31:16.664,2026-03-29T18:31:16.664,-22018.545,-43396.335,-77220.135,-48833.595,-8991.494999999999,-16300.619999999999,7705.98,-63218.204999999994,1.3577530749904032,-1.9982422099855808,-2.755295349675217,1.1877724445402684,-2.01173626798455,-2.2905063017741836,-0.2516070138232601,2.8498382961857978,0.401305125,-0.89404068,0.180114285,-6.1955599999999995,7.2637599999999996,-3.44876,68.0
1774823476.6642995,1.5974044799804688e-05,2026-03-29T22:31:16.664,2026-03-29T18:31:16.664,-22014.945,-43394.31,-77216.04,-48836.295,-8993.07,-16301.519999999999,7704.674999999999,-63213.615,-3.109864105962689,-2.814554385334941,-2.343436440504759,3.8608783077728095,1.522033702850378,0.6618436878168282,-5.339645156847554,-3.4484826819686587,0.401305125,-0.89404068,0.180114285,-6.1955599999999995,7.2637599999999996,-3.44876,68.0
1774823476.670582,0.0062825679779052734,2026-03-29T22:31:16.670,2026-03-29T18:31:16.670,-22024.079999999998,-43402.994999999995,-77229.405,-48858.119999999995,-9007.515,-16311.599999999999,7698.554999999999,-63222.119999999995,-6.356818319411663,-2.5921899337016816,-1.0012732637862094,4.470586313510538,4.174960242815031,3.0985323791399786,-8.1190764916207,-8.25867005363714,0.401305125,-0.89404068,0.180114285,-6.1955599999999995,7.2637599999999996,-3.44876,68.0
1774823476.6706035,2.1457672119140625e-05,2026-03-29T22:31:16.670,2026-03-29T18:31:16.670,-22023.765,-43416.54,-77248.08,-48877.29,-9020.43,-16320.689999999999,7695.63,-63218.97,-6.620273856424707,-1.065257000417194,1.005714223679646,3.0241120723086627,4.8808059641599435,3.9164097895400105,-7.391789573592416,-9.228885129134603,0.401305125,-0.89404068,0.180114285,-6.1955599999999995,7.2637599999999996,-3.44876,68.0
1774823476.677623,0.007019519805908203,2026-03-29T22:31:16.677,2026-03-29T18:31:16.677,-22011.39,-43416.765,-77248.44,-48882.465,-9018.09,-16314.705,7703.054999999999,-63200.475,-3.5468248877417823,1.3785720068369778,3.00733337567556,0.49177984248732554,3.4996954962227975,2.8560335008223823,-3.4830617756580686,-5.810694957442931,0.40081684500000003,-0.894467925,0.18298293000000002,-5.615679999999999,6.37868,-2.24322,68.0
1774823476.6776383,1.52587890625e-05,2026-03-29T22:31:16.677,2026-03-29T18:31:16.677,-22022.055,-43416.81,-77243.715,-48878.505,-9011.295,-16304.265,7717.724999999999,-63199.395,1.5386799063389254,3.7328319954485445,4.126993012421227,-1.7872383122270925,0.7944226903875028,0.5685736767369406,1.903325645559756,0.44490963101432995,0.40081684500000003,-0.894467925,0.18298293000000002,-5.615679999999999,6.37868,-2.24322,68.0
1774823476.6776521,1.3828277587890625e-05,2026-03-29T22:31:16.677,2026-03-29T18:31:16.677,-22032.27,-43416.9,-77242.455,-48877.2,-9016.65,-16311.644999999999,7715.07,-63215.189999999995,6.207628808779312,4.784420829174765,3.6725355213248547,-2.811555366643482,-1.9883556846392767,-1.7629348998836405,6.431668174415667,6.601918297301768,0.40081684500000003,-0.894467925,0.18298293000000002,-5.615679999999999,6.37868,-2.24322,68.0
1774823476.677657,4.76837158203125e-06,2026-03-29T22:31:16.677,2026-03-29T18:31:16.677,-22031.73,-43407.045,-77224.23,-48857.939999999995,-9007.47,-16305.93,7705.53,-63229.994999999995,8.09484046092458,3.7359825181052053,1.5422022044641037,-2.3638666462871964,-3.7032708923261417,-3.0348520820185025,8.153961558373668,9.730043294643282,0.40081684500000003,-0.894467925,0.18298293000000002,-5.615679999999999,6.37868,-2.24322,68.0
1774823476.68014,0.0024831295013427734,2026-03-29T22:31:16.680,2026-03-29T18:31:16.680,-22021.649999999998,-43404.57,-77224.455,-48849.345,-9002.475,-16300.664999999999,7705.665,-63211.409999999996,6.094030801430276,0.7200118410687938,-1.5849185395925405,-0.9950747793092884,-3.7783626037248106,-2.751104381747777,6.3543655047499366,8.307127977619368,0.40081684500000003,-0.894467925,0.18298293000000002,-5.615679999999999,6.37868,-2.24322,68.0
1774823476.6801608,2.0742416381835938e-05,2026-03-29T22:31:16.680,2026-03-29T18:31:16.680,-22034.024999999998,-43419.24,-77247.98999999999,-48849.479999999996,-8999.369999999999,-16296.39,7705.3949999999995,-63221.174999999996,0.9778773971868893,-3.10239603096393,-4.429513591202717,0.39205058978164437,-2.3796499454744793,-1.2130878396978744,1.8491920020683286,2.9583552380705407,0.40081684500000003,-0.894467925,0.18298293000000002,-5.615679999999999,6.37868,-2.24322,68.0
1774823476.6846972,0.00453639030456543,2026-03-29T22:31:16.684,2026-03-29T18:31:16.684,-22043.114999999998,-43419.555,-77245.515,-48845.384999999995,-8988.48,-16289.055,7702.245,-63240.524999999994,-4.895403354702055,-5.978097327643605,-5.639776898294679,1.089080597702868,-0.23836904696177344,0.6991705556997212,-3.384849152784611,-3.8263123325382775,0.40081684500000003,-0.894467925,0.18298293000000002,-5.615679999999999,6.37868,-2.24322,68.0
1774823476.6847196,2.2411346435546875e-05,2026-03-29T22:31:16.684,2026-03-29T18:31:16.684,-22036.454999999998,-43410.375,-77233.41,-48844.215,-8982.945,-16286.939999999999,7689.6449999999995,-63240.075,-8.680384900597081,-6.375854914454805,-4.446557519096201,0.9423486458272415,1.7324333598358619,2.01559820679898,-7.084408588853218,-8.864901283499579,0.40081684500000003,-0.894467925,0.18298293000000002,-5.615679999999999,6.37868,-2.24322,68.0
1774823476.6896083,0.004888772964477539,2026-03-29T22:31:16.689,2026-03-29T18:31:16.689,-22022.145,-43396.29,-77213.295,-48843.854999999996,-8981.73,-16287.255,7691.804999999999,-63223.965,-8.430946304705616,-3.7952602365848906,-1.1228372852862694,0.3445022367165009,2.8306176855214153,2.1685287404867526,-7.686079472517255,-9.787804205590023,0.40081684500000003,-0.894467925,0.18298293000000002,-5.615679999999999,6.37868,-2.24322,68.0
1774823476.6896367,2.8371810913085938e-05,2026-03-29T22:31:16.689,2026-03-29T18:31:16.689,-22023.27,-43394.13,-77205.15,-48861.405,-8997.975,-16296.705,7707.825,-63220.634999999995,-4.095562742480771,0.8546139335832079,3.0172263214534714,-0.10028330513820255,2.796817601275286,1.2389681726859623,-4.991878395073119,-6.157026998932383,0.40081684500000003,-0.894467925,0.18298293000000002,-5.615679999999999,6.37868,-2.24322,68.0
1774823476.694033,0.004396200180053711,2026-03-29T22:31:16.694,2026-03-29T18:31:16.694,-22021.739999999998,-43398.674999999996,-77206.72499999999,-48860.009999999995,-9010.08,-16310.385,7692.255,-63220.32,2.3860213128790027,5.551974182098128,6.136989700116441,-0.008212560175932327,1.8206079962133273,-0.15057688110347664,-0.22775006834081046,0.3305820946052593,0.39782613,-0.897519675,0.18469191000000001,-3.52506,5.753019999999999,-6.77544,68.0
1774823476.694063,3.0040740966796875e-05,2026-03-29T22:31:16.694,2026-03-29T18:31:16.694,-22005.855,-43386.795,-77188.95,-48831.525,-9002.789999999999,-16311.914999999999,7696.215,-63206.1,7.961865190921469,8.052146261701543,6.709774976242704,0.5279186820026192,0.37150495132555433,-1.214401774623236,4.5184752650392195,6.648327052190507,0.39782613,-0.897519675,0.18469191000000001,-3.52506,5.753019999999999,-6.77544,68.0
1774823476.6964047,0.002341747283935547,2026-03-29T22:31:16.696,2026-03-29T18:31:16.696,-21991.184999999998,-43380.314999999995,-77189.715,-48823.515,-8992.529999999999,-16301.88,7753.995,-63184.725,9.919116312813026,6.973802587188046,4.279505438873588,1.012463690234938,-1.0283273309157492,-1.4349557584646075,7.220046599005514,9.865595951306362,0.39782613,-0.897519675,0.18469191000000001,-3.52506,5.753019999999999,-6.77544,68.0
1774823476.6964147,1.0013580322265625e-05,2026-03-29T22:31:16.696,2026-03-29T18:31:16.696,-21990.51,-43387.515,-77207.04,-48839.67,-9000.539999999999,-16303.994999999999,7762.455,-63177.255,7.210894536412976,2.549717969441801,-0.23527618386894228,0.898232081947247,-1.9792640117861122,-0.8151372637714127,6.783182342690375,8.516690236626985,0.39782613,-0.897519675,0.18469191000000001,-3.52506,5.753019999999999,-6.77544,68.0
1774823476.7005067,0.004091978073120117,2026-03-29T22:31:16.700,2026-03-29T18:31:16.700,-21993.21,-43398.09,-77225.12999999999,-48848.085,-9004.455,-16303.14,7751.474999999999,-63172.215,1.0064053562721633,-3.3617301596196243,-4.880890373723763,-0.008845378553776324,-2.27705046280534,0.17145959548278228,3.4894282412141684,3.268990400181245,0.39782613,-0.897519675,0.18469191000000001,-3.52506,5.753019999999999,-6.77544,68.0
1774823476.7005343,2.765655517578125e-05,2026-03-29T22:31:16.700,2026-03-29T18:31:16.700,-22041.405,-43417.619999999995,-77225.58,-48837.195,-8987.67,-16284.465,7723.349999999999,-63224.774999999994,-5.821476340821145,-8.064293784040991,-7.530612737415871,-1.352155406761552,-1.901624238925335,0.8863638271551872,-1.1703395479448684,-3.4141697874567876,0.39782613,-0.897519675,0.18469191000000001,-3.52506,5.753019999999999,-6.77544,68.0
1774823476.713119,0.012584686279296875,2026-03-29T22:31:16.713,2026-03-29T18:31:16.713,-22066.92,-43430.31,-77230.75499999999,-48850.38,-8996.445,-16291.08,7710.48,-63263.7,-10.04295616869547,-9.273562202238098,-6.8809802255608545,-2.3737614587236044,-0.9755399068468266,0.9056149197227591,-5.177063536542488,-8.442810235341863,0.39782613,-0.897519675,0.18469191000000001,-3.52506,5.753019999999999,-6.77544,68.0
1774823476.713153,3.3855438232421875e-05,2026-03-29T22:31:16.713,2026-03-29T18:31:16.713,-22040.954999999998,-43419.96,-77229.27,-48858.255,-9003.15,-16302.195,7706.205,-63233.729999999996,-9.61357214273819,-6.240109665502521,-3.1051467952378564,-2.3427439037481177,0.2666486268790196,0.2578910361930109,-6.865355543807716,-9.540946430112344,0.39782613,-0.897519675,0.18469191000000001,-3.52506,5.753019999999999,-6.77544,68.0
1774823476.7131808,2.7894973754882812e-05,2026-03-29T22:31:16.713,2026-03-29T18:31:16.713,-22025.52,-43402.86,-77209.37999999999,-48836.52,-8982.359999999999,-16288.199999999999,7697.924999999999,-63209.744999999995,-4.6689001643112285,-0.1877196021919169,2.1694307777165927,-1.0205075004721045,1.4977738612651263,-0.6077523160904861,-5.617184244668786,-6.281569643231661,0.39782613,-0.897519675,0.18469191000000001,-3.52506,5.753019999999999,-6.77544,68.0
1774823476.7131925,1.1682510375976562e-05,2026-03-29T22:31:16.713,2026-03-29T18:31:16.713,-22022.145,-43397.775,-77209.515,-48838.86,-8979.21,-16283.34,7698.825,-63206.055,2.5145334821034706,6.181106965333508,6.575602136521511,1.1164927703047673,2.339527556178276,-1.099647932875101,-2.077592022029611,-0.2433229379375894,0.39782613,-0.897519675,0.18469191000000001,-3.52506,5.753019999999999,-6.77544,68.0
1774823476.7132058,1.33514404296875e-05,2026-03-29T22:31:16.713,2026-03-29T18:31:16.713,-22030.155,-43416.854999999996,-77244.075,-48879.27,-9012.734999999999,-16303.769999999999,7707.96,-63223.829999999994,8.582748089632132,9.912328321147386,8.093354693116932,3.0511634467389688,2.456846331889384,-0.8447636968933776,2.1766732680450778,5.76277758336345,0.396544395,-0.89330826,0.18102981,-8.28618,2.6857599999999997,-10.31576,68.0
1774823476.713216,1.0251998901367188e-05,2026-03-29T22:31:16.713,2026-03-29T18:31:16.713,-22045.95,-43427.52,-77248.53,-48876.75,-9017.91,-16310.43,7706.655,-63241.74,10.688424118056725,9.193303717394071,5.998415904995045,3.730991707984937,1.6959294261524926,0.0744087495768257,5.345662805903032,9.01406558811229,0.396544395,-0.89330826,0.18102981,-8.28618,2.6857599999999997,-10.31576,68.0
1774823476.7163365,0.00312042236328125,2026-03-29T22:31:16.716,2026-03-29T18:31:16.716,-22036.094999999998,-43409.61,-77226.39,-48852.134999999995,-8996.58,-16295.355,7706.07,-63236.475,7.83922585410665,4.244105630330497,1.2167842934492092,2.6438605261628294,0.2059451321881624,1.1455925323499037,6.170138760728644,8.118534117149476,0.396544395,-0.89330826,0.18102981,-8.28618,2.6857599999999997,-10.31576,68.0
1774823476.7163527,1.621246337890625e-05,2026-03-29T22:31:16.716,2026-03-29T18:31:16.716,-22033.44,-43413.119999999995,-77228.37,-48852.09,-8995.994999999999,-16294.365,7712.91,-63225.45,1.3661947462240394,-2.736045153077687,-4.092320381329029,0.14818133759818472,-1.5382954924864207,1.706937009090182,4.425335263690092,3.608446716834194,0.396544395,-0.89330826,0.18102981,-8.28618,2.6857599999999997,-10.31576,68.0
1774823476.720487,0.004134416580200195,2026-03-29T22:31:16.720,2026-03-29T18:31:16.720,-22032.135,-43414.92,-77220.495,-48851.775,-9004.59,-16300.529999999999,7715.745,-63213.075,-5.709331964579745,-8.563601967160853,-7.533665189567053,-2.640826126293428,-2.8658359864351497,1.3301861622471411,0.9547410912550477,-2.3662331757879667,0.396544395,-0.89330826,0.18102981,-8.28618,2.6857599999999997,-10.31576,68.0
1774823476.720519,3.1948089599609375e-05,2026-03-29T22:31:16.720,2026-03-29T18:31:16.720,-22030.875,-43420.994999999995,-77224.68,-48855.06,-9008.145,-16302.42,7717.679999999999,-63210.195,-10.10418203777103,-10.548430429278865,-7.582512012196312,-4.3742964979298256,-3.1698101226669335,0.09327686867575435,-2.7393584995766807,-7.071820971024279,0.396544395,-0.89330826,0.18102981,-8.28618,2.6857599999999997,-10.31576,68.0
1774823476.725838,0.005318880081176758,2026-03-29T22:31:16.725,2026-03-29T18:31:16.725,-22038.885,-43431.345,-77243.58,-48862.845,-9008.82,-16307.279999999999,7713.855,-63222.21,-9.813618556098731,-7.756460036699065,-4.277152255365912,-4.145224114270757,-2.195630166299918,-1.417028279640823,-5.148382075127681,-8.451117387681789,0.396544395,-0.89330826,0.18102981,-8.28618,2.6857599999999997,-10.31576,68.0
1774823476.72587,3.1948089599609375e-05,2026-03-29T22:31:16.725,2026-03-29T18:31:16.725,-22026.96,-43412.13,-77231.7,-48851.28,-9000.09,-16305.885,7685.054999999999,-63216.765,-5.033156702713993,-1.454865202978574,0.8252207579030648,-1.9680017686139188,-0.2149308666379963,-2.3889643943239065,-5.368192159828769,-6.024851898988187,0.396544395,-0.89330826,0.18102981,-8.28618,2.6857599999999997,-10.31576,68.0
1774823476.7282743,0.002404451370239258,2026-03-29T22:31:16.728,2026-03-29T18:31:16.728,-21997.89,-43373.744999999995,-77201.415,-48832.29,-8983.619999999999,-16296.074999999999,7697.474999999999,-63197.909999999996,1.9653278405743695,5.475091785070872,5.397232469916709,1.1938017727686683,2.023665214404424,-2.216148212202946,-3.42386737072505,-1.0388263668478048,0.396544395,-0.89330826,0.18102981,-8.28618,2.6857599999999997,-10.31576,68.0
1774823476.7282903,1.5974044799804688e-05,2026-03-29T22:31:16.728,2026-03-29T18:31:16.728,-21989.16,-43362.134999999995,-77185.44,-48820.229999999996,-8971.56,-16286.22,7732.035,-63190.71,7.927854411507562,9.879908245953136,7.427873535851618,3.877270325756035,3.5774878944996584,-0.8484113706466174,-0.20083227230729503,4.175746902665267,0.396544395,-0.89330826,0.18102981,-8.28618,2.6857599999999997,-10.31576,68.0
1774823476.7338233,0.005532979965209961,2026-03-29T22:31:16.733,2026-03-29T18:31:16.733,-21997.754999999997,-43372.71,-77190.84,-48820.455,-8971.38,-16282.89,7750.9349999999995,-63196.335,10.149490942080169,9.794047100892332,6.128049831002117,4.82658822276872,3.718881313950894,1.1311759814829845,2.9588578066355087,7.300358956597905,0.398009235,-0.89636001,0.17895462,-15.4126,0.2289,-12.16222,68.0
1774823476.7338347,1.1444091796875e-05,2026-03-29T22:31:16.733,2026-03-29T18:31:16.733,-22010.355,-43396.965,-77219.55,-48856.32,-9004.14,-16307.82,7717.724999999999,-63199.665,7.713688713898946,5.330503933532056,2.237245713432456,3.6016491738624388,2.286304387026285,2.7609349818027606,4.810209964507854,7.065033607093087,0.398009235,-0.89636001,0.17895462,-15.4126,0.2289,-12.16222,68.0
1774823476.7366235,0.0027887821197509766,2026-03-29T22:31:16.736,2026-03-29T18:31:16.736,-22014.719999999998,-43411.32,-77236.92,-48878.865,-9025.785,-16324.154999999999,7653.78,-63200.97,1.8663507733322142,-1.4082439848624881,-2.3880271098421075,0.7844034159331813,-0.1968478447191425,3.1724273808851757,4.683356355851291,3.757144037271984,0.398009235,-0.89636001,0.17895462,-15.4126,0.2289,-12.16222,68.0
1774823476.7366452,2.1696090698242188e-05,2026-03-29T22:31:16.736,2026-03-29T18:31:16.736,-21997.665,-43410.104999999996,-77241.78,-48877.65,-9025.244999999999,-16322.49,7679.429999999999,-63173.024999999994,-4.625634952460768,-7.339048337737781,-5.678166423905856,-2.31507371633188,-2.7114632115702246,2.0459161543682343,2.7100201977914424,-0.9962751830897396,0.398009235,-0.89636001,0.17895462,-15.4126,0.2289,-12.16222,68.0
1774823476.740657,0.004011869430541992,2026-03-29T22:31:16.740,2026-03-29T18:31:16.740,-22022.055,-43424.505,-77253.795,-48884.67,-9023.76,-16319.07,7721.594999999999,-63196.335,-8.799529357392984,-9.834215648583271,-6.298590313099209,-4.297194752256248,-4.172077379459911,-0.18675790811046686,-0.2678744572344741,-5.031349376216709,0.398009235,-0.89636001,0.17895462,-15.4126,0.2289,-12.16222,68.0
1774823476.7406795,2.2411346435546875e-05,2026-03-29T22:31:16.740,2026-03-29T18:31:16.740,-22054.23,-43439.31,-77264.37,-48899.835,-9032.4,-16328.519999999999,7722.945,-63231.39,-8.863832423598053,-7.904068856933101,-4.197229988169821,-4.331950327121885,-3.909251295538589,-2.509189414927762,-3.0517404393575633,-6.638176734187184,0.398009235,-0.89636001,0.17895462,-15.4126,0.2289,-12.16222,68.0
1774823476.747727,0.007047414779663086,2026-03-29T22:31:16.747,2026-03-29T18:31:16.747,-22067.055,-43425.494999999995,-77236.73999999999,-48869.595,-9013.365,-16316.865,7723.215,-63262.079999999994,-4.969656971999294,-2.584958727941314,-0.5235579239655737,-2.515562996395857,-1.9835160911523513,-3.791442168338503,-4.556457580129178,-5.283560855675799,0.398009235,-0.89636001,0.17895462,-15.4126,0.2289,-12.16222,68.0
1774823476.7477477,2.0742416381835938e-05,2026-03-29T22:31:16.747,2026-03-29T18:31:16.747,-22040.145,-43407.0,-77216.985,-48842.145,-8994.734999999999,-16306.83,7717.995,-63235.395,0.9466854184969394,3.6167084149401707,2.9952251585756353,0.23322128121306165,0.8197140885668404,-3.3429676762705034,-4.220106869844774,-1.761554787397778,0.398009235,-0.89636001,0.17895462,-15.4126,0.2289,-12.16222,68.0
1774823476.7477713,2.3603439331054688e-05,2026-03-29T22:31:16.747,2026-03-29T18:31:16.747,-22034.07,-43407.494999999995,-77218.92,-48843.18,-8992.08,-16301.699999999999,7709.174999999999,-63225.945,6.134191964064122,7.9263508959761895,4.884005618968128,2.6579099024552626,3.320227961046448,-1.2755090256061743,-2.206953630860893,2.2532709301267886,0.398009235,-0.89636001,0.17895462,-15.4126,0.2289,-12.16222,68.0
1774823476.7477765,5.245208740234375e-06,2026-03-29T22:31:16.747,2026-03-29T18:31:16.747,-22029.975,-43406.369999999995,-77217.12,-48847.049999999996,-8994.195,-16297.92,7703.82,-63221.805,8.321066181195558,8.563159649397818,4.548848856311802,3.766950710236607,4.453855689308495,1.5114161763104539,0.6651679260752662,5.005206789528635,0.398009235,-0.89636001,0.17895462,-15.4126,0.2289,-12.16222,68.0
1774823476.7621694,0.014392852783203125,2026-03-29T22:31:16.762,2026-03-29T18:31:16.762,-22024.754999999997,-43401.24,-77209.29,-48849.57,-8998.605,-16299.72,7701.12,-63218.295,6.716771351831679,5.478359636753635,2.43170373873552,3.2526248593648575,3.735621464885837,3.7298664143076317,3.244064728132691,5.426524769200064,0.404967225,-0.91052013,0.17517045,-18.9987,-1.23606,-9.568019999999999,68.0
1774823476.7622004,3.0994415283203125e-05,2026-03-29T22:31:16.762,2026-03-29T18:31:16.762,-22024.575,-43403.58,-77209.83,-48849.255,-8999.234999999999,-16299.359999999999,7708.5,-63214.02,2.2770147066026305,0.26274756570127383,-0.3281727110467972,1.5421854594817093,1.4684513970868245,4.306483625308817,4.492188278818267,3.539098052252317,0.404967225,-0.91052013,0.17517045,-18.9987,-1.23606,-9.568019999999999,68.0
1774823476.762231,3.075599670410156e-05,2026-03-29T22:31:16.762,2026-03-29T18:31:16.762,-22026.78,-43410.42,-77222.47499999999,-48857.13,-9001.17,-16301.88,7714.844999999999,-63210.825,-2.8442695235665383,-4.678739676132225,-2.505149053090317,-0.5007279267980123,-1.3927972115131335,2.903434521083324,3.898697696184827,0.3448102361216949,0.404967225,-0.91052013,0.17517045,-18.9987,-1.23606,-9.568019999999999,68.0
1774823476.7622423,1.1205673217773438e-05,2026-03-29T22:31:16.762,2026-03-29T18:31:16.762,-22024.305,-43410.645,-77225.94,-48852.494999999995,-8990.865,-16289.955,7714.485,-63205.02,-6.349413479505572,-7.254920737015424,-3.3435353753979147,-2.0323729455358728,-3.656593398245195,0.10385595766055684,1.6945808470205965,-2.6983829231585816,0.404967225,-0.91052013,0.17517045,-18.9987,-1.23606,-9.568019999999999,68.0
1774823476.7622564,1.4066696166992188e-05,2026-03-29T22:31:16.762,2026-03-29T18:31:16.762,-22031.415,-43418.115,-77234.625,-48867.119999999995,-9009.765,-16307.91,7709.625,-63207.314999999995,-6.837550165417265,-6.580972790618314,-2.8011026997388004,-2.5945819650226194,-4.401818027855614,-2.8358434265642263,-1.2227325071561244,-4.343761896877358,0.404967225,-0.91052013,0.17517045,-18.9987,-1.23606,-9.568019999999999,68.0
1774823476.7622664,1.0013580322265625e-05,2026-03-29T22:31:16.762,2026-03-29T18:31:16.762,-22015.98,-43402.32,-77213.745,-48856.275,-9008.369999999999,-16311.51,7707.15,-63191.61,-4.355540937179699,-3.251141163177333,-1.4128653986308595,-2.2226832678536965,-3.3552251123111008,-4.558775999726701,-3.6403226903747243,-4.060397166643466,0.404967225,-0.91052013,0.17517045,-18.9987,-1.23606,-9.568019999999999,68.0
1774823476.7685711,0.006304740905761719,2026-03-29T22:31:16.768,2026-03-29T18:31:16.768,-22006.665,-43401.555,-77228.145,-48865.545,-9016.38,-16329.24,7708.86,-63184.68,-0.24788009754120569,1.0724916005961742,0.08981099895286392,-1.2901174761361482,-0.9833916248347007,-4.240306823182774,-4.5279161931497525,-2.1743538956125446,0.404967225,-0.91052013,0.17517045,-18.9987,-1.23606,-9.568019999999999,68.0
1774823476.7685838,1.2636184692382812e-05,2026-03-29T22:31:16.768,2026-03-29T18:31:16.768,-21999.42,-43401.24,-77241.825,-48862.799999999996,-9014.445,-16326.494999999999,7718.445,-63170.369999999995,3.5635766912466833,4.497921654074831,1.1644205058713122,-0.22880812819539678,1.7262675045105569,-1.9829866947788757,-3.4826725932526936,0.37085383916789594,0.404967225,-0.91052013,0.17517045,-18.9987,-1.23606,-9.568019999999999,68.0
1774823476.7686017,1.7881393432617188e-05,2026-03-29T22:31:16.768,2026-03-29T18:31:16.768,-22020.57,-43414.92,-77255.64,-48866.13,-9004.32,-16303.185,7721.82,-63187.965,5.487273848011416,5.741771710555689,1.643950888607725,0.6886651971016191,3.6873601811007135,1.2154267657878557,-0.926054075732491,2.482970620450052,0.404967225,-0.91052013,0.17517045,-18.9987,-1.23606,-9.568019999999999,68.0
1774823476.7686064,4.76837158203125e-06,2026-03-29T22:31:16.768,2026-03-29T18:31:16.768,-22039.469999999998,-43418.744999999995,-77243.08499999999,-48858.345,-8987.355,-16274.564999999999,7726.005,-63210.915,4.924528437550802,4.591838563211925,1.6664086892107761,1.3882524436681858,4.153392763371617,3.9108721614640247,2.0496226036008767,3.3873405909542953,0.404967225,-0.91052013,0.17517045,-18.9987,-1.23606,-9.568019999999999,68.0
1774823476.7726803,0.0040738582611083984,2026-03-29T22:31:16.772,2026-03-29T18:31:16.772,-22046.129999999997,-43425.63,-77246.055,-48871.17,-8998.83,-16290.72,7715.924999999999,-63218.34,2.412607509597753,1.8378982918896425,1.4477495819311832,1.8723036455611324,2.994710060282027,4.873192653554388,4.139533777702822,2.8932501539392526,0.407164485,-0.9373755300000001,0.16467243,-15.07688,-3.815,-6.76018,68.0
1774823476.7727048,2.4557113647460938e-05,2026-03-29T22:31:16.772,2026-03-29T18:31:16.772,-22038.12,-43418.79,-77230.17,-48872.564999999995,-9002.205,-16297.965,7714.485,-63211.5,-0.7553105782432323,-1.2184777778744258,1.0791695436439301,2.0646274863917755,0.7152327310317593,3.6522438869224607,4.402303669359112,1.3794088545227443,0.407164485,-0.9373755300000001,0.16467243,-15.07688,-3.815,-6.76018,68.0
1774823476.7765892,0.0038843154907226562,2026-03-29T22:31:16.776,2026-03-29T18:31:16.776,-22029.434999999998,-43409.744999999995,-77215.31999999999,-48859.92,-8997.164999999999,-16295.039999999999,7719.66,-63204.795,-3.194175370716438,-3.3869027947765895,0.4902300089372012,1.7687309608148751,-1.7765493888093487,0.7875116422259669,2.6978433423061214,-0.4478502313638311,0.407164485,-0.9373755300000001,0.16467243,-15.07688,-3.815,-6.76018,68.0
1774823476.776619,2.9802322387695312e-05,2026-03-29T22:31:16.776,2026-03-29T18:31:16.776,-22025.43,-43403.805,-77203.845,-48840.479999999996,-8992.305,-16294.994999999999,7717.1849999999995,-63203.265,-4.034739714128585,-4.0423054515601295,-0.4082462745654512,0.7984796982626644,-3.533423844128129,-2.4357890196727956,-0.22299236490345847,-1.8820127710239114,0.407164485,-0.9373755300000001,0.16467243,-15.07688,-3.815,-6.76018,68.0
1774823476.7819448,0.005325794219970703,2026-03-29T22:31:16.781,2026-03-29T18:31:16.781,-22016.34,-43393.049999999996,-77188.00499999999,-48827.34,-8985.779999999999,-16294.32,7709.67,-63198.27,-3.207498305646451,-3.2426738436858704,-1.5196173260339472,-0.7944046910464824,-3.922804114644937,-4.571231929613072,-3.0376807420152385,-2.4787071689471767,0.407164485,-0.9373755300000001,0.16467243,-15.07688,-3.815,-6.76018,68.0
1774823476.781963,1.8358230590820312e-05,2026-03-29T22:31:16.781,2026-03-29T18:31:16.781,-22007.114999999998,-43398.09,-77201.145,-48838.32,-8991.359999999999,-16299.81,7708.634999999999,-63187.74,-1.3263784744291296,-1.5352836637939304,-2.4654620677350083,-2.565365728473878,-2.83981043174308,-4.666966575901224,-4.4508332340612675,-2.161909491536095,0.407164485,-0.9373755300000001,0.16467243,-15.07688,-3.815,-6.76018,68.0
1774823476.7841868,0.0022237300872802734,2026-03-29T22:31:16.784,2026-03-29T18:31:16.784,-22001.355,-43404.884999999995,-77220.0,-48853.034999999996,-9004.32,-16311.555,7703.054999999999,-63179.46,0.703961434401842,0.3803228746900873,-2.7059130421719657,-3.7491517320855055,-0.7176099230406494,-2.69262557802971,-3.8016469062286267,-1.1704314083543945,0.407164485,-0.9373755300000001,0.16467243,-15.07688,-3.815,-6.76018,68.0
1774823476.7841978,1.0967254638671875e-05,2026-03-29T22:31:16.784,2026-03-29T18:31:16.784,-22017.555,-43423.515,-77240.295,-48861.36,-9008.955,-16317.314999999999,7697.7,-63181.619999999995,2.1238273243430514,1.9364932651239315,-1.8424798687442996,-3.5878632273901747,1.6501132927099202,0.45505104581958483,-1.3899467064635929,0.09092035332109696,0.407164485,-0.9373755300000001,0.16467243,-15.07688,-3.815,-6.76018,68.0
1774823476.7884872,0.004289388656616211,2026-03-29T22:31:16.788,2026-03-29T18:31:16.788,-22030.379999999997,-43424.505,-77241.15,-48842.729999999996,-8998.154999999999,-16312.185,7696.98,-63198.225,2.5871058636059834,2.815027402784401,0.06487540297242185,-1.7750599031045928,3.399457156168956,3.3655187950482794,1.647548588742133,1.2107708793871426,0.407164485,-0.9373755300000001,0.16467243,-15.07688,-3.815,-6.76018,68.0
1774823476.7884996,1.239776611328125e-05,2026-03-29T22:31:16.788,2026-03-29T18:31:16.788,-22012.829999999998,-43399.799999999996,-77216.985,-48816.945,-8981.73,-16294.185,7719.12,-63192.015,2.1774046124143065,2.9111698984655856,2.376048915100911,1.2330676457051009,3.8970200555386976,4.753484848721708,3.8674392244219447,1.881816047002923,0.407164485,-0.9373755300000001,0.16467243,-15.07688,-3.815,-6.76018,68.0
1774823476.8249907,0.03649115562438965,2026-03-29T22:31:16.824,2026-03-29T18:31:16.824,-21999.51,-43394.58,-77215.36499999999,-48824.82,-8992.305,-16295.805,7733.835,-63173.07,1.2319302067254554,2.245777470461599,4.067893285487714,4.261177308099612,2.9552176959654517,4.031191833004484,4.211507647830691,1.9486962236065033,0.41332902,-0.945737325,0.157653405,-7.446879999999999,0.30519999999999997,-3.55558,68.0
1774823476.8250325,4.172325134277344e-05,2026-03-29T22:31:16.825,2026-03-29T18:31:16.825,-22022.864999999998,-43412.625,-77234.22,-48855.735,-9018.72,-16313.535,7722.36,-63190.079999999994,0.11880617850275094,0.9288237335496148,4.1993897186165965,5.867891411739079,0.8977813281266358,1.557227156661495,2.5257444787953163,1.4134568290698408,0.41332902,-0.945737325,0.157653405,-7.446879999999999,0.30519999999999997,-3.55558,68.0
1774823476.8250694,3.695487976074219e-05,2026-03-29T22:31:16.825,2026-03-29T18:31:16.825,-22051.305,-43425.99,-77236.83,-48871.575,-9028.08,-16321.455,7696.304999999999,-63226.079999999994,-0.8987566080695807,-0.798008168455416,2.427044334882102,5.036889066932434,-1.5441210125692455,-1.5431316914382285,-0.35452392504474295,0.4245726354624462,0.41332902,-0.945737325,0.157653405,-7.446879999999999,0.30519999999999997,-3.55558,68.0
1774823476.8250892,1.9788742065429688e-05,2026-03-29T22:31:16.825,2026-03-29T18:31:16.825,-22058.37,-43429.68,-77244.525,-48869.009999999995,-9009.72,-16309.484999999999,7703.19,-63237.869999999995,-1.665985982713187,-2.504391707700629,-0.7092116749810384,1.771225856001671,-3.4762499839280037,-3.895311984420623,-3.006921131493666,-0.7431137758889432,0.41332902,-0.945737325,0.157653405,-7.446879999999999,0.30519999999999997,-3.55558,68.0
1774823476.8251116,2.2411346435546875e-05,2026-03-29T22:31:16.825,2026-03-29T18:31:16.825,-22039.335,-43422.119999999995,-77250.42,-48868.11,-8999.145,-16298.595,7710.75,-63217.439999999995,-2.0624116693272048,-3.605223881588953,-3.920136312711237,-2.7427534506967084,-4.1539619669005905,-4.490258422482659,-4.122625788357109,-1.7321587223461405,0.41332902,-0.945737325,0.157653405,-7.446879999999999,0.30519999999999997,-3.55558,68.0
1774823476.8251297,1.811981201171875e-05,2026-03-29T22:31:16.825,2026-03-29T18:31:16.825,-22035.42,-43424.549999999996,-77257.8,-48873.915,-9009.63,-16304.715,7704.855,-63211.814999999995,-1.952393272674104,-3.5447549725796463,-5.707177302647827,-6.551294689649476,-3.262843285362021,-3.1194138191217275,-3.1604697613667536,-2.188031689339082,0.41332902,-0.945737325,0.157653405,-7.446879999999999,0.30519999999999997,-3.55558,68.0
1774823476.8251512,2.1457672119140625e-05,2026-03-29T22:31:16.825,2026-03-29T18:31:16.825,-22031.46,-43426.799999999996,-77268.87,-48888.585,-9013.59,-16309.529999999999,7708.679999999999,-63203.759999999995,-1.23087101504538,-2.082613818989174,-5.076255839841541,-7.79128580646923,-1.0653384246538296,-0.4416503610072792,-0.62381091835504,-1.8818180371268185,0.41332902,-0.945737325,0.157653405,-7.446879999999999,0.30519999999999997,-3.55558,68.0
1774823476.825169,1.7881393432617188e-05,2026-03-29T22:31:16.825,2026-03-29T18:31:16.825,-22027.004999999997,-43426.17,-77267.47499999999,-48916.935,-9028.89,-16325.685,7721.505,-63197.865,0.05130160292307716,0.4677604627744376,-2.078423587320547,-5.606841503369944,1.6554604852756571,2.33538995820401,2.1874415481635334,-0.829686878283964,0.41332902,-0.945737325,0.157653405,-7.446879999999999,0.30519999999999997,-3.55558,68.0
1774823476.8251889,1.9788742065429688e-05,2026-03-29T22:31:16.825,2026-03-29T18:31:16.825,-22027.004999999997,-43417.305,-77243.715,-48912.345,-9027.855,-16330.59,7734.509999999999,-63202.14,1.578476823522956,3.219793186553701,2.112408665607709,-0.6699639276209394,3.857967710423228,4.004531766324604,3.8332126392495853,0.6547775863052554,0.41332902,-0.945737325,0.157653405,-7.446879999999999,0.30519999999999997,-3.55558,68.0
1774823476.825206,1.71661376953125e-05,2026-03-29T22:31:16.825,2026-03-29T18:31:16.825,-22019.67,-43403.895,-77222.385,-48885.345,-9017.955,-16325.955,7723.035,-63201.329999999994,2.7907586474380306,4.997878069774805,5.6634733038482805,4.992544356406216,4.632776838780711,3.887109953313075,3.4698002906797165,2.0281131790226867,0.41332902,-0.945737325,0.157653405,-7.446879999999999,0.30519999999999997,-3.55558,68.0
1774823476.8252838,7.772445678710938e-05,2026-03-29T22:31:16.825,2026-03-29T18:31:16.825,-22001.579999999998,-43407.36,-77231.565,-48855.015,-9012.824999999999,-16314.93,7717.905,-63172.17,3.081736794417477,4.848011916169927,6.902065963232066,8.842432400113024,3.5800504633845738,2.1075437513299944,1.2896637128888817,2.70793727434104,0.408018975,-0.934018605,0.163878975,-3.3266799999999996,-0.9003399999999999,-5.93614,68.0
1774823476.825291,7.152557373046875e-06,2026-03-29T22:31:16.825,2026-03-29T18:31:16.825,-22017.735,-43432.784999999996,-77263.155,-48867.21,-9031.095,-16336.619999999999,7701.795,-63178.784999999996,2.107503293000771,2.548704758524457,5.114575216864227,8.986222639921564,1.0161239819759416,-0.4956678465284979,-1.5678207045042394,2.3244169495772202,0.408018975,-0.934018605,0.163878975,-3.3266799999999996,-0.9003399999999999,-5.93614,68.0
1774823476.8252995,8.58306884765625e-06,2026-03-29T22:31:16.825,2026-03-29T18:31:16.825,-22035.239999999998,-43438.229999999996,-77264.81999999999,-48878.82,-9032.039999999999,-16344.18,7687.9349999999995,-63199.034999999996,0.04726830133758536,-1.1508434080625856,0.9388580885303002,5.10812173865166,-2.097696861445138,-2.7669404895321237,-3.5983566855593003,0.9213576015585094,0.408018975,-0.934018605,0.163878975,-3.3266799999999996,-0.9003399999999999,-5.93614,68.0
1774823476.825307,7.3909759521484375e-06,2026-03-29T22:31:16.825,2026-03-29T18:31:16.825,-22063.635,-43434.854999999996,-77245.875,-48873.465,-9012.869999999999,-16320.195,7685.1449999999995,-63247.095,-2.354521056799983,-4.739483394034633,-3.8592209475806802,-1.281854473407138,-4.505047222024316,-3.749746551172184,-3.7146729672627905,-1.0018976076748454,0.408018975,-0.934018605,0.163878975,-3.3266799999999996,-0.9003399999999999,-5.93614,68.0
1774823476.8253152,8.344650268554688e-06,2026-03-29T22:31:16.825,2026-03-29T18:31:16.825,-22044.555,-43426.215,-77238.495,-48894.884999999995,-9023.67,-16319.789999999999,7701.884999999999,-63227.295,-4.042071051387254,-6.564074671730561,-7.1476121534481925,-7.441742277806695,-5.161876673058014,-3.0900354289277048,-1.824916389382227,-2.655998218983657,0.408018975,-0.934018605,0.163878975,-3.3266799999999996,-0.9003399999999999,-5.93614,68.0
1774823476.825323,7.867813110351562e-06,2026-03-29T22:31:16.825,2026-03-29T18:31:16.825,-22026.69,-43423.47,-77236.605,-48900.42,-9038.34,-16346.564999999999,7683.165,-63205.784999999996,-4.120084695184253,-5.604558024784982,-7.391432253623418,-10.595751094780095,-3.6962624694742736,-1.1567609502231657,1.0992332922067198,-3.2865378652433948,0.408018975,-0.934018605,0.163878975,-3.3266799999999996,-0.9003399999999999,-5.93614,68.0
1774823476.8253329,9.775161743164062e-06,2026-03-29T22:31:16.825,2026-03-29T18:31:16.825,-22032.945,-43423.604999999996,-77213.205,-48848.04,-9012.914999999999,-16340.355,7670.969999999999,-63213.119999999995,-2.328859996319151,-2.0345808067299975,-4.374945721806755,-9.201904596366811,-0.6147590908710008,1.157267992415186,3.5121536431458646,-2.5239649698074276,0.408018975,-0.934018605,0.163878975,-3.3266799999999996,-0.9003399999999999,-5.93614,68.0
1774823476.8253405,7.62939453125e-06,2026-03-29T22:31:16.825,2026-03-29T18:31:16.825,-22036.95,-43408.575,-77178.42,-48802.994999999995,-8985.24,-16318.349999999999,7690.86,-63224.28,0.7291237057260819,2.736338229222257,0.6595577413461828,-3.7018882439272445,2.857637471621604,2.8490724313105593,4.098297438152098,-0.5936382190892463,0.408018975,-0.934018605,0.163878975,-3.3266799999999996,-0.9003399999999999,-5.93614,68.0
1774823476.828689,0.0033485889434814453,2026-03-29T22:31:16.828,2026-03-29T18:31:16.828,-22022.64,-43394.174999999996,-77178.015,-48797.055,-8963.279999999999,-16276.545,7715.7,-63207.854999999996,3.766842200303325,6.614465684944042,5.534044799219195,3.610493214455579,5.262627189820443,3.241370170239529,2.4763851204463503,1.7304392089381722,0.408018975,-0.934018605,0.163878975,-3.3266799999999996,-0.9003399999999999,-5.93614,68.0
1774823476.8287256,3.647804260253906e-05,2026-03-29T22:31:16.828,2026-03-29T18:31:16.828,-22022.28,-43404.479999999996,-77205.78,-48817.125,-8980.695,-16286.13,7739.594999999999,-63198.72,5.357776438778136,7.753594390666845,8.092289281364618,9.566026400313435,5.527766682722011,2.250829071208,-0.5691365361136983,3.433049793840805,0.408018975,-0.934018605,0.163878975,-3.3266799999999996,-0.9003399999999999,-5.93614,68.0
1774823476.8327515,0.004025936126708984,2026-03-29T22:31:16.832,2026-03-29T18:31:16.832,-22011.93,-43410.645,-77216.22,-48810.78,-8994.105,-16315.83,7730.235,-63186.704999999994,4.615639998829804,5.445954922655052,7.1641746859196935,11.51530801940141,3.4534842995182977,0.3842401402770848,-3.4646095797253476,3.7055275448869005,0.401060985,-0.92175057,0.171081105,-9.03392,-7.3248,-4.9900199999999995,68.0
1774823476.8327682,1.6689300537109375e-05,2026-03-29T22:31:16.832,2026-03-29T18:31:16.832,-22011.704999999998,-43419.645,-77226.97499999999,-48800.34,-8998.47,-16325.324999999999,7694.91,-63182.384999999995,1.6805758100878982,0.5374066413399793,3.1010651886712104,8.517435437007451,-0.15724630872035644,-1.5168998435241974,-4.651993605551672,2.334309994865251,0.401060985,-0.92175057,0.171081105,-9.03392,-7.3248,-4.9900199999999995,68.0
1774823476.8382232,0.00545501708984375,2026-03-29T22:31:16.838,2026-03-29T18:31:16.838,-22034.204999999998,-43440.165,-77257.44,-48822.165,-9008.19,-16316.955,7694.37,-63194.445,-2.251500362168535,-4.8676440053148555,-2.3619519012887533,1.7841114021175322,-3.8048213509108675,-2.6558867950351535,-3.4127867500822373,-0.15807581400424123,0.401060985,-0.92175057,0.171081105,-9.03392,-7.3248,-4.9900199999999995,68.0
1774823476.8382413,1.811981201171875e-05,2026-03-29T22:31:16.838,2026-03-29T18:31:16.838,-22037.265,-43439.58,-77265.09,-48871.845,-9034.47,-16319.744999999999,7705.08,-63197.1,-5.413743906945301,-8.316809849008074,-6.859097801763843,-5.826170859750413,-5.920636817232202,-2.6131628051014313,-0.27977381458522715,-2.7048494618453653,0.401060985,-0.92175057,0.171081105,-9.03392,-7.3248,-4.9900199999999995,68.0
1774823476.851818,0.013576745986938477,2026-03-29T22:31:16.851,2026-03-29T18:31:16.851,-22040.325,-43424.28,-77260.185,-48900.42,-9016.065,-16288.74,7719.12,-63214.965,-6.271850053569359,-8.137486349238264,-8.429230583104893,-11.043575245156612,-5.551395291777395,-1.4939032472402016,3.1922135921395385,-4.1529567170299515,0.401060985,-0.92175057,0.171081105,-9.03392,-7.3248,-4.9900199999999995,68.0
1774823476.8518348,1.6689300537109375e-05,2026-03-29T22:31:16.851,2026-03-29T18:31:16.851,-22030.11,-43417.979999999996,-77265.36,-48922.2,-9015.074999999999,-16296.705,7724.295,-63202.77,-4.276191841912841,-4.256454905981129,-6.375721285709221,-11.606996588430249,-2.7970040311862125,0.15681456225846432,5.198016967761762,-3.789755637434623,0.401060985,-0.92175057,0.171081105,-9.03392,-7.3248,-4.9900199999999995,68.0
1774823476.8518484,1.3589859008789062e-05,2026-03-29T22:31:16.851,2026-03-29T18:31:16.851,-22020.614999999998,-43412.04,-77266.98,-48906.765,-9010.484999999999,-16306.92,7714.485,-63199.845,-0.1908007923224171,1.6933832046801782,-1.5726827529709384,-7.244963205005054,1.202700191369903,1.6162668306500483,4.612695896067609,-1.695802723765564,0.401060985,-0.92175057,0.171081105,-9.03392,-7.3248,-4.9900199999999995,68.0
1774823476.8518536,5.245208740234375e-06,2026-03-29T22:31:16.851,2026-03-29T18:31:16.851,-22014.54,-43401.689999999995,-77254.605,-48888.765,-9002.52,-16298.234999999999,7710.66,-63193.229999999996,4.189443176894854,7.062312033607044,3.9147670252113853,0.20794861127270414,4.741575879300702,2.298643278818662,1.603380474305019,1.2514024352079895,0.401060985,-0.92175057,0.171081105,-9.03392,-7.3248,-4.9900199999999995,68.0
1774823476.8518593,5.7220458984375e-06,2026-03-29T22:31:16.851,2026-03-29T18:31:16.851,-22022.01,-43408.799999999996,-77249.16,-48887.46,-9012.6,-16310.34,7704.9,-63193.86,6.833847675709453,9.376746301381527,7.727142200695809,7.602136304718808,6.283396700794158,1.9860441302372687,-2.4043112050150506,3.7433831711846866,0.401060985,-0.92175057,0.171081105,-9.03392,-7.3248,-4.9900199999999995,68.0
1774823476.851864,4.76837158203125e-06,2026-03-29T22:31:16.851,2026-03-29T18:31:16.851,-22030.469999999998,-43421.04,-77252.58,-48889.755,-9019.529999999999,-16321.23,7681.679999999999,-63204.119999999995,6.427663855961319,7.492760256787413,8.231107988013639,11.820498721543936,5.139068697424858,0.8874172678593646,-5.408660593634503,4.624364845225366,0.401060985,-0.92175057,0.171081105,-9.03392,-7.3248,-4.9900199999999995,68.0
1774823476.85187,5.9604644775390625e-06,2026-03-29T22:31:16.851,2026-03-29T18:31:16.851,-22010.805,-43400.97,-77213.52,-48876.39,-9012.015,-16326.72,7669.304999999999,-63194.445,3.029787488737601,2.1664393788118277,5.220696217962841,11.098255109318476,1.7817062487042665,-0.4833915267907073,-5.833102029001714,3.4309281328738614,0.400694775,-0.927304755,0.169372125,-10.16316,-7.446879999999999,-4.24228,68.0
1774823476.851874,4.0531158447265625e-06,2026-03-29T22:31:16.851,2026-03-29T18:31:16.851,-21992.129999999997,-43398.134999999995,-77206.095,-48879.945,-9009.404999999999,-16311.599999999999,7722.945,-63171.81,-1.8940227350687693,-4.244707029101352,-0.0014161614740897754,5.754370721223427,-2.347416796256134,-1.5439349489284822,-3.3442152010097623,0.634202763699318,0.400694775,-0.927304755,0.169372125,-10.16316,-7.446879999999999,-4.24228,68.0
1774823476.8579292,0.006055116653442383,2026-03-29T22:31:16.857,2026-03-29T18:31:16.857,-21997.89,-43415.1,-77213.79,-48868.335,-9015.795,-16307.46,7772.58,-63163.034999999996,-6.106004735392386,-8.83360493070708,-5.192585725551165,-1.9640249760727402,-5.4631786351122145,-1.8868630118008107,0.9351460848385801,-2.540923514522597,0.400694775,-0.927304755,0.169372125,-10.16316,-7.446879999999999,-4.24228,68.0
1774823476.857956,2.6702880859375e-05,2026-03-29T22:31:16.857,2026-03-29T18:31:16.857,-22022.055,-43424.505,-77208.48,-48844.08,-9015.48,-16319.88,7737.66,-63181.53,-7.622773661361481,-9.47543297535677,-8.138621575377103,-8.84184377453369,-6.218222806447368,-1.431315501761601,4.942109814206381,-4.652711378993403,0.400694775,-0.927304755,0.169372125,-10.16316,-7.446879999999999,-4.24228,68.0
1774823476.860544,0.002588033676147461,2026-03-29T22:31:16.860,2026-03-29T18:31:16.860,-22045.86,-43427.564999999995,-77220.81,-48848.174999999996,-9008.01,-16311.51,7697.295,-63215.145,-5.657899655903546,-5.823313156592174,-7.602293263543124,-12.043559267226215,-4.2953166708363755,-0.42897620678727594,6.677572956730675,-4.699801964837796,0.400694775,-0.927304755,0.169372125,-10.16316,-7.446879999999999,-4.24228,68.0
1774823476.860566,2.193450927734375e-05,2026-03-29T22:31:16.860,2026-03-29T18:31:16.860,-22035.105,-43417.215,-77217.03,-48847.275,-9004.68,-16307.865,7703.415,-63213.075,-1.0289031155671486,0.5034525488815382,-3.8447893215547206,-10.280323556053531,-0.5458230487162987,0.6650980794953868,5.2047024705370015,-2.5979208810613645,0.400694775,-0.927304755,0.169372125,-10.16316,-7.446879999999999,-4.24228,68.0
1774823476.867434,0.006868124008178711,2026-03-29T22:31:16.867,2026-03-29T18:31:16.867,-22021.335,-43421.85,-77236.065,-48866.13,-9021.914999999999,-16326.0,7700.085,-63197.009999999995,4.181334258135563,6.640228154984171,1.4999989720231193,-4.318533119954889,3.38845771075879,1.3937844226579181,1.1424036987460269,0.7515481535818241,0.400694775,-0.927304755,0.169372125,-10.16316,-7.446879999999999,-4.24228,68.0
1774823476.867463,2.9087066650390625e-05,2026-03-29T22:31:16.867,2026-03-29T18:31:16.867,-22014.27,-43415.685,-77234.535,-48866.22,-9016.38,-16322.49,7682.535,-63195.119999999995,7.568973742329768,9.784568150519588,6.138720851050664,3.3647544282596087,5.8015834528357315,1.4849337745259434,-3.6021131287390293,3.846567763740748,0.400694775,-0.927304755,0.169372125,-10.16316,-7.446879999999999,-4.24228,68.0
1774823476.8674867,2.3603439331054688e-05,2026-03-29T22:31:16.867,2026-03-29T18:31:16.867,-22006.665,-43406.729999999996,-77227.425,-48868.11,-9011.385,-16321.275,7671.285,-63187.155,7.52750041197299,8.48895884341127,8.10771218696854,9.619884272643937,5.673489388056225,0.9500866019139588,-6.742364720736846,5.259024457124629,0.400694775,-0.927304755,0.169372125,-10.16316,-7.446879999999999,-4.24228,68.0
1774823476.8675032,1.6450881958007812e-05,2026-03-29T22:31:16.867,2026-03-29T18:31:16.867,-22013.415,-43401.465,-77214.105,-48865.545,-8999.865,-16308.0,7686.585,-63196.064999999995,4.0152180464103955,3.336960778161165,6.610141599582616,11.91804685444621,3.109580544364808,0.060906621201910024,-6.723858112676554,4.295197134369794,0.400694775,-0.927304755,0.169372125,-10.16316,-7.446879999999999,-4.24228,68.0
1774823476.8732018,0.005698680877685547,2026-03-29T22:31:16.873,2026-03-29T18:31:16.873,-22031.37,-43404.39,-77199.84,-48852.99,-8990.369999999999,-16292.205,7720.38,-63214.244999999995,-1.3971661018309944,-3.3169929049273517,2.3420278004654236,9.369246838919567,-0.7233098947100972,-0.7800526456290064,-3.493271100314706,1.3359125128765403,0.4040517,-0.930356505,0.16699176,-3.76922,-5.81406,-5.7988,68.0
1774823476.8732247,2.288818359375e-05,2026-03-29T22:31:16.873,2026-03-29T18:31:16.873,-22026.059999999998,-43416.63,-77216.805,-48854.924999999996,-9005.445,-16311.465,7721.235,-63202.14,-6.23384141806866,-8.429105777803601,-2.8284428844989273,3.058043449340532,-4.130337619702816,-1.216265274620798,1.4551733255119184,-2.309999975879086,0.4040517,-0.930356505,0.16699176,-3.76922,-5.81406,-5.7988,68.0
1774823476.8768384,0.003613710403442383,2026-03-29T22:31:16.876,2026-03-29T18:31:16.876,-22023.989999999998,-43428.33,-77233.59,-48860.145,-9020.654999999999,-16329.24,7719.66,-63193.59,-8.25485100422981,-9.669702879496338,-6.682649018286986,-4.425140106299895,-5.646734255183579,-1.086869353751836,5.784678025587291,-4.984359523970941,0.4040517,-0.930356505,0.16699176,-3.76922,-5.81406,-5.7988,68.0
1774823476.8768752,3.6716461181640625e-05,2026-03-29T22:31:16.876,2026-03-29T18:31:16.876,-22019.129999999997,-43427.205,-77237.86499999999,-48852.854999999996,-9018.045,-16330.32,7714.844999999999,-63189.854999999996,-6.500623599780417,-6.496732547391693,-7.612158508554449,-10.052612435117585,-4.677941792147073,-0.48726107569733773,7.433407768098207,-5.434307523373677,0.4040517,-0.930356505,0.16699176,-3.76922,-5.81406,-5.7988,68.0
1774823476.8806653,0.003790140151977539,2026-03-29T22:31:16.880,2026-03-29T18:31:16.880,-22026.42,-43414.38,-77223.87,-48825.72,-8997.615,-16315.244999999999,7732.08,-63211.32,-1.749548981986647,-0.39958664340638045,-5.298868318520602,-11.586072099612599,-1.7374831309221743,0.28312091354064367,5.604048885656796,-3.399030653088583,0.4040517,-0.930356505,0.16699176,-3.76922,-5.81406,-5.7988,68.0
1774823476.8806834,1.811981201171875e-05,2026-03-29T22:31:16.880,2026-03-29T18:31:16.880,-22019.04,-43407.72,-77223.33,-48827.205,-8993.43,-16313.265,7727.94,-63205.695,3.8303741153268813,5.799507580070497,-0.8223903165245113,-8.464412450017539,1.8152392721168495,0.8616801961049156,1.1472012172381212,0.2462049661811579,0.4040517,-0.930356505,0.16699176,-3.76922,-5.81406,-5.7988,68.0
1774823476.884622,0.0039386749267578125,2026-03-29T22:31:16.884,2026-03-29T18:31:16.884,-22012.829999999998,-43403.715,-77222.745,-48838.95,-8985.42,-16302.33,7739.73,-63196.604999999996,7.67813198589371,9.258890561037294,3.8424939093419552,-2.0013718285924647,4.406930523898423,0.989590586343077,-3.844784761082093,3.8655466270815464,0.4040517,-0.930356505,0.16699176,-3.76922,-5.81406,-5.7988,68.0
1774823476.8846536,3.147125244140625e-05,2026-03-29T22:31:16.884,2026-03-29T18:31:16.884,-22024.53,-43418.34,-77249.52,-48892.95,-9014.535,-16315.47,7708.455,-63207.72,8.022574813121008,8.431327830888018,6.70599330773597,5.17390296759647,4.957159317950706,0.6296941845914678,-7.034879077872246,5.796583666223493,0.4040517,-0.930356505,0.16699176,-3.76922,-5.81406,-5.7988,68.0
1774823476.8889296,0.0042760372161865234,2026-03-29T22:31:16.888,2026-03-29T18:31:16.888,-22036.68,-43426.575,-77258.385,-48911.805,-9017.145,-16302.96,7710.21,-63222.21,4.701450823239897,3.765957928297143,6.625372669053803,10.193858977006938,3.3381949253376564,-0.01931270555160408,-6.947880806992461,5.113221706598003,0.4040517,-0.930356505,0.16699176,-3.76922,-5.81406,-5.7988,68.0
1774823476.8889494,1.9788742065429688e-05,2026-03-29T22:31:16.888,2026-03-29T18:31:16.888,-22020.39,-43421.85,-77259.465,-48884.445,-9010.529999999999,-16306.92,7719.929999999999,-63203.13,-0.7639669234481766,-2.5245615907372945,3.7688732966541516,11.103243646306996,0.38766195072972437,-0.6209024986947643,-3.6572738475565227,2.0673983683320576,0.4040517,-0.930356505,0.16699176,-3.76922,-5.81406,-5.7988,68.0
1774823476.8925076,0.0035581588745117188,2026-03-29T22:31:16.892,2026-03-29T18:31:16.892,-22009.68,-43421.49,-77261.44499999999,-48891.869999999995,-9024.39,-16323.074999999999,7713.585,-63188.28,-5.871958187005462,-7.514664435652761,-0.5121972649686604,7.618895385635449,-2.5155005239736306,-0.8668585161123239,1.2691398221591583,-2.0000316341494386,0.409117605,-0.92248299,0.163268625,1.0834599999999999,-4.77638,-6.165039999999999,68.0
1774823476.8925252,1.7642974853515625e-05,2026-03-29T22:31:16.892,2026-03-29T18:31:16.892,-22016.52,-43424.865,-77255.81999999999,-48895.784999999996,-9029.205,-16324.289999999999,7711.424999999999,-63201.915,-8.292901895526127,-8.934765636921469,-4.326325746642238,1.202456751205479,-4.100756135754175,-0.6327212363539181,5.52771584380051,-5.249482957051578,0.409117605,-0.92248299,0.163268625,1.0834599999999999,-4.77638,-6.165039999999999,68.0
1774823476.897446,0.0049207210540771484,2026-03-29T22:31:16.897,2026-03-29T18:31:16.897,-22023.135,-43418.79,-77236.37999999999,-48890.924999999996,-9023.085,-16316.955,7710.795,-63217.079999999994,-6.936453581253427,-6.214260067986312,-6.092995434182333,-5.564757378835964,-3.7733128390482777,-0.044993438927242904,7.169800421127745,-6.173812427471854,0.409117605,-0.92248299,0.163268625,1.0834599999999999,-4.77638,-6.165039999999999,68.0
1774823476.8974764,3.0517578125e-05,2026-03-29T22:31:16.897,2026-03-29T18:31:16.897,-22034.43,-43427.384999999995,-77248.62,-48895.424999999996,-9017.1,-16316.01,7708.5,-63224.145,-2.442068317749152,-0.7144702725435162,-5.212035023463268,-10.032951611080021,-1.8406859128732687,0.5778012983362038,5.502748603772198,-4.294991186080599,0.409117605,-0.92248299,0.163268625,1.0834599999999999,-4.77638,-6.165039999999999,68.0
1774823476.90094,0.0034635066986083984,2026-03-29T22:31:16.900,2026-03-29T18:31:16.900,-22026.149999999998,-43428.465,-77246.955,-48862.395,-9000.81,-16315.83,7707.375,-63214.335,3.1274707339152106,4.94571336366871,-2.259396112871482,-10.526198997987859,0.6904060989851085,0.8865894744570019,1.380795776227174,-0.40512813265849373,0.409117605,-0.92248299,0.163268625,1.0834599999999999,-4.77638,-6.165039999999999,68.0
1774823476.9009624,2.2411346435546875e-05,2026-03-29T22:31:16.900,2026-03-29T18:31:16.900,-22023.629999999997,-43425.045,-77231.205,-48845.88,-9002.835,-16316.369999999999,7702.5599999999995,-63211.59,7.240141719118864,8.140039052181638,1.3522258207005187,-6.961357927297253,2.629624638884619,0.6879538361077885,-3.235200876063088,3.767255550309435,0.409117605,-0.92248299,0.163268625,1.0834599999999999,-4.77638,-6.165039999999999,68.0
1774823476.909367,0.008404731750488281,2026-03-29T22:31:16.909,2026-03-29T18:31:16.909,-22015.215,-43426.845,-77236.92,-48847.229999999996,-9011.88,-16325.73,7692.57,-63197.82,8.051306194674575,7.462654391678148,4.059906544378483,-0.8176307003733085,3.170570697894138,0.05888560102713278,-6.221342677517244,6.324893367317034,0.409117605,-0.92248299,0.163268625,1.0834599999999999,-4.77638,-6.165039999999999,68.0
1774823476.9093904,2.3365020751953125e-05,2026-03-29T22:31:16.909,2026-03-29T18:31:16.909,-22025.565,-43428.6,-77226.345,-48828.104999999996,-9000.945,-16322.894999999999,7689.375,-63210.149999999994,5.231631398504511,3.3552561740838254,4.846296533992296,5.49791078439408,2.2366109930661797,-0.6759359925577751,-6.279205684030827,6.062343845133038,0.409117605,-0.92248299,0.163268625,1.0834599999999999,-4.77638,-6.165039999999999,68.0
1774823476.9094083,1.7881393432617188e-05,2026-03-29T22:31:16.909,2026-03-29T18:31:16.909,-22042.89,-43432.83,-77220.54,-48820.185,-8987.805,-16312.59,7698.825,-63224.189999999995,0.09441599253411208,-2.150273786373467,3.624895437880349,9.606602926446143,0.45121047275107484,-1.1029267671198602,-3.504722967321594,3.0299000533976055,0.409117605,-0.92248299,0.163268625,1.0834599999999999,-4.77638,-6.165039999999999,68.0
1774823476.9094155,7.152557373046875e-06,2026-03-29T22:31:16.909,2026-03-29T18:31:16.909,-22040.594999999998,-43428.915,-77210.50499999999,-48781.53,-8985.015,-16309.574999999999,7703.1449999999995,-63216.63,-5.023035193856738,-6.432874018420079,1.1649907598424984,10.047271602222125,-1.2300068396573554,-0.9404086868464633,0.7132621654505141,-1.4611725610252986,0.409117605,-0.92248299,0.163268625,1.0834599999999999,-4.77638,-6.165039999999999,68.0
1774823476.916875,0.007459402084350586,2026-03-29T22:31:16.916,2026-03-29T18:31:16.916,-22032.629999999997,-43422.75,-77222.43,-48797.505,-8989.74,-16308.404999999999,7711.29,-63208.034999999996,-7.8291239617232025,-7.535355273931681,-1.3620130332572915,6.766330782097419,-2.022392281796095,-0.2076220333623176,4.390737514661894,-5.405578698249584,0.41467179,-0.91332774,0.15429648,1.72438,-5.31048,-4.79164,68.0
1774823476.916904,2.9087066650390625e-05,2026-03-29T22:31:16.916,2026-03-29T18:31:16.916,-22023.54,-43423.74,-77247.36,-48877.784999999996,-8998.109999999999,-16305.029999999999,7714.259999999999,-63196.155,-7.105930956360723,-5.067992900631499,-2.9580923911811228,1.0596613047382506,-1.6890342064463215,0.7544992427509142,5.891178906346279,-6.997775200265476,0.41467179,-0.91332774,0.15429648,1.72438,-5.31048,-4.79164,68.0
1774823476.9169292,2.5272369384765625e-05,2026-03-29T22:31:16.916,2026-03-29T18:31:16.916,-22018.32,-43425.72,-77268.375,-48935.295,-9017.369999999999,-16311.689999999999,7704.674999999999,-63190.575,-3.233375311280885,-0.3411082923284546,-3.2053829434015246,-4.9629160967952695,-0.6056656432402793,1.436440613051791,4.66161534334882,-5.454820698514267,0.41467179,-0.91332774,0.15429648,1.72438,-5.31048,-4.79164,68.0
1774823476.9169407,1.1444091796875e-05,2026-03-29T22:31:16.916,2026-03-29T18:31:16.916,-22013.145,-43410.24,-77245.785,-48931.74,-9026.414999999999,-16321.275,7699.815,-63185.985,2.0135683656961136,4.316221364759795,-2.329901801828875,-9.155078773755475,0.5024955936679506,1.4213576208671472,1.4280624401476578,-1.394909615261258,0.41467179,-0.91332774,0.15429648,1.72438,-5.31048,-4.79164,68.0
1774823476.9206283,0.003687620162963867,2026-03-29T22:31:16.920,2026-03-29T18:31:16.920,-21990.329999999998,-43388.82,-77216.94,-48936.42,-9033.705,-16326.99,7711.92,-63163.305,6.285181894464297,6.702546853221453,-0.9440106240094974,-10.064432520524178,0.9946616913118256,0.6237988506168458,-2.2136002567567576,3.408728842228928,0.41467179,-0.91332774,0.15429648,1.72438,-5.31048,-4.79164,68.0
1774823476.920658,2.9802322387695312e-05,2026-03-29T22:31:16.920,2026-03-29T18:31:16.920,-21967.605,-43376.174999999996,-77196.51,-48914.28,-9032.039999999999,-16319.789999999999,7740.99,-63134.865,7.712344075592889,5.791545614122122,0.34407516979104336,-7.384426396872675,0.6749171759352554,-0.6256779446318097,-4.587495057292729,6.801125947974627,0.41467179,-0.91332774,0.15429648,1.72438,-5.31048,-4.79164,68.0
1774823476.924633,0.00397491455078125,2026-03-29T22:31:16.924,2026-03-29T18:31:16.924,-21986.055,-43390.439999999995,-77188.095,-48869.775,-9032.22,-16335.314999999999,7726.86,-63148.229999999996,5.721373959256679,2.1788764923098976,1.2174354838320656,-2.0185511574850072,-0.11969968017505067,-1.7117292976166243,-4.716803547872948,7.209355271628575,0.41467179,-0.91332774,0.15429648,1.72438,-5.31048,-4.79164,68.0
1774823476.9246464,1.33514404296875e-05,2026-03-29T22:31:16.924,2026-03-29T18:31:16.924,-22037.085,-43408.799999999996,-77185.98,-48827.025,-8991.765,-16307.64,7706.61,-63209.52,1.2548657570473658,-2.2692186775189964,1.6882621289022164,4.225035951085355,-0.7488365299241156,-2.0330718043303575,-2.7269216050989464,4.367229726435628,0.41467179,-0.91332774,0.15429648,1.72438,-5.31048,-4.79164,68.0
1774823476.928604,0.003957509994506836,2026-03-29T22:31:16.928,2026-03-29T18:31:16.928,-22034.52,-43422.255,-77218.73999999999,-48856.905,-9006.435,-16313.13,7711.92,-63198.45,-3.6806013802915434,-5.369980290211009,1.909616131626997,9.199388209415245,-0.6820897679253345,-1.3258722010838064,0.29380309801501914,-0.5308019788661869,0.41467179,-0.91332774,0.15429648,1.72438,-5.31048,-4.79164,68.0
1774823476.9286218,1.7881393432617188e-05,2026-03-29T22:31:16.928,2026-03-29T18:31:16.928,-22040.504999999997,-43426.439999999995,-77225.76,-48860.009999999995,-9003.42,-16306.83,7724.429999999999,-63203.67,-6.919998865262645,-5.696923571010008,1.9287026637794897,11.090231677532467,0.14566448960954032,0.15879917148062894,2.8750958258033315,-5.32967463121248,0.41467179,-0.91332774,0.15429648,1.72438,-5.31048,-4.79164,68.0
1774823476.9328525,0.0042307376861572266,2026-03-29T22:31:16.932,2026-03-29T18:31:16.932,-22033.215,-43424.549999999996,-77232.555,-48874.005,-9011.654999999999,-16310.699999999999,7722.585,-63198.854999999996,-7.088015350553304,-3.243074477056511,1.5804257631517247,9.022918289317182,1.252450366137757,1.732764865308662,3.882686221047594,-7.859314751207652,0.41931045,-0.91393809,0.15161094,-0.36624,-10.1479,-2.1669199999999997,68.0
1774823476.9328668,1.430511474609375e-05,2026-03-29T22:31:16.932,2026-03-29T18:31:16.932,-22023.945,-43422.255,-77239.34999999999,-48895.244999999995,-9021.33,-16321.545,7713.45,-63189.674999999996,-4.175663990132394,0.6372663041667241,0.6179815945770851,3.4365782344804914,1.8666436774010613,2.587754954905436,3.0219587776604597,-6.912403934807923,0.41931045,-0.91393809,0.15161094,-0.36624,-10.1479,-2.1669199999999997,68.0
1774823476.9375043,0.004637479782104492,2026-03-29T22:31:16.937,2026-03-29T18:31:16.937,-22023.855,-43419.509999999995,-77235.795,-48888.945,-9017.505,-16325.505,7705.844999999999,-63189.27,0.4921792813141791,3.9553233062968114,-0.9960622770489199,-3.918387862203514,1.3941366661625143,2.2070615152334216,0.9016713875180474,-2.8156807029906656,0.41931045,-0.91393809,0.15161094,-0.36624,-10.1479,-2.1669199999999997,68.0
1774823476.9375248,2.0503997802734375e-05,2026-03-29T22:31:16.937,2026-03-29T18:31:16.937,-22018.05,-43419.015,-77230.98,-48878.955,-9010.44,-16320.644999999999,7707.0599999999995,-63184.77,4.863812653298059,5.100802209834177,-2.8497279629849555,-10.433625767031858,-0.16762528695536535,0.6636938847095054,-1.3405476951437756,2.6733440587755806,0.41931045,-0.91393809,0.15161094,-0.36624,-10.1479,-2.1669199999999997,68.0
1774823476.9432473,0.005722522735595703,2026-03-29T22:31:16.943,2026-03-29T18:31:16.943,-22008.78,-43420.455,-77226.525,-48871.125,-9002.744999999999,-16306.425,7718.219999999999,-63165.42,7.062174545665858,3.6273949119084072,-4.107871622364879,-13.490494984192985,-2.1235552555234407,-1.3621085172021998,-2.6362512696667153,7.117136449980202,0.41931045,-0.91393809,0.15161094,-0.36624,-10.1479,-2.1669199999999997,68.0
1774823476.9432683,2.09808349609375e-05,2026-03-29T22:31:16.943,2026-03-29T18:31:16.943,-22025.204999999998,-43436.835,-77240.745,-48876.21,-9007.47,-16305.57,7720.065,-63160.515,6.185192044373716,0.42560131574072807,-3.8746927520643926,-11.4749424224009,-3.382600599457019,-2.8802352823011224,-2.4980754154116487,8.4776269276757,0.41931045,-0.91393809,0.15161094,-0.36624,-10.1479,-2.1669199999999997,68.0
1774823476.9471824,0.0039141178131103516,2026-03-29T22:31:16.947,2026-03-29T18:31:16.947,-22027.77,-43434.854999999996,-77247.45,-48877.695,-9014.49,-16316.82,7709.535,-63163.89,2.6671767948384253,-2.7840343279820106,-1.7431768024793795,-4.5897079951754804,-3.040846343112012,-3.074854917325548,-1.1992706546803749,6.048264356314632,0.41931045,-0.91393809,0.15161094,-0.36624,-10.1479,-2.1669199999999997,68.0
1774823476.9472027,2.0265579223632812e-05,2026-03-29T22:31:16.947,2026-03-29T18:31:16.947,-22009.004999999997,-43428.78,-77259.06,-48896.46,-9040.635,-16346.07,7692.165,-63165.42,-1.9383325777992777,-4.359675118309164,1.7806026228024388,4.929025632690737,-0.9436409033674049,-1.7388285136905515,0.4431533311586612,0.8138901788419053,0.41931045,-0.91393809,0.15161094,-0.36624,-10.1479,-2.1669199999999997,68.0
1774823476.9472225,1.9788742065429688e-05,2026-03-29T22:31:16.947,2026-03-29T18:31:16.947,-22024.035,-43423.064999999995,-77241.42,-48880.08,-9031.275,-16336.89,7707.87,-63189.63,-5.644897173561635,-3.5749724770279485,5.28412271205013,13.42341434603469,2.0984601066966473,0.5712571717383368,1.5418370402431223,-4.942213126591353,0.41931045,-0.91393809,0.15161094,-0.36624,-10.1479,-2.1669199999999997,68.0
1774823476.9472296,7.152557373046875e-06,2026-03-29T22:31:16.947,2026-03-29T18:31:16.947,-22024.215,-43412.715,-77222.7,-48883.32,-9032.265,-16338.375,7714.3949999999995,-63191.34,-6.8857453478341615,-0.9584277213560384,6.992617366524567,17.162467946514365,4.607698960934158,2.7614814158844263,1.6074455432866288,-8.631028637997531,0.41931045,-0.91393809,0.15161094,-0.36624,-10.1479,-2.1669199999999997,68.0
1774823476.9534705,0.0062408447265625,2026-03-29T22:31:16.953,2026-03-29T18:31:16.953,-22005.765,-43402.14,-77218.155,-48905.549999999996,-9034.83,-16337.789999999999,7707.509999999999,-63174.104999999996,-5.169476324021035,2.0256152182533653,5.655199213158914,13.965413732518462,5.151327665839974,3.7199329409119013,0.7688116966268023,-8.520920596039053,0.428770875,-0.919980555,0.15515097,2.85362,-7.828379999999999,1.72438,68.0
1774823476.9534986,2.8133392333984375e-05,2026-03-29T22:31:16.953,2026-03-29T18:31:16.953,-22000.454999999998,-43399.665,-77216.805,-48876.705,-9003.33,-16319.699999999999,7718.3099999999995,-63163.395,-1.268459408082407,3.7732514070199925,1.3361321155083599,4.403456663947179,3.1275777025849205,2.8822279641822965,-0.3552072595682564,-4.549779366234954,0.428770875,-0.919980555,0.15515097,2.85362,-7.828379999999999,1.72438,68.0
1774823476.956751,0.0032525062561035156,2026-03-29T22:31:16.956,2026-03-29T18:31:16.956,-22017.149999999998,-43403.939999999995,-77218.33499999999,-48849.57,-8988.119999999999,-16307.505,7714.485,-63182.159999999996,3.128731939481452,3.390280893879139,-4.353920957883053,-8.05851973045415,-0.7944682603778612,0.555320887428816,-1.0431106900785136,1.5943346474046671,0.428770875,-0.919980555,0.15515097,2.85362,-7.828379999999999,1.72438,68.0
1774823476.9567745,2.3365020751953125e-05,2026-03-29T22:31:16.956,2026-03-29T18:31:16.956,-22034.475,-43431.255,-77266.935,-48885.615,-9013.365,-16320.689999999999,7698.195,-63190.755,6.144866281618275,1.1497051282452593,-8.818386796044258,-18.230250021457568,-4.860222549337445,-2.182753471718219,-0.8933977385928978,7.1856633704786,0.428770875,-0.919980555,0.15515097,2.85362,-7.828379999999999,1.72438,68.0
1774823476.9684153,0.011640787124633789,2026-03-29T22:31:16.968,2026-03-29T18:31:16.968,-22034.34,-43436.43,-77276.25,-48900.465,-9027.539999999999,-16337.07,7685.6849999999995,-63190.17,6.510559966479314,-1.6767699023923732,-9.657563566875252,-21.335083250119695,-7.01342607148506,-3.982711594788064,-0.04717505577342252,9.668953431198902,0.428770875,-0.919980555,0.15515097,2.85362,-7.828379999999999,1.72438,68.0
1774823476.9684336,1.8358230590820312e-05,2026-03-29T22:31:16.968,2026-03-29T18:31:16.968,-22032.18,-43437.555,-77276.34,-48910.5,-9035.865,-16350.93,7685.955,-63185.67,4.094991838629276,-3.516880512926744,-5.936916843337967,-15.252987667503746,-5.929587846134955,-3.891808423156426,0.9090040303900654,7.829037153220594,0.428770875,-0.919980555,0.15515097,2.85362,-7.828379999999999,1.72438,68.0
1774823476.968454,2.0265579223632812e-05,2026-03-29T22:31:16.968,2026-03-29T18:31:16.968,-22018.59,-43421.13,-77242.905,-48883.725,-9014.445,-16335.18,7688.969999999999,-63173.88,-0.04901199744209073,-3.3511962328960543,1.1210498289624002,-1.8152114156404475,-1.7822770138894386,-1.857970046133881,1.301027621534,2.3858544591180646,0.428770875,-0.919980555,0.15515097,2.85362,-7.828379999999999,1.72438,68.0
1774823476.9684584,4.5299530029296875e-06,2026-03-29T22:31:16.968,2026-03-29T18:31:16.968,-22013.73,-43415.595,-77222.79,-48869.595,-8997.119999999999,-16292.115,7718.67,-63160.2,-4.140596975913158,-1.2666541332797272,8.466261517495647,13.594553487542184,3.685025296338904,1.19619002161573,0.7814829002477935,-4.276899459818124,0.428770875,-0.919980555,0.15515097,2.85362,-7.828379999999999,1.72438,68.0
1774823476.9703555,0.0018970966339111328,2026-03-29T22:31:16.970,2026-03-29T18:31:16.970,-22023.45,-43424.235,-77245.47,-48871.755,-9004.455,-16284.824999999999,7728.344999999999,-63164.564999999995,-6.432439837375791,1.586027868081348,12.53316233622524,24.156649056935915,7.886681225501437,3.7900977023965186,-0.43734833718445204,-9.153764711031247,0.428770875,-0.919980555,0.15515097,2.85362,-7.828379999999999,1.72438,68.0
1774823476.9703777,2.2172927856445312e-05,2026-03-29T22:31:16.970,2026-03-29T18:31:16.970,-22023.135,-43417.89,-77235.075,-48842.145,-9004.68,-16304.22,7708.1849999999995,-63167.805,-5.955260278123316,3.6116053706140603,10.975345022024834,24.642485444289523,8.621997309927417,4.605479545386516,-1.6717782400361756,-9.976388421915026,0.428770875,-0.919980555,0.15515097,2.85362,-7.828379999999999,1.72438,68.0
1774823476.9729562,0.0025784969329833984,2026-03-29T22:31:16.972,2026-03-29T18:31:16.972,-22026.78,-43424.909999999996,-77240.655,-48856.229999999996,-9017.775,-16319.385,7704.855,-63170.595,-2.9292513411395835,3.6392207889250003,3.977476370306432,14.006115201039345,5.217587361456954,3.1586353156255065,-2.139178847733876,-6.273810048064835,0.42980847,-0.919614345,0.161681715,2.79258,-12.22326,8.13358,68.0
1774823476.9729776,2.1457672119140625e-05,2026-03-29T22:31:16.972,2026-03-29T18:31:16.972,-22023.18,-43430.22,-77256.09,-48888.405,-9023.94,-16318.349999999999,7707.825,-63161.64,1.3332936759745695,1.5766030372676079,-5.573532331993378,-3.7458436133716124,-1.004197033555756,0.08099747310904028,-1.4159358557757322,0.3639762322873891,0.42980847,-0.919614345,0.161681715,2.79258,-12.22326,8.13358,68.0
1774823476.9767048,0.0037271976470947266,2026-03-29T22:31:16.976,2026-03-29T18:31:16.976,-22018.364999999998,-43425.405,-77248.845,-48933.36,-9029.52,-16319.474999999999,7706.61,-63157.77,4.9937961340152235,-1.5075296489964893,-13.261825654379278,-20.993086763805053,-7.222531493515223,-3.151801822346317,0.27511471724197406,6.964731342983249,0.42980847,-0.919614345,0.161681715,2.79258,-12.22326,8.13358,68.0
