unix_time_s,dt_s,UTC,LOCAL,EMG1_Raw,EMG2_Raw,EMG3_Raw,EMG4_Raw,EMG5_Raw,EMG6_Raw,EMG7_Raw,EMG8_Raw,EMG1_Filtered,EMG2_Filtered,EMG3_Filtered,EMG4_Filtered,EMG5_Filtered,EMG6_Filtered,EMG7_Filtered,EMG8_Filtered,Accel1_Raw,Accel2_Raw,Accel3_Raw,Gyro1_Raw,Gyro2_Raw,Gyro3_Raw,Battery
1774822245.2928672,,2026-03-29T22:10:45.292,2026-03-29T18:10:45.292,-33566.445,-47883.284999999996,-84814.69499999999,-49992.795,-15243.615,-19658.204999999998,5374.665,-63411.884999999995,-0.22226868018072438,-0.4752941561387107,0.13296504609082688,-0.4720149617359575,-0.4697192721652176,-0.01200355350591863,0.13903936236020212,-0.265879079601273,-0.11779755,-0.9728979,0.253600425,1.70912,5.1273599999999995,-0.8087799999999999,71.0
1774822245.2928822,1.5020370483398438e-05,2026-03-29T22:10:45.292,2026-03-29T18:10:45.292,-33546.24,-47869.74,-84819.42,-50002.56,-15253.965,-19667.745,5372.28,-63387.854999999996,-0.19391850990217813,-0.7037604718033775,-0.5678635572989761,1.0597281380167582,0.8621912165065191,1.3721486456189673,1.5377972931269677,0.0013619370211889429,-0.11779755,-0.9728979,0.253600425,1.70912,5.1273599999999995,-0.8087799999999999,71.0
1774822245.2973392,0.004456996917724609,2026-03-29T22:10:45.297,2026-03-29T18:10:45.297,-33548.354999999996,-47888.369999999995,-84841.69499999999,-50013.72,-15262.38,-19678.364999999998,5369.22,-63381.329999999994,-0.120950120458115,-0.6175921847030966,-1.0982234979376482,2.2541179419142052,1.9242458218378238,2.229436593797843,2.208381493887394,0.24230313687791244,-0.1208493,-0.965024385,0.251159025,-0.28994,3.0825199999999997,-2.79258,71.0
1774822245.2973616,2.2411346435546875e-05,2026-03-29T22:10:45.297,2026-03-29T18:10:45.297,-33565.905,-47898.27,-84845.11499999999,-50007.104999999996,-15253.425,-19670.265,5374.575,-63396.765,-0.15797231722017455,-0.26974654563211264,-1.1755181855019203,2.6318772508303963,2.3237400968282738,2.2505973575133766,1.8901285345786298,0.2119539588917444,-0.1208493,-0.965024385,0.251159025,-0.28994,3.0825199999999997,-2.79258,71.0
1774822245.3008044,0.0034427642822265625,2026-03-29T22:10:45.300,2026-03-29T18:10:45.300,-33569.82,-47890.979999999996,-84828.015,-49998.555,-15250.365,-19667.969999999998,5377.905,-63399.915,-0.3331341105747542,0.17449842788107595,-0.7014540740917874,1.9900187794087056,1.874211621644561,1.4277124832500987,0.7717688883677076,-0.13375427993597241,-0.1208493,-0.965024385,0.251159025,-0.28994,3.0825199999999997,-2.79258,71.0
1774822245.3008204,1.5974044799804688e-05,2026-03-29T22:10:45.300,2026-03-29T18:10:45.300,-33565.049999999996,-47886.435,-84824.235,-50012.189999999995,-15265.845,-19679.85,5369.58,-63395.685,-0.5155870783366747,0.5204076939181551,0.17200488130514213,0.5121608134843345,0.6838694892467359,0.05846650636845714,-0.6125884956377902,-0.5950504565965202,-0.1208493,-0.965024385,0.251159025,-0.28994,3.0825199999999997,-2.79258,71.0
1774822245.3048437,0.004023313522338867,2026-03-29T22:10:45.304,2026-03-29T18:10:45.304,-33568.515,-47891.52,-84835.26,-50013.405,-15262.605,-19676.52,5367.599999999999,-63401.534999999996,-0.5004044956877953,0.6325748724326545,1.0869771266590211,-1.2624240030723994,-0.8487169004970403,-1.3536072326894528,-1.6396855011430007,-0.8437454680981107,-0.1208493,-0.965024385,0.251159025,-0.28994,3.0825199999999997,-2.79258,71.0
1774822245.30487,2.6226043701171875e-05,2026-03-29T22:10:45.304,2026-03-29T18:10:45.304,-33564.42,-47894.985,-84842.775,-50011.335,-15262.109999999999,-19678.68,5363.505,-63396.18,-0.15934012651319332,0.48734711358062266,1.6231136474924353,-2.6231401775364103,-2.1512377728576535,-2.2746231433254387,-1.882273247582839,-0.6303364548264665,-0.1208493,-0.965024385,0.251159025,-0.28994,3.0825199999999997,-2.79258,71.0
1774822245.3095238,0.0046539306640625,2026-03-29T22:10:45.309,2026-03-29T18:10:45.309,-33555.195,-47893.005,-84840.885,-50006.655,-15259.769999999999,-19683.36,5357.025,-63384.119999999995,0.43901323603859915,0.16868154165450772,1.484021458030643,-2.9707934005205034,-2.6835948225418824,-2.3364588715763572,-1.2908092243223914,0.040467940652803895,-0.1208493,-0.965024385,0.251159025,-0.28994,3.0825199999999997,-2.79258,71.0
1774822245.3095455,2.1696090698242188e-05,2026-03-29T22:10:45.309,2026-03-29T18:10:45.309,-33547.14,-47887.29,-84828.645,-50002.92,-15261.57,-19689.48,5353.2,-63372.149999999994,1.0232445068844107,-0.1828371387726327,0.6469798370920135,-2.087548775288265,-2.1637610284736195,-1.484861788015307,-0.19245532341925112,0.8746454072311974,-0.1208493,-0.965024385,0.251159025,-0.28994,3.0825199999999997,-2.79258,71.0
1774822245.3131,0.0035545825958251953,2026-03-29T22:10:45.313,2026-03-29T18:10:45.313,-33557.13,-47891.564999999995,-84833.37,-50002.92,-15257.474999999999,-19683.09,5360.535,-63384.75,1.246206315411037,-0.43661230904297543,-0.5946858598586873,-0.26960311229932404,-0.7181590458071487,-0.01935807203208306,0.8831988129811733,1.4251828485520606,-0.1208493,-0.965024385,0.251159025,-0.28994,3.0825199999999997,-2.79258,71.0
1774822245.3131235,2.3365020751953125e-05,2026-03-29T22:10:45.313,2026-03-29T18:10:45.313,-33570.72,-47892.645,-84826.8,-50000.895,-15251.49,-19673.1,5375.16,-63401.399999999994,0.8836620483248022,-0.520497761415354,-1.7269433417690454,1.756527873858065,1.12403998339966,1.5019476519050223,1.461204165802724,1.3328382134760624,-0.1208493,-0.965024385,0.251159025,-0.28994,3.0825199999999997,-2.79258,71.0
1774822245.3211465,0.00802302360534668,2026-03-29T22:10:45.321,2026-03-29T18:10:45.321,-33580.619999999995,-47887.02,-84808.53,-49990.905,-15245.414999999999,-19664.82,5380.065,-63416.924999999996,-0.006640844924565777,-0.4328213623442675,-2.2211155688774533,3.121394452250637,2.615125355311359,2.4690728814415213,1.3356718957064742,0.5410590697903414,-0.1232907,-0.95971434,0.24981625500000001,-1.9380199999999999,0.82404,-5.00528,71.0
1774822245.3211632,1.6689300537109375e-05,2026-03-29T22:10:45.321,2026-03-29T18:10:45.321,-33570.09,-47880.54,-84805.29,-49987.89,-15245.955,-19665.09,5378.535,-63406.845,-1.064930557898483,-0.22242723906952377,-1.7716885735678705,3.192007194022274,3.093248618616989,2.4652704219556423,0.6426025135358124,-0.6377307599240855,-0.1232907,-0.95971434,0.24981625500000001,-1.9380199999999999,0.82404,-5.00528,71.0
1774822245.321178,1.4781951904296875e-05,2026-03-29T22:10:45.321,2026-03-29T18:10:45.321,-33567.615,-47885.13,-84817.845,-49992.705,-15246.494999999999,-19664.505,5373.135,-63402.299999999996,-1.7778228716081546,0.042802319629984896,-0.46311898790454353,1.8747047295529915,2.282705283963805,1.4517349088557,-0.23470329697507622,-1.6514857711501825,-0.1232907,-0.95971434,0.24981625500000001,-1.9380199999999999,0.82404,-5.00528,71.0
1774822245.3211837,5.7220458984375e-06,2026-03-29T22:10:45.321,2026-03-29T18:10:45.321,-33566.58,-47888.775,-84820.36499999999,-49991.939999999995,-15247.755,-19673.28,5366.835,-63399.555,-1.7321684917709446,0.2979113741685493,1.2186653101679374,-0.3076413019925808,0.4507249305680441,-0.19259212170965406,-0.8709801846137114,-1.9763296909641448,-0.1232907,-0.95971434,0.24981625500000001,-1.9380199999999999,0.82404,-5.00528,71.0
1774822245.3248112,0.0036275386810302734,2026-03-29T22:10:45.324,2026-03-29T18:10:45.324,-33550.155,-47878.604999999996,-84809.655,-50000.354999999996,-15259.095,-19686.059999999998,5372.55,-63379.799999999996,-0.8466770166230209,0.48557104572464127,2.5558442864896733,-2.418527851805391,-1.6674822546097816,-1.8063092420509117,-1.0073876260044758,-1.3886643391353364,-0.1232907,-0.95971434,0.24981625500000001,-1.9380199999999999,0.82404,-5.00528,71.0
1774822245.3248289,1.7642974853515625e-05,2026-03-29T22:10:45.324,2026-03-29T18:10:45.324,-33547.59,-47880.765,-84813.705,-50016.24,-15273.765,-19694.88,5370.48,-63377.505,0.5458372157736292,0.5524588994837236,2.896589474977396,-3.515073604797523,-3.163262963765345,-2.711489550651132,-0.6598933170108139,-0.09957646697383911,-0.1232907,-0.95971434,0.24981625500000001,-1.9380199999999999,0.82404,-5.00528,71.0
1774822245.3296025,0.004773616790771484,2026-03-29T22:10:45.329,2026-03-29T18:10:45.329,-33547.095,-47880.494999999995,-84813.25499999999,-50000.445,-15259.275,-19676.835,5373.315,-63380.07,1.8234018310024689,0.4539559583769106,1.9623356755194366,-3.080051680315294,-3.351037535791138,-2.5033603794164083,-0.08059406968009641,1.3239402705941201,-0.1232907,-0.95971434,0.24981625500000001,-1.9380199999999999,0.82404,-5.00528,71.0
1774822245.3296244,2.193450927734375e-05,2026-03-29T22:10:45.329,2026-03-29T18:10:45.329,-33553.845,-47883.42,-84816.0,-49997.655,-15252.164999999999,-19663.469999999998,5372.955,-63389.88,2.3598813355130193,0.17636681358698156,0.02411987715071845,-1.2756356505177122,-2.090455795122214,-1.2373697299586206,0.3977702471660246,2.2191816379538816,-0.1232907,-0.95971434,0.24981625500000001,-1.9380199999999999,0.82404,-5.00528,71.0
1774822245.340059,0.010434627532958984,2026-03-29T22:10:45.340,2026-03-29T18:10:45.340,-33555.645,-47877.615,-84808.845,-49994.595,-15251.22,-19665.719999999998,5375.88,-63394.244999999995,1.8360180333788947,-0.2321348356688046,-2.1518217212763955,1.1098993777129396,0.12083917978968509,0.5756966685007724,0.5453888608652512,2.144718856852337,-0.1232907,-0.95971434,0.24981625500000001,-1.9380199999999999,0.82404,-5.00528,71.0
1774822245.3400798,2.0742416381835938e-05,2026-03-29T22:10:45.340,2026-03-29T18:10:45.340,-33566.174999999996,-47882.295,-84811.455,-49990.994999999995,-15247.664999999999,-19664.594999999998,5377.905,-63403.829999999994,0.4202545045339809,-0.6463139240796054,-3.595587752008298,3.0098628149015885,2.341307327158648,2.1748628734998054,0.3482615998879864,1.0987679878608159,-0.1232907,-0.95971434,0.24981625500000001,-1.9380199999999999,0.82404,-5.00528,71.0
1774822245.3400984,1.8596649169921875e-05,2026-03-29T22:10:45.340,2026-03-29T18:10:45.340,-33579.945,-47890.439999999995,-84815.86499999999,-49981.725,-15240.015,-19659.645,5376.78,-63418.77,-1.279961382982529,-0.8891224206100512,-3.558133370798868,3.5664119334666724,3.592147793008233,2.87242196058622,-0.006144573787274445,-0.46942218058361335,-0.12426726,-0.956845695,0.24853452,-4.1964999999999995,-1.6175599999999999,-5.1273599999999995,71.0
1774822245.3401055,7.152557373046875e-06,2026-03-29T22:10:45.340,2026-03-29T18:10:45.340,-33567.615,-47879.549999999996,-84796.245,-49974.03,-15237.045,-19655.415,5375.07,-63404.954999999994,-2.4853229401726535,-0.8024766617116748,-1.887109216287784,2.5300136198316716,3.2980270012914557,2.3560366348054136,-0.2559674691839814,-1.8625745352084433,-0.12426726,-0.956845695,0.24853452,-4.1964999999999995,-1.6175599999999999,-5.1273599999999995,71.0
1774822245.340696,0.0005905628204345703,2026-03-29T22:10:45.340,2026-03-29T18:10:45.340,-33559.604999999996,-47872.845,-84795.12,-49985.28,-15246.314999999999,-19662.165,5374.62,-63396.72,-2.6095416514885343,-0.3380830694714215,0.829747145404895,0.3794812370948539,1.559031386680802,0.8335799465210898,-0.2288106446237164,-2.45609298431441,-0.12426726,-0.956845695,0.24853452,-4.1964999999999995,-1.6175599999999999,-5.1273599999999995,71.0
1774822245.340707,1.0967254638671875e-05,2026-03-29T22:10:45.340,2026-03-29T18:10:45.340,-33564.915,-47882.88,-84815.81999999999,-50007.915,-15257.835,-19670.625,5373.0,-63399.825,-1.547701345108571,0.38035833676621306,3.451639152933556,-1.8988421033922886,-0.8779808776071907,-1.0486939119040914,0.052457851381624704,-1.9840139050764183,-0.12426726,-0.956845695,0.24853452,-4.1964999999999995,-1.6175599999999999,-5.1273599999999995,71.0
1774822245.346642,0.005934953689575195,2026-03-29T22:10:45.346,2026-03-29T18:10:45.346,-33569.415,-47888.415,-84817.34999999999,-49999.095,-15252.21,-19669.5,5371.5599999999995,-63404.145,0.254995379396079,1.0705462183869763,4.755161261634537,-3.2710763390340403,-2.944086779693475,-2.4833335129801,0.383172476848281,-0.6566345179073154,-0.12426726,-0.956845695,0.24853452,-4.1964999999999995,-1.6175599999999999,-5.1273599999999995,71.0
1774822245.3466609,1.8835067749023438e-05,2026-03-29T22:10:45.346,2026-03-29T18:10:45.346,-33572.655,-47886.345,-84805.29,-49996.53,-15257.564999999999,-19676.475,5366.205,-63409.68,1.9945239996215884,1.3957160509384454,3.999230967779738,-3.1369585603153145,-3.7259378997013437,-2.853732536302068,0.5029269729517153,0.9413218387784715,-0.12426726,-0.956845695,0.24853452,-4.1964999999999995,-1.6175599999999999,-5.1273599999999995,71.0
1774822245.3902662,0.04360532760620117,2026-03-29T22:10:45.390,2026-03-29T18:10:45.390,-33568.695,-47882.655,-84805.245,-50009.895,-15269.58,-19682.73,5364.945,-63406.259999999995,2.874781929802429,1.1253288588569073,1.326453991750998,-1.6027493689789452,-2.8786884843925895,-2.004636717216378,0.2625218202457014,2.1190173588779695,-0.12426726,-0.956845695,0.24853452,-4.1964999999999995,-1.6175599999999999,-5.1273599999999995,71.0
1774822245.3903043,3.814697265625e-05,2026-03-29T22:10:45.390,2026-03-29T18:10:45.390,-33565.905,-47889.945,-84819.555,-50004.09,-15261.57,-19675.755,5364.495,-63397.079999999994,2.4787683594544268,0.27718818723737126,-2.209791702439562,0.5830631323445857,-0.783228241835594,-0.30978534180394496,-0.2659661758931845,2.3861742141775824,-0.12426726,-0.956845695,0.24853452,-4.1964999999999995,-1.6175599999999999,-5.1273599999999995,71.0
1774822245.3903396,3.528594970703125e-05,2026-03-29T22:10:45.390,2026-03-29T18:10:45.390,-33560.055,-47892.735,-84826.665,-49989.42,-15249.779999999999,-19672.695,5363.28,-63388.665,0.9681763557363592,-0.8406711674308586,-5.0476627742078515,2.3966354304779123,1.6262943095301299,1.493886496959953,-0.8053319782520331,1.6582253920180738,-0.12426726,-0.956845695,0.24853452,-4.1964999999999995,-1.6175599999999999,-5.1273599999999995,71.0
1774822245.3903584,1.8835067749023438e-05,2026-03-29T22:10:45.390,2026-03-29T18:10:45.390,-33558.299999999996,-47891.655,-84822.075,-49990.095,-15248.564999999999,-19674.09,5361.705,-63386.774999999994,-0.9849166566863758,-1.7315200260834622,-5.802720301635673,3.0274442998105613,3.28585733567565,2.6310419475874274,-1.015961471475554,0.2737736964623675,-0.12426726,-0.956845695,0.24853452,-4.1964999999999995,-1.6175599999999999,-5.1273599999999995,71.0
1774822245.39038,2.1457672119140625e-05,2026-03-29T22:10:45.390,2026-03-29T18:10:45.390,-33559.83,-47888.82,-84821.535,-50024.88,-15274.845,-19689.84,5354.1449999999995,-63391.049999999996,-2.5041054937069966,-1.9281577989205396,-3.938578282185122,2.251453113831233,3.4806374114758705,2.6262570452562257,-0.6926371283374568,-1.1718443144253539,-0.12805143,-0.958432605,0.246886575,-5.66146,-3.8607799999999997,-3.6013599999999997,71.0
1774822245.3903978,1.7881393432617188e-05,2026-03-29T22:10:45.390,2026-03-29T18:10:45.390,-33568.335,-47886.84,-84821.44499999999,-50029.56,-15273.63,-19686.87,5363.1449999999995,-63404.235,-2.9098349256525564,-1.2333664876498642,-0.09929007690802241,0.5119780414903622,2.1597289117664302,1.5057318814928804,0.09345804251325054,-2.0913375872666258,-0.12805143,-0.958432605,0.246886575,-5.66146,-3.8607799999999997,-3.6013599999999997,71.0
1774822245.3904185,2.0742416381835938e-05,2026-03-29T22:10:45.390,2026-03-29T18:10:45.390,-33577.065,-47878.965,-84799.035,-49998.104999999996,-15247.98,-19667.43,5379.66,-63420.39,-2.028521094745056,0.13952110550744468,4.088963591875239,-1.3220531813471077,-0.055262276484184226,-0.2245169794845563,0.9942756122644306,-2.1466581361949912,-0.12805143,-0.958432605,0.246886575,-5.66146,-3.8607799999999997,-3.6013599999999997,71.0
1774822245.390436,1.7404556274414062e-05,2026-03-29T22:10:45.390,2026-03-29T18:10:45.390,-33577.515,-47888.145,-84794.94,-49994.865,-15247.17,-19663.515,5380.065,-63413.235,-0.26675929970855405,1.6143155692279816,6.701616267090076,-2.392158478503905,-2.165916814049179,-1.8096399959200142,1.5408001044113138,-1.3663353340575857,-0.12805143,-0.958432605,0.246886575,-5.66146,-3.8607799999999997,-3.6013599999999997,71.0
1774822245.3904562,2.0265579223632812e-05,2026-03-29T22:10:45.390,2026-03-29T18:10:45.390,-33570.765,-47889.045,-84797.73,-50001.525,-15250.23,-19660.14,5381.595,-63407.43,1.580941994509181,2.4904413541634622,6.400714193173554,-2.26079348935274,-3.254724644822329,-2.579191970971311,1.3847895831496302,-0.10256023863592859,-0.12805143,-0.958432605,0.246886575,-5.66146,-3.8607799999999997,-3.6013599999999997,71.0
1774822245.390473,1.6689300537109375e-05,2026-03-29T22:10:45.390,2026-03-29T18:10:45.390,-33569.685,-47888.189999999995,-84804.39,-50004.945,-15253.875,-19664.55,5373.315,-63406.395,2.6978817867442437,2.2755910211431694,3.1141120693617745,-1.0962413695519828,-2.8913786947444726,-2.2334529893404693,0.5026483975118227,1.1360315639803398,-0.12805143,-0.958432605,0.246886575,-5.66146,-3.8607799999999997,-3.6013599999999997,71.0
1774822245.3904924,1.9550323486328125e-05,2026-03-29T22:10:45.390,2026-03-29T18:10:45.390,-33562.665,-47873.34,-84800.97,-50002.92,-15256.349999999999,-19672.739999999998,5368.095,-63402.255,2.612650975200523,0.9546685532745602,-1.8339176326387725,0.449204372522795,-1.3042212310557406,-0.9592567048116827,-0.7524762032170756,1.8928504784827587,-0.12805143,-0.958432605,0.246886575,-5.66146,-3.8607799999999997,-3.6013599999999997,71.0
1774822245.3905084,1.5974044799804688e-05,2026-03-29T22:10:45.390,2026-03-29T18:10:45.390,-33559.92,-47874.06,-84812.84999999999,-50002.875,-15259.455,-19679.309999999998,5365.71,-63401.04,1.4000890128003975,-0.9492811281096087,-6.246824668822724,1.592956127291393,0.7521137097888866,0.6687001576185098,-1.7926196193616217,1.925695851429794,-0.12805143,-0.958432605,0.246886575,-5.66146,-3.8607799999999997,-3.6013599999999997,71.0
1774822245.3905277,1.9311904907226562e-05,2026-03-29T22:10:45.390,2026-03-29T18:10:45.390,-33566.265,-47885.895,-84830.04,-49996.034999999996,-15247.215,-19668.329999999998,5372.595,-63401.805,-0.3708019961488333,-2.5763607319616497,-8.033132849694976,1.8196365316959517,2.359325762770552,1.9493273064843804,-2.073789721814328,1.2687788889554412,-0.12805143,-0.958432605,0.246886575,-5.66146,-3.8607799999999997,-3.6013599999999997,71.0
1774822245.390544,1.621246337890625e-05,2026-03-29T22:10:45.390,2026-03-29T18:10:45.390,-33571.17,-47882.205,-84814.875,-49979.744999999995,-15227.64,-19648.215,5376.51,-63400.634999999995,-1.9091141244879404,-3.119544377195401,-6.201580153826233,1.1198380987869296,2.8522032016665295,2.3590352824349843,-1.3780651503447858,0.18941256764289044,-0.12805143,-0.958432605,0.246886575,-5.66146,-3.8607799999999997,-3.6013599999999997,71.0
1774822245.3905632,1.9311904907226562e-05,2026-03-29T22:10:45.390,2026-03-29T18:10:45.390,-33581.924999999996,-47885.985,-84806.415,-50007.465,-15242.445,-19657.035,5373.045,-63416.024999999994,-2.561870648338678,-2.225748652860969,-1.398730137653633,-0.04329922734124112,2.097235686092982,1.7652811173458343,0.04641797615825243,-0.925579211468274,-0.13256802,-0.96386472,0.24645933,-5.14262,-3.40298,-1.2818399999999999,71.0
1774822245.3905792,1.5974044799804688e-05,2026-03-29T22:10:45.390,2026-03-29T18:10:45.390,-33581.07,-47883.284999999996,-84800.745,-50031.9,-15257.654999999999,-19665.495,5371.695,-63422.505,-2.0947013103846017,-0.20843387012702333,4.298288551717654,-1.008956951240223,0.5148448150913171,0.4631430087318539,1.57022208382327,-1.7029270390931197,-0.13256802,-0.96386472,0.24645933,-5.14262,-3.40298,-1.2818399999999999,71.0
1774822245.3905988,1.9550323486328125e-05,2026-03-29T22:10:45.390,2026-03-29T18:10:45.390,-33568.965,-47872.17,-84776.48999999999,-50002.875,-15259.32,-19674.27,5369.535,-63411.884999999995,-0.771094489351616,2.050993442615201,8.281162282700363,-1.2806255351490061,-1.1480687012297979,-0.9707362130282938,2.4653921366953586,-1.8928592313952668,-0.13256802,-0.96386472,0.24645933,-5.14262,-3.40298,-1.2818399999999999,71.0
1774822245.3906147,1.5974044799804688e-05,2026-03-29T22:10:45.390,2026-03-29T18:10:45.390,-33570.405,-47868.615,-84767.22,-49973.759999999995,-15250.769999999999,-19677.105,5367.33,-63418.545,0.7935468846276629,3.489553908174101,8.612698212430402,-0.7812551953544932,-2.174233169253564,-1.9342706630887512,2.2572429772057396,-1.4332924074348907,-0.13256802,-0.96386472,0.24645933,-5.14262,-3.40298,-1.2818399999999999,71.0
1774822245.3906343,1.9550323486328125e-05,2026-03-29T22:10:45.390,2026-03-29T18:10:45.390,-33575.805,-47879.28,-84793.72499999999,-49981.59,-15241.455,-19666.53,5372.37,-63423.314999999995,1.9231575669766254,3.367194838538273,4.974359400873582,0.12950700550606528,-2.1892083074671307,-2.051702749800595,0.973515298056858,-0.4630991885463399,-0.13256802,-0.96386472,0.24645933,-5.14262,-3.40298,-1.2818399999999999,71.0
1774822245.3906507,1.6450881958007812e-05,2026-03-29T22:10:45.390,2026-03-29T18:10:45.390,-33574.994999999995,-47884.455,-84805.69499999999,-49988.205,-15242.58,-19665.18,5369.22,-63417.149999999994,2.177392694598884,1.6479884432076408,-1.1069969979466112,0.876864342144021,-1.293109866313741,-1.3163240377480652,-0.8389485185228918,0.7127887574044359,-0.13256802,-0.96386472,0.24645933,-5.14262,-3.40298,-1.2818399999999999,71.0
1774822245.3906703,1.9550323486328125e-05,2026-03-29T22:10:45.390,2026-03-29T18:10:45.390,-33573.195,-47878.92,-84792.105,-49992.525,-15251.13,-19669.95,5368.7699999999995,-63414.18,1.521187923423457,-0.9387613038612317,-6.897123558969129,1.004297578605243,0.032559850390519354,-0.07239136523506005,-2.350741096433451,1.7020229522992354,-0.13256802,-0.96386472,0.24645933,-5.14262,-3.40298,-1.2818399999999999,71.0
1774822245.3906868,1.6450881958007812e-05,2026-03-29T22:10:45.390,2026-03-29T18:10:45.390,-33569.369999999995,-47874.42,-84783.33,-49988.564999999995,-15246.359999999999,-19660.32,5373.045,-63412.965,0.30347546336103237,-3.207791953227343,-9.6928189997497,0.4340665983529156,1.1787190432930956,1.1453643484246852,-2.8357773399944617,2.1384966002498906,-0.13256802,-0.96386472,0.24645933,-5.14262,-3.40298,-1.2818399999999999,71.0
1774822245.3931272,0.0024404525756835938,2026-03-29T22:10:45.393,2026-03-29T18:10:45.393,-33567.75,-47875.455,-84781.935,-49976.415,-15235.515,-19653.614999999998,5370.57,-63410.13,-0.9276080797838713,-4.06688752613756,-8.096125994589045,-0.48820756385998787,1.690794096036403,1.8396081942719347,-2.024336606569784,1.8095172073745422,-0.13256802,-0.96386472,0.24645933,-5.14262,-3.40298,-1.2818399999999999,71.0
1774822245.3931644,3.719329833984375e-05,2026-03-29T22:10:45.393,2026-03-29T18:10:45.393,-33566.715,-47874.33,-84780.765,-49978.89,-15240.105,-19662.48,5363.595,-63409.32,-1.6753204632673435,-3.048732547763842,-2.7182226945452825,-1.1894284196857643,1.4472722131540632,1.7493801196501746,-0.24985233856769726,0.7576143757965997,-0.13256802,-0.96386472,0.24645933,-5.14262,-3.40298,-1.2818399999999999,71.0
1774822245.398298,0.005133628845214844,2026-03-29T22:10:45.398,2026-03-29T18:10:45.398,-33565.994999999995,-47882.88,-84805.065,-50006.61,-15252.84,-19669.05,5370.03,-63406.71,-1.6942911103755296,-0.5638078045978608,4.043765908267416,-1.198359003755173,0.6656376497202096,0.9429973208339472,1.6892945119994867,-0.6909410307875474,-0.13476528000000002,-0.976621035,0.24792417,-2.07536,-2.6857599999999997,1.38866,71.0
1774822245.3983145,1.6450881958007812e-05,2026-03-29T22:10:45.398,2026-03-29T18:10:45.398,-33567.03,-47886.03,-84806.50499999999,-50006.159999999996,-15253.289999999999,-19669.725,5372.6849999999995,-63405.81,-1.0597058857233856,2.262243572213745,9.082583347881624,-0.42705858178114336,-0.24455295545796382,-0.2247101115329175,2.8952354911099647,-2.0056989427320544,-0.13476528000000002,-0.976621035,0.24792417,-2.07536,-2.6857599999999997,1.38866,71.0
1774822245.4012787,0.0029642581939697266,2026-03-29T22:10:45.401,2026-03-29T18:10:45.401,-33561.315,-47876.085,-84785.895,-49996.665,-15249.015,-19667.295,5370.75,-63406.35,-0.09372177198631354,4.104391058496813,10.023697073123381,0.7538976809833007,-0.8923446186750524,-1.2658001745441694,2.793386480232333,-2.6353811760171775,-0.13476528000000002,-0.976621035,0.24792417,-2.07536,-2.6857599999999997,1.38866,71.0
1774822245.401307,2.8371810913085938e-05,2026-03-29T22:10:45.401,2026-03-29T18:10:45.401,-33550.155,-47874.195,-84791.655,-50011.604999999996,-15263.55,-19680.524999999998,5363.955,-63394.155,0.7983933477055253,4.0683149483252095,6.358624233987141,1.6956805441158191,-1.0725182429081588,-1.7579114302320364,1.4105226118731518,-2.2384913078648143,-0.13476528000000002,-0.976621035,0.24792417,-2.07536,-2.6857599999999997,1.38866,71.0
1774822245.405676,0.004368782043457031,2026-03-29T22:10:45.405,2026-03-29T18:10:45.405,-33557.49,-47874.869999999995,-84792.23999999999,-50012.46,-15263.595,-19681.245,5361.48,-63401.579999999994,1.2987122448879078,2.1311896580501415,-0.27872547393055824,1.8182103656590276,-0.8181022017065943,-1.5100903238783068,-0.6281839073764606,-0.8653347482716562,-0.13476528000000002,-0.976621035,0.24792417,-2.07536,-2.6857599999999997,1.38866,71.0
1774822245.4057086,3.266334533691406e-05,2026-03-29T22:10:45.405,2026-03-29T18:10:45.405,-33588.09,-47881.034999999996,-84789.18,-49996.53,-15244.109999999999,-19662.75,5366.07,-63438.93,1.2817888310530632,-0.8271917601642748,-6.843640620726639,0.9413375362422228,-0.33344079673896904,-0.6340090209894286,-2.3862750392471708,1.0043672318057455,-0.13476528000000002,-0.976621035,0.24792417,-2.07536,-2.6857599999999997,1.38866,71.0
1774822245.410689,0.004980564117431641,2026-03-29T22:10:45.410,2026-03-29T18:10:45.410,-33567.165,-47877.615,-84791.43,-49999.95,-15250.904999999999,-19671.57,5361.4349999999995,-63416.024999999994,0.8248204177105951,-3.428426871467076,-10.29180654033612,-0.5811087939207473,0.13763171540374014,0.5038630475154903,-3.0535298848652497,2.614089187340096,-0.13476528000000002,-0.976621035,0.24792417,-2.07536,-2.6857599999999997,1.38866,71.0
1774822245.410739,4.982948303222656e-05,2026-03-29T22:10:45.410,2026-03-29T18:10:45.410,-33555.104999999996,-47881.08,-84797.91,-50003.009999999995,-15259.904999999999,-19685.88,5356.62,-63399.195,0.1403605524492499,-4.44736520988404,-9.009850411756743,-2.007683351385177,0.4308902364138912,1.4293990862181125,-2.326388176787011,3.2344423301985246,-0.13476528000000002,-0.976621035,0.24792417,-2.07536,-2.6857599999999997,1.38866,71.0
1774822245.4129493,0.002210378646850586,2026-03-29T22:10:45.412,2026-03-29T18:10:45.412,-33567.659999999996,-47893.095,-84811.5,-50000.67,-15259.68,-19688.805,5357.16,-63409.229999999996,-0.5223969750001808,-3.39926774685931,-3.584553651717671,-2.5737095601318,0.5109921350622878,1.751308037677654,-0.5496923450436485,2.4979590437135766,-0.13476528000000002,-0.976621035,0.24792417,-2.07536,-2.6857599999999997,1.38866,71.0
1774822245.4129772,2.7894973754882812e-05,2026-03-29T22:10:45.412,2026-03-29T18:10:45.412,-33573.33,-47887.65,-84802.31999999999,-49989.689999999995,-15250.994999999999,-19678.5,5365.304999999999,-63417.96,-0.9618002678737033,-0.7761907604866255,3.4627251122583735,-1.893145795958256,0.44140862223681115,1.3223748144218335,1.4480050045832442,0.6093063089360661,-0.13476528000000002,-0.976621035,0.24792417,-2.07536,-2.6857599999999997,1.38866,71.0
1774822245.4170415,0.004064321517944336,2026-03-29T22:10:45.417,2026-03-29T18:10:45.417,-33585.659999999996,-47873.79,-84771.62999999999,-49970.564999999995,-15228.9,-19654.965,5379.4349999999995,-63442.755,-1.0690292891986328,2.185485407970496,8.858250995100384,-0.18932975775975333,0.31086660419104534,0.30755641046541865,2.746449811532238,-1.6865770487784808,-0.13391079,-0.98290764,0.24804624,0.50358,-1.58704,3.2809,71.0
1774822245.417061,1.9550323486328125e-05,2026-03-29T22:10:45.417,2026-03-29T18:10:45.417,-33576.615,-47872.305,-84778.83,-49978.755,-15232.14,-19663.92,5377.5,-63434.295,-0.8360685186687513,4.096161952104912,10.116231031989447,1.7746318192342567,0.17036575834018716,-0.8725013593141435,2.7652184331796237,-3.393396572242974,-0.13391079,-0.98290764,0.24804624,0.50358,-1.58704,3.2809,71.0
1774822245.4211187,0.004057645797729492,2026-03-29T22:10:45.421,2026-03-29T18:10:45.421,-33564.375,-47879.729999999996,-84804.165,-50017.185,-15257.07,-19676.024999999998,5373.135,-63416.34,-0.3423187742401924,4.076548906448788,6.70392214815807,3.045960288297177,0.01868884870690598,-1.707200741869462,1.5292234204387385,-3.7006306625148766,-0.13391079,-0.98290764,0.24804624,0.50358,-1.58704,3.2809,71.0
1774822245.421137,1.8358230590820312e-05,2026-03-29T22:10:45.421,2026-03-29T18:10:45.421,-33560.1,-47878.784999999996,-84798.36,-50029.244999999995,-15269.805,-19675.71,5368.275,-63409.77,0.2665970706773386,2.1715478127188304,0.27626569218117275,2.9485502744312764,-0.163017338366337,-1.8103620414569812,-0.3558821228415777,-2.375164574153724,-0.13391079,-0.98290764,0.24804624,0.50358,-1.58704,3.2809,71.0
1774822245.4253547,0.004217624664306641,2026-03-29T22:10:45.425,2026-03-29T18:10:45.425,-33560.28,-47872.215,-84785.355,-50009.445,-15255.045,-19657.98,5368.545,-63412.604999999996,0.8063048865572804,-0.6847456549192124,-6.1283461922801425,1.4355329305521873,-0.3609938805366446,-1.096720154585348,-2.0019087223826486,0.08457384419664252,-0.13391079,-0.98290764,0.24804624,0.50358,-1.58704,3.2809,71.0
1774822245.4253857,3.0994415283203125e-05,2026-03-29T22:10:45.425,2026-03-29T18:10:45.425,-33568.74,-47879.729999999996,-84793.36499999999,-49991.895,-15235.92,-19650.69,5370.03,-63421.155,1.094313366081664,-3.1313350156334354,-9.53998778363909,-0.8535606622612151,-0.5059986346373063,0.15891289326688676,-2.662531329125092,2.6270412511848744,-0.13391079,-0.98290764,0.24804624,0.50358,-1.58704,3.2809,71.0
1774822245.4378874,0.012501716613769531,2026-03-29T22:10:45.437,2026-03-29T18:10:45.437,-33574.905,-47893.77,-84806.595,-49994.369999999995,-15237.314999999999,-19654.515,5369.22,-63423.899999999994,1.0061559950015346,-4.039373226990227,-8.456324210793538,-2.8714087813801825,-0.5009706920506496,1.4171283400377783,-2.07867661560946,4.100452665991458,-0.13391079,-0.98290764,0.24804624,0.50358,-1.58704,3.2809,71.0
1774822245.4379427,5.53131103515625e-05,2026-03-29T22:10:45.437,2026-03-29T18:10:45.437,-33571.17,-47890.979999999996,-84794.265,-49996.619999999995,-15247.529999999999,-19662.704999999998,5369.04,-63421.649999999994,0.5334596734719955,-3.0441639795174056,-3.519957899245696,-3.6521531291964733,-0.28618558806686784,2.0970562072491417,-0.5820981348651182,3.7839263524245643,-0.13391079,-0.98290764,0.24804624,0.50358,-1.58704,3.2809,71.0
1774822245.4379795,3.6716461181640625e-05,2026-03-29T22:10:45.437,2026-03-29T18:10:45.437,-33576.75,-47874.555,-84766.00499999999,-49985.145,-15238.215,-19652.219999999998,5375.88,-63434.79,-0.18496874083816048,-0.6941965436302727,2.8392197459396353,-2.7784957905841754,0.10032580735078764,1.8392952378137581,1.085286456844703,1.7479570212358468,-0.13391079,-0.98290764,0.24804624,0.50358,-1.58704,3.2809,71.0
1774822245.4380047,2.5272369384765625e-05,2026-03-29T22:10:45.438,2026-03-29T18:10:45.438,-33574.455,-47863.395,-84770.01,-49991.805,-15242.355,-19657.079999999998,5375.34,-63434.384999999995,-0.8882348591074312,1.8453110304532128,7.605492302789625,-0.5986724637181663,0.5121890560401567,0.692013353483188,2.1404701375885673,-1.1391468653787604,-0.13391079,-0.98290764,0.24804624,0.50358,-1.58704,3.2809,71.0
1774822245.4380283,2.3603439331054688e-05,2026-03-29T22:10:45.438,2026-03-29T18:10:45.438,-33565.365,-47864.34,-84778.47,-49995.09,-15244.605,-19661.85,5370.705,-63424.53,-1.2826370036264068,3.376283837747625,8.626363471506508,1.9176944838754788,0.7521263022786925,-0.8746066296086797,2.1327378892814544,-3.5821830139291615,-0.129089025,-0.97741449,0.247374855,-2.09062,-0.32045999999999997,7.9352,71.0
1774822245.4380465,1.811981201171875e-05,2026-03-29T22:10:45.438,2026-03-29T18:10:45.438,-33568.424999999996,-47868.345,-84778.47,-49991.715,-15241.994999999999,-19662.795,5365.349999999999,-63430.335,-1.1682232946891284,3.2438867655100654,5.604679745587641,3.6226450611249352,0.6738852533637327,-2.1509033235213595,1.1410180098718772,-4.449126145966658,-0.129089025,-0.97741449,0.247374855,-2.09062,-0.32045999999999997,7.9352,71.0
1774822245.4436395,0.005593061447143555,2026-03-29T22:10:45.443,2026-03-29T18:10:45.443,-33565.95,-47864.61,-84777.39,-49979.79,-15233.22,-19660.86,5360.49,-63434.564999999995,-0.5463616499358853,1.6229293293315539,0.16717413080147275,3.7243967819751504,0.2734896239652264,-2.5019909495015953,-0.29335717472315265,-3.307708466556555,-0.129089025,-0.97741449,0.247374855,-2.09062,-0.32045999999999997,7.9352,71.0
1774822245.443663,2.3365020751953125e-05,2026-03-29T22:10:45.443,2026-03-29T18:10:45.443,-33571.665,-47881.305,-84805.965,-49990.59,-15243.57,-19676.925,5354.37,-63433.575,0.3515750546533833,-0.6139063532153886,-4.995552399729359,2.1598390814933697,-0.2864627688653731,-1.6778443942181294,-1.4546049719701024,-0.6489793137908723,-0.129089025,-0.97741449,0.247374855,-2.09062,-0.32045999999999997,7.9352,71.0
1774822245.4469388,0.0032758712768554688,2026-03-29T22:10:45.446,2026-03-29T18:10:45.446,-33579.27,-47888.549999999996,-84807.72,-50003.865,-15253.695,-19679.895,5362.92,-63434.79,1.1440812187506368,-2.361809315963314,-7.4687183717680545,-0.3724045685955586,-0.7428928692340715,0.03013632211169232,-1.810579924620695,2.320870933975378,-0.129089025,-0.97741449,0.247374855,-2.09062,-0.32045999999999997,7.9352,71.0
1774822245.4469569,1.811981201171875e-05,2026-03-29T22:10:45.446,2026-03-29T18:10:45.446,-33573.555,-47880.405,-84788.595,-50006.61,-15253.515,-19670.355,5365.304999999999,-63429.57,1.4645897498763616,-2.8364300960547157,-6.262111868638287,-2.7342125488495483,-0.8619734219766799,1.8777537323607139,-1.2615524418499606,4.234182950696008,-0.129089025,-0.97741449,0.247374855,-2.09062,-0.32045999999999997,7.9352,71.0
1774822245.45079,0.0038330554962158203,2026-03-29T22:10:45.450,2026-03-29T18:10:45.450,-33569.01,-47864.159999999996,-84763.845,-49983.21,-15230.205,-19644.39,5372.19,-63435.645,1.1391390632715943,-1.9339228933789219,-2.2128347049617245,-3.8726137632807256,-0.5662641626022805,2.9842769306781274,-0.16139458708629853,4.20423565549482,-0.129089025,-0.97741449,0.247374855,-2.09062,-0.32045999999999997,7.9352,71.0
1774822245.4508157,2.574920654296875e-05,2026-03-29T22:10:45.450,2026-03-29T18:10:45.450,-33570.0,-47862.27,-84759.03,-49970.97,-15219.449999999999,-19638.63,5373.945,-63435.06,0.28713516317276105,-0.22936969196905976,2.5254660230396375,-3.2994290508420936,0.011901970506106987,2.7458414546221013,0.8889457155050663,2.2491974919167093,-0.129089025,-0.97741449,0.247374855,-2.09062,-0.32045999999999997,7.9352,71.0
1774822245.4591844,0.008368730545043945,2026-03-29T22:10:45.459,2026-03-29T18:10:45.459,-33572.924999999996,-47869.515,-84770.86499999999,-49979.7,-15231.015,-19655.73,5370.929999999999,-63432.99,-0.7148042479945028,1.3639950097714724,5.6150357294161,-1.3029316646292848,0.5866701513003812,1.1543456097643563,1.361403239170421,-0.7107965212965542,-0.129089025,-0.97741449,0.247374855,-2.09062,-0.32045999999999997,7.9352,71.0
1774822245.459203,1.8596649169921875e-05,2026-03-29T22:10:45.459,2026-03-29T18:10:45.459,-33567.525,-47865.869999999995,-84772.17,-49978.35,-15232.814999999999,-19657.62,5373.135,-63427.365,-1.4005174152709952,2.0809010714664793,5.697313801459997,1.201396220377519,0.8620477688101179,-1.1430342820174688,1.0667568625901078,-3.28819857161788,-0.129089025,-0.97741449,0.247374855,-2.09062,-0.32045999999999997,7.9352,71.0
1774822245.4592264,2.3365020751953125e-05,2026-03-29T22:10:45.459,2026-03-29T18:10:45.459,-33567.615,-47867.445,-84781.53,-49977.54,-15225.93,-19651.364999999998,5375.205,-63427.994999999995,-1.4385645409760943,1.6777806626986536,3.003931083710376,3.102508296766785,0.6897760060325007,-3.097765038854699,0.23257174104124093,-4.288535459594816,-0.12524382,-0.9683202750000001,0.247741065,-6.653359999999999,0.13734,10.3005,71.0
1774822245.4592316,5.245208740234375e-06,2026-03-29T22:10:45.459,2026-03-29T18:10:45.459,-33571.89,-47874.509999999995,-84792.59999999999,-49981.229999999996,-15231.96,-19659.735,5369.849999999999,-63431.369999999995,-0.8021101409175874,0.5088787165337062,-0.8658800823763672,3.5994850703293504,0.15596057678550818,-3.732790716447211,-0.6399839319541937,-3.278149743732849,-0.12524382,-0.9683202750000001,0.247741065,-6.653359999999999,0.13734,10.3005,71.0
1774822245.461346,0.0021142959594726562,2026-03-29T22:10:45.461,2026-03-29T18:10:45.461,-33569.19,-47876.445,-84803.265,-49980.33,-15237.855,-19665.585,5373.2699999999995,-63425.61,0.20648485286323404,-0.715011661996224,-3.848299084648703,2.5455482878161746,-0.45547695050199066,-2.6233887868360295,-1.058146378636037,-0.7830931395810152,-0.12524382,-0.9683202750000001,0.247741065,-6.653359999999999,0.13734,10.3005,71.0
1774822245.4613647,1.8835067749023438e-05,2026-03-29T22:10:45.461,2026-03-29T18:10:45.461,-33569.19,-47879.729999999996,-84815.64,-49995.494999999995,-15251.355,-19670.265,5376.69,-63420.615,1.0972000115997174,-1.3369694947877169,-4.5037690183716395,0.4795624150405805,-0.8096295952415838,-0.1518415803508717,-0.805713358073794,1.9773822284294826,-0.12524382,-0.9683202750000001,0.247741065,-6.653359999999999,0.13734,10.3005,71.0
1774822245.46536,0.003995180130004883,2026-03-29T22:10:45.465,2026-03-29T18:10:45.465,-33568.65,-47875.95,-84808.53,-50006.744999999995,-15252.255,-19667.79,5371.5599999999995,-63422.28,1.4348561842295346,-1.1036354088093083,-2.7213188858347266,-1.653360029199041,-0.7030680454861906,2.608303099428657,-0.05493782269513426,3.6904539190419863,-0.12524382,-0.9683202750000001,0.247741065,-6.653359999999999,0.13734,10.3005,71.0
1774822245.4653888,2.8848648071289062e-05,2026-03-29T22:10:45.465,2026-03-29T18:10:45.465,-33561.765,-47875.95,-84804.705,-50035.14,-15256.035,-19666.71,5359.59,-63416.744999999995,1.0608066510475391,-0.26898393945633287,0.3103857417921972,-2.9461345438855058,-0.1831003232001249,4.353660092387723,0.7356386956391102,3.585927898873112,-0.12524382,-0.9683202750000001,0.247741065,-6.653359999999999,0.13734,10.3005,71.0
1774822245.4693177,0.0039288997650146484,2026-03-29T22:10:45.469,2026-03-29T18:10:45.469,-33538.95,-47875.994999999995,-84805.73999999999,-50051.924999999996,-15278.535,-19689.704999999998,5351.355,-63385.064999999995,0.1772641925438409,0.5905181039761696,2.8178581511011296,-2.9250632339811826,0.4659420737306588,4.162141923102962,1.0808562376140958,1.7955607458577638,-0.12524382,-0.9683202750000001,0.247741065,-6.653359999999999,0.13734,10.3005,71.0
1774822245.4693384,2.0742416381835938e-05,2026-03-29T22:10:45.469,2026-03-29T18:10:45.469,-33534.135,-47878.965,-84800.025,-50030.64,-15294.689999999999,-19714.95,5341.905,-63373.545,-0.7544516220662857,0.9319414157728981,3.436457564920157,-1.7196040904733703,0.8697162175369895,1.9686082079603762,0.7452987610641132,-0.7381885260877061,-0.12524382,-0.9683202750000001,0.247741065,-6.653359999999999,0.13734,10.3005,71.0
1774822245.4762733,0.0069348812103271484,2026-03-29T22:10:45.476,2026-03-29T18:10:45.476,-33595.604999999996,-47864.295,-84737.25,-49951.619999999995,-15231.914999999999,-19661.94,5361.974999999999,-63464.805,-1.2533153796555676,0.565391827193727,1.94062807019327,0.05208592908205863,0.7706226351535584,-1.3366847603425969,-0.11442002673634884,-2.7512438062044375,-0.12524382,-0.9683202750000001,0.247741065,-6.653359999999999,0.13734,10.3005,71.0
1774822245.4763007,2.7418136596679688e-05,2026-03-29T22:10:45.476,2026-03-29T18:10:45.476,-33606.405,-47858.939999999995,-84732.97499999999,-49944.78,-15211.664999999999,-19638.315,5375.88,-63488.204999999994,-1.0719193275360495,-0.24375308697809048,-0.6758167020929964,1.6034656643519054,0.18293630519629633,-4.263372708604345,-1.0221671022320684,-3.293395758695803,-0.12524382,-0.9683202750000001,0.247741065,-6.653359999999999,0.13734,10.3005,71.0
1774822245.4786024,0.0023016929626464844,2026-03-29T22:10:45.478,2026-03-29T18:10:45.478,-33586.65,-47874.015,-84768.93,-49965.119999999995,-15232.814999999999,-19667.52,5365.26,-63454.5,-0.32846228092042173,-0.943771392815294,-2.7969308813387066,2.3387570316192425,-0.5937594160533268,-5.391602667483657,-1.4362089466100907,-2.1885140231292155,-0.125793135,-0.962094705,0.24755796,-7.9352,0.94612,11.445,71.0
1774822245.4786227,2.0265579223632812e-05,2026-03-29T22:10:45.478,2026-03-29T18:10:45.478,-33577.604999999996,-47880.765,-84783.915,-49964.22,-15237.18,-19677.555,5363.099999999999,-63439.47,0.556505846664588,-1.0357253743645172,-3.119025302839632,2.0826752253672716,-1.1205743753961976,-4.0566025999889375,-1.0523655480953198,-0.09142706052049669,-0.125793135,-0.962094705,0.24755796,-7.9352,0.94612,11.445,71.0
1774822245.4814153,0.0027925968170166016,2026-03-29T22:10:45.481,2026-03-29T18:10:45.481,-33569.729999999996,-47872.259999999995,-84780.045,-49962.015,-15232.769999999999,-19660.005,5369.22,-63431.595,1.0886490448213906,-0.3851833720778304,-1.4018556385896859,1.0918921546974723,-1.0556214721042028,-0.7181997350319099,0.0068771019289367704,1.8777067989033867,-0.125793135,-0.962094705,0.24755796,-7.9352,0.94612,11.445,71.0
1774822245.4814315,1.621246337890625e-05,2026-03-29T22:10:45.481,2026-03-29T18:10:45.481,-33577.29,-47874.689999999995,-84779.775,-49973.759999999995,-15232.365,-19642.094999999998,5373.135,-63437.49,0.9725418968787063,0.6760780017044234,1.3805624927028963,-0.12680585387571755,-0.35673964544755127,3.1833732500351997,1.2258926176963505,2.724371902353892,-0.125793135,-0.962094705,0.24755796,-7.9352,0.94612,11.445,71.0
1774822245.4851587,0.0037271976470947266,2026-03-29T22:10:45.485,2026-03-29T18:10:45.485,-33583.095,-47876.4,-84775.59,-49982.939999999995,-15228.539999999999,-19636.695,5371.0199999999995,-63445.14,0.2792953467016627,1.52283512191834,3.5769736950658264,-1.0780158123664974,0.6640081348438958,5.84902509610439,1.946413056201035,2.0865430078155707,-0.125793135,-0.962094705,0.24755796,-7.9352,0.94612,11.445,71.0
1774822245.4851813,2.2649765014648438e-05,2026-03-29T22:10:45.485,2026-03-29T18:10:45.485,-33572.88,-47871.36,-84775.095,-50001.255,-15244.605,-19655.28,5374.44,-63434.564999999995,-0.5869114979303287,1.592244094199776,3.7928904170846476,-1.4832757472418017,1.4763481542231713,5.951419367582713,1.7134484260430187,0.39703296289881546,-0.125793135,-0.962094705,0.24755796,-7.9352,0.94612,11.445,71.0
1774822245.4892023,0.0040209293365478516,2026-03-29T22:10:45.489,2026-03-29T18:10:45.489,-33567.21,-47881.619999999995,-84792.555,-50016.015,-15257.34,-19668.015,5374.71,-63424.079999999994,-1.111101398896647,0.7243994836161662,1.708121807470911,-1.3436620547722722,1.6002741598230992,3.2902267300886665,0.5381279258049868,-1.375221796515284,-0.125793135,-0.962094705,0.24755796,-7.9352,0.94612,11.445,71.0
1774822245.4892192,1.6927719116210938e-05,2026-03-29T22:10:45.489,2026-03-29T18:10:45.489,-33568.515,-47889.9,-84798.58499999999,-49996.665,-15249.015,-19672.065,5367.87,-63423.81,-0.9605134941216524,-0.7085300905624408,-1.680965817801697,-0.8585167808350861,0.8728954064037524,-1.0500050373085814,-1.0670393940277334,-2.259810811018762,-0.125793135,-0.962094705,0.24755796,-7.9352,0.94612,11.445,71.0
1774822245.4934063,0.004187107086181641,2026-03-29T22:10:45.493,2026-03-29T18:10:45.493,-33565.229999999996,-47883.104999999996,-84792.33,-49988.744999999995,-15245.055,-19672.515,5367.599999999999,-63423.54,-0.18587513115624615,-1.9687752893402055,-4.547731879614304,-0.27358935388753625,-0.4298920302651542,-5.140959666472646,-2.3139542408767477,-1.8071106020666157,-0.125793135,-0.962094705,0.24755796,-7.9352,0.94612,11.445,71.0
1774822245.4934387,3.24249267578125e-05,2026-03-29T22:10:45.493,2026-03-29T18:10:45.493,-33573.375,-47864.564999999995,-84766.41,-49977.99,-15238.619999999999,-19666.44,5370.66,-63440.774999999994,0.7872721262389886,-2.337179976705921,-5.208410949140336,0.24413379520535172,-1.6940693328142389,-7.071918070167869,-2.52531254296347,-0.3199849086646589,-0.125793135,-0.962094705,0.24755796,-7.9352,0.94612,11.445,71.0
1774822245.4975507,0.0041120052337646484,2026-03-29T22:10:45.497,2026-03-29T18:10:45.497,-33568.38,-47856.555,-84766.095,-49994.145,-15248.295,-19664.235,5369.085,-63438.84,1.3830048744478334,-1.5132429106816483,-3.067419392191494,0.6412095480443925,-2.255888069136518,-5.844280124625317,-1.4923076151868022,1.3257961999350718,-0.127257975,-0.95727294,0.24627622500000002,-9.55276,0.9613799999999999,9.980039999999999,71.0
1774822245.4975803,2.956390380859375e-05,2026-03-29T22:10:45.497,2026-03-29T18:10:45.497,-33562.305,-47867.759999999995,-84784.00499999999,-50012.325,-15260.939999999999,-19671.614999999998,5362.5599999999995,-63429.119999999995,1.199876087428595,0.18811435158389625,0.9818828140001652,0.9242854872218327,-1.7423275406547505,-1.8788842722122492,0.3817738956237796,2.172223234697286,-0.127257975,-0.95727294,0.24627622500000002,-9.55276,0.9613799999999999,9.980039999999999,71.0
1774822245.5016804,0.00410008430480957,2026-03-29T22:10:45.501,2026-03-29T18:10:45.501,-33563.655,-47869.11,-84783.19499999999,-49993.424999999996,-15249.555,-19670.489999999998,5360.715,-63428.49,0.2579713736744801,1.9604924250888633,4.941880157751108,1.077167080157072,-0.2910881914013249,3.118974634718923,2.2387357557009975,1.7136780706285077,-0.127257975,-0.95727294,0.24627622500000002,-9.55276,0.9613799999999999,9.980039999999999,71.0
1774822245.50171,2.956390380859375e-05,2026-03-29T22:10:45.501,2026-03-29T18:10:45.501,-33569.145,-47869.244999999995,-84777.56999999999,-49974.39,-15234.795,-19668.42,5361.795,-63433.799999999996,-0.9767789589380323,2.8996880690130244,6.709216495053228,1.021172116215587,1.4722546743808567,6.899064499537949,3.1623799661797016,0.18443882464554975,-0.127257975,-0.95727294,0.24627622500000002,-9.55276,0.9613799999999999,9.980039999999999,71.0
1774822245.5091624,0.007452487945556641,2026-03-29T22:10:45.509,2026-03-29T18:10:45.509,-33567.255,-47862.36,-84765.465,-49968.18,-15231.644999999999,-19667.295,5359.995,-63436.409999999996,-1.8199831136411178,2.469912484618021,5.182408993242052,0.65661756419756,2.7062299023700915,7.686671808102171,2.629921058385361,-1.559817315372936,-0.127257975,-0.95727294,0.24627622500000002,-9.55276,0.9613799999999999,9.980039999999999,71.0
1774822245.509177,1.4543533325195312e-05,2026-03-29T22:10:45.509,2026-03-29T18:10:45.509,-33576.479999999996,-47870.189999999995,-84780.09,-49964.22,-15234.435,-19665.719999999998,5358.0599999999995,-63450.405,-1.7380012669230942,0.8000348891155545,0.898253090089076,-0.03728126315134167,2.754845070796504,5.017514821248348,0.7956469011829457,-2.506868310845937,-0.127257975,-0.95727294,0.24627622500000002,-9.55276,0.9613799999999999,9.980039999999999,71.0
1774822245.5091975,2.0503997802734375e-05,2026-03-29T22:10:45.509,2026-03-29T18:10:45.509,-33585.435,-47886.93,-84819.42,-49976.595,-15235.875,-19663.02,5361.03,-63459.765,-0.6629960743796893,-1.3509401178568188,-4.155655797410342,-0.9144461141179375,1.486204710713876,-0.00713944993390424,-1.54306272713718,-2.0509770389747235,-0.127257975,-0.95727294,0.24627622500000002,-9.55276,0.9613799999999999,9.980039999999999,71.0
1774822245.5092037,6.198883056640625e-06,2026-03-29T22:10:45.509,2026-03-29T18:10:45.509,-33581.655,-47898.9,-84842.55,-50002.47,-15244.74,-19669.14,5355.945,-63452.25,0.9252247182907203,-2.951919953743391,-7.486678169558796,-1.6599660281865818,-0.6035454775306439,-5.180043519278298,-3.297042488884907,-0.34856317244747026,-0.127257975,-0.95727294,0.24627622500000002,-9.55276,0.9613799999999999,9.980039999999999,71.0
1774822245.514868,0.005664348602294922,2026-03-29T22:10:45.514,2026-03-29T18:10:45.514,-33555.33,-47884.95,-84810.645,-50015.61,-15248.295,-19671.48,5348.385,-63423.99,2.2131582730766373,-3.2064921731948792,-7.3407007249019784,-1.902939081505891,-2.5860755341913033,-8.16797543969123,-3.597142193532424,1.7329693078409474,-0.127257975,-0.95727294,0.24627622500000002,-9.55276,0.9613799999999999,9.980039999999999,71.0
1774822245.514897,2.9087066650390625e-05,2026-03-29T22:10:45.514,2026-03-29T18:10:45.514,-33535.395,-47872.979999999996,-84785.08499999999,-50014.215,-15250.545,-19674.495,5354.1449999999995,-63397.259999999995,2.4681113514965314,-1.9539323230514583,-3.6168918371068046,-1.4030626659879455,-3.517868272136267,-7.572053809152909,-2.224078984479426,3.0577439827189394,-0.127257975,-0.95727294,0.24627622500000002,-9.55276,0.9613799999999999,9.980039999999999,71.0
1774822245.517612,0.002714872360229492,2026-03-29T22:10:45.517,2026-03-29T18:10:45.517,-33560.595,-47867.49,-84742.69499999999,-49954.14,-15237.269999999999,-19669.77,5364.0,-63425.204999999994,1.442484843637221,0.23963895714804614,2.0206756549843976,-0.21573607013212115,-2.888408451165867,-3.5824247957316255,0.2560353340792647,2.8288403599176832,-0.12902799,-0.95263428,0.24584898,-8.65242,-1.03768,11.216099999999999,71.0
1774822245.5176373,2.5272369384765625e-05,2026-03-29T22:10:45.517,2026-03-29T18:10:45.517,-33574.229999999996,-47858.085,-84733.065,-49921.29,-15221.474999999999,-19656.405,5373.855,-63451.35,-0.4512483786554129,2.3488125720721684,6.911337924812184,1.2643279805716836,-0.8863272116509718,2.0796323002734853,2.727896797137656,1.0396495978946623,-0.12902799,-0.95263428,0.24584898,-8.65242,-1.03768,11.216099999999999,71.0
1774822245.521186,0.003548860549926758,2026-03-29T22:10:45.521,2026-03-29T18:10:45.521,-33586.65,-47861.189999999995,-84742.245,-49939.92,-15215.355,-19639.89,5383.485,-63468.09,-2.304783415452381,3.383466904309688,8.680066325622915,2.4287139620337497,1.65110272966139,6.915688435189848,4.0350866758384045,-1.4778730284608859,-0.12902799,-0.95263428,0.24584898,-8.65242,-1.03768,11.216099999999999,71.0
1774822245.521206,1.9788742065429688e-05,2026-03-29T22:10:45.521,2026-03-29T18:10:45.521,-33581.205,-47869.29,-84763.98,-49982.67,-15230.609999999999,-19645.29,5378.04,-63458.235,-3.1530822998444035,2.86514463784912,6.404110098227429,2.71242934774193,3.5943211190805346,8.764537665284085,3.5257216564058935,-3.448666744721587,-0.12902799,-0.95263428,0.24584898,-8.65242,-1.03768,11.216099999999999,71.0
1774822245.5257807,0.004574775695800781,2026-03-29T22:10:45.525,2026-03-29T18:10:45.525,-33572.115,-47870.325,-84775.23,-49988.34,-15233.265,-19653.344999999998,5371.065,-63448.47,-2.4742906325710274,1.0508853518067283,1.0850957796406073,1.8699512010041774,4.028569698140081,6.774091350904353,1.3762154944178755,-3.801685133078441,-0.12902799,-0.95263428,0.24584898,-8.65242,-1.03768,11.216099999999999,71.0
1774822245.5258124,3.170967102050781e-05,2026-03-29T22:10:45.525,2026-03-29T18:10:45.525,-33563.565,-47867.354999999996,-84770.325,-49984.38,-15242.76,-19666.305,5365.3949999999995,-63439.875,-0.49200210610245054,-1.2014476745007434,-4.811919251124888,0.13414355585578877,2.681693445390611,1.7905284086677995,-1.467220201891488,-2.2391516659198007,-0.12902799,-0.95263428,0.24584898,-8.65242,-1.03768,11.216099999999999,71.0
1774822245.5297537,0.00394129753112793,2026-03-29T22:10:45.529,2026-03-29T18:10:45.529,-33554.115,-47861.505,-84761.955,-49992.75,-15254.685,-19679.805,5360.49,-63430.695,1.8893466520874271,-2.853166654088527,-8.530983129133647,-1.8337490372269265,0.07337126462128414,-4.011836754851854,-3.7112973537832024,0.5705225364536971,-0.12902799,-0.95263428,0.24584898,-8.65242,-1.03768,11.216099999999999,71.0
1774822245.529788,3.4332275390625e-05,2026-03-29T22:10:45.529,2026-03-29T18:10:45.529,-33555.869999999995,-47873.744999999995,-84774.465,-49990.905,-15260.355,-19697.805,5351.94,-63430.155,3.5030899287304775,-3.178351981974966,-8.338435052227531,-3.2006258963744414,-2.690102658116422,-8.093064817744281,-4.31096515624901,3.2883351451156666,-0.12902799,-0.95263428,0.24584898,-8.65242,-1.03768,11.216099999999999,71.0
1774822245.533382,0.003593921661376953,2026-03-29T22:10:45.533,2026-03-29T18:10:45.533,-33559.38,-47889.45,-84791.25,-49996.35,-15264.09,-19696.14,5352.57,-63430.47,3.496340129572489,-2.089965605057121,-4.339967065771897,-3.321984324698801,-4.391372232309307,-8.66972639865105,-2.960205517794426,4.553123730601592,-0.12902799,-0.95263428,0.24584898,-8.65242,-1.03768,11.216099999999999,71.0
1774822245.5334113,2.9325485229492188e-05,2026-03-29T22:10:45.533,2026-03-29T18:10:45.533,-33565.229999999996,-47888.055,-84786.075,-49984.02,-15251.805,-19679.94,5359.635,-63437.625,1.7767527368153098,-0.14862091931111626,1.587495177884721,-2.0464680416238163,-4.240150418490009,-5.4958340433287,-0.24605428411069194,3.664028094278229,-0.12902799,-0.95263428,0.24584898,-8.65242,-1.03768,11.216099999999999,71.0
1774822245.5376775,0.004266262054443359,2026-03-29T22:10:45.537,2026-03-29T18:10:45.537,-33571.935,-47876.805,-84781.935,-49978.35,-15244.47,-19662.84,5368.365,-63445.229999999996,-0.9028295748414493,1.7342109204995453,6.70341397344902,0.17980132953013037,-2.2350474365753863,0.040288791947991794,2.610884431953306,0.9540228872011162,-0.13159146,-0.94653078,0.24670347,-11.03298,-2.99096,10.92616,71.0
1774822245.5377028,2.5272369384765625e-05,2026-03-29T22:10:45.537,2026-03-29T18:10:45.537,-33581.43,-47870.1,-84777.12,-49975.11,-15233.355,-19657.844999999998,5364.45,-63456.93,-3.2798525555594122,2.73863115264194,8.70052937852252,2.469322955949162,0.814338516957531,5.537061652472686,4.312705138799239,-2.3396981537929746,-0.13159146,-0.94653078,0.24670347,-11.03298,-2.99096,10.92616,71.0
1774822245.5413153,0.003612518310546875,2026-03-29T22:10:45.541,2026-03-29T18:10:45.541,-33574.545,-47873.295,-84779.01,-49976.46,-15216.75,-19641.69,5360.22,-63450.045,-4.185273492878018,2.503365905594682,6.7642397597695725,3.8541392091499223,3.6202561195642105,8.634268377657653,4.080507843933491,-4.654628676579362,-0.13159146,-0.94653078,0.24670347,-11.03298,-2.99096,10.92616,71.0
1774822245.5413408,2.5510787963867188e-05,2026-03-29T22:10:45.541,2026-03-29T18:10:45.541,-33573.465,-47879.055,-84787.33499999999,-49992.479999999996,-15239.789999999999,-19663.965,5356.08,-63446.49,-3.1224087885589022,1.2483332525486144,1.899660623976746,3.7009996197828174,4.964387513288264,8.031920990665084,2.0139095746673368,-4.853673011011629,-0.13159146,-0.94653078,0.24670347,-11.03298,-2.99096,10.92616,71.0
1774822245.545398,0.004057168960571289,2026-03-29T22:10:45.545,2026-03-29T18:10:45.545,-33572.295,-47878.47,-84784.59,-50000.04,-15255.72,-19677.285,5357.295,-63444.195,-0.5328379759358618,-0.3843431306603431,-3.6016778281315016,2.0000052149710665,4.225523126205152,4.030936878756463,-0.9534131053458426,-2.7826191095905917,-0.13159146,-0.94653078,0.24670347,-11.03298,-2.99096,10.92616,71.0
1774822245.5454175,1.9550323486328125e-05,2026-03-29T22:10:45.545,2026-03-29T18:10:45.545,-33566.67,-47881.89,-84794.44499999999,-49992.165,-15245.055,-19670.219999999998,5359.95,-63436.545,2.3908249463959006,-1.6676025752775328,-7.2686788932502875,-0.6043249610130641,1.6596138239979359,-1.626521143976135,-3.4814242830797992,0.638763431498647,-0.13159146,-0.94653078,0.24670347,-11.03298,-2.99096,10.92616,71.0
1774822245.549919,0.0045013427734375,2026-03-29T22:10:45.549,2026-03-29T18:10:45.549,-33562.71,-47893.005,-84815.055,-49995.27,-15247.125,-19675.844999999998,5356.71,-63427.725,4.263916929016683,-2.1246835058186364,-7.584811086897324,-3.0617427705381752,-1.6908245972850435,-6.529158104475481,-4.43614236020055,3.839345535268725,-0.13159146,-0.94653078,0.24670347,-11.03298,-2.99096,10.92616,71.0
1774822245.5499446,2.574920654296875e-05,2026-03-29T22:10:45.549,2026-03-29T18:10:45.549,-33554.565,-47884.77,-84791.295,-50000.939999999995,-15257.609999999999,-19684.62,5357.205,-63415.439999999995,4.17394007193556,-1.702435667937532,-4.618216419532859,-4.3460309838626685,-4.42387546006056,-8.63246476451522,-3.40374531564449,5.332035656665917,-0.13159146,-0.94653078,0.24670347,-11.03298,-2.99096,10.92616,71.0
1774822245.553311,0.0033664703369140625,2026-03-29T22:10:45.553,2026-03-29T18:10:45.553,-33565.59,-47870.865,-84766.635,-50004.18,-15261.885,-19683.09,5361.345,-63434.564999999995,2.127499833082562,-0.7218707704450008,0.11493533440194763,-3.8870000572080783,-5.36510759871786,-7.109514427248346,-0.8710045193102429,4.411364404300062,-0.13159146,-0.94653078,0.24670347,-11.03298,-2.99096,10.92616,71.0
1774822245.553335,2.384185791015625e-05,2026-03-29T22:10:45.553,2026-03-29T18:10:45.553,-33584.354999999996,-47867.85,-84756.42,-49976.415,-15232.005,-19654.02,5371.605,-63464.759999999995,-0.9401471006838517,0.3357217157267399,4.438251943185571,-1.821520629310119,-4.068699237271046,-2.6638335972566893,2.006954459587601,1.4830314620541256,-0.13159146,-0.94653078,0.24670347,-11.03298,-2.99096,10.92616,71.0
1774822245.564232,0.010897159576416016,2026-03-29T22:10:45.564,2026-03-29T18:10:45.564,-33573.78,-47873.43,-84772.53,-49985.055,-15242.039999999999,-19666.125,5364.315,-63451.35,-3.601674526526191,1.0739221127953453,6.5401036168602396,1.0458263425989545,-1.0210699572374977,2.8068354025373816,3.939545104784708,-2.126797841177525,-0.134338035,-0.944150415,0.24719175000000002,-15.031099999999999,-6.91278,13.90186,71.0
1774822245.564254,2.193450927734375e-05,2026-03-29T22:10:45.564,2026-03-29T18:10:45.564,-33563.385,-47874.869999999995,-84779.145,-49986.27,-15244.695,-19670.219999999998,5365.304999999999,-63436.545,-4.6123886265873,1.329188457415441,5.74254132502385,3.561040281458169,2.542753174213722,7.030343502652406,4.0858054593068,-4.787186735942872,-0.134338035,-0.944150415,0.24719175000000002,-15.031099999999999,-6.91278,13.90186,71.0
1774822245.5642939,3.981590270996094e-05,2026-03-29T22:10:45.564,2026-03-29T18:10:45.564,-33565.049999999996,-47877.21,-84782.385,-49978.575,-15236.82,-19663.425,5364.36,-63440.64,-3.4993113083502494,1.1666559937393326,2.683450475527965,4.689517559458303,5.139822983601223,8.304755689016426,2.4237465639854783,-5.310356106846942,-0.134338035,-0.944150415,0.24719175000000002,-15.031099999999999,-6.91278,13.90186,71.0
1774822245.5643044,1.049041748046875e-05,2026-03-29T22:10:45.564,2026-03-29T18:10:45.564,-33569.28,-47871.765,-84767.08499999999,-49963.545,-15222.644999999999,-19653.255,5364.045,-63456.704999999994,-0.7826660071235481,0.7624445479456721,-1.1120907699001943,3.9430169529531676,5.654245636540014,6.174973102782003,-0.25961838466046255,-3.483865611428828,-0.134338035,-0.944150415,0.24719175000000002,-15.031099999999999,-6.91278,13.90186,71.0
1774822245.5643144,1.0013580322265625e-05,2026-03-29T22:10:45.564,2026-03-29T18:10:45.564,-33561.854999999996,-47865.645,-84759.885,-49963.32,-15225.164999999999,-19657.89,5366.745,-63449.415,2.2740606547793285,0.26970238511603173,-4.005799665380033,1.5881546978136338,3.81294568897985,1.5777072381733102,-2.7438249527083443,-0.1479378732364738,-0.134338035,-0.944150415,0.24719175000000002,-15.031099999999999,-6.91278,13.90186,71.0
1774822245.564322,7.62939453125e-06,2026-03-29T22:10:45.564,2026-03-29T18:10:45.564,-33561.9,-47873.7,-84774.23999999999,-49972.994999999995,-15234.029999999999,-19671.12,5358.24,-63445.814999999995,4.262447504105736,-0.24216247456963244,-4.967515101181531,-1.4513107153202542,0.32145684303423855,-3.5800834605174496,-3.93563607338847,3.2047027909941974,-0.134338035,-0.944150415,0.24719175000000002,-15.031099999999999,-6.91278,13.90186,71.0
1774822245.571906,0.007584095001220703,2026-03-29T22:10:45.571,2026-03-29T18:10:45.571,-33560.055,-47876.265,-84779.64,-49973.715,-15236.414999999999,-19679.175,5351.3099999999995,-63441.09,4.287782012121422,-0.7492420579337415,-3.919868959056523,-3.9609609325665276,-3.404760609376785,-7.215195338101051,-3.3549286377616756,5.109931455703038,-0.134338035,-0.944150415,0.24719175000000002,-15.031099999999999,-6.91278,13.90186,71.0
1774822245.571918,1.1920928955078125e-05,2026-03-29T22:10:45.571,2026-03-29T18:10:45.571,-33562.71,-47881.755,-84787.965,-49981.905,-15244.064999999999,-19684.44,5350.905,-63441.494999999995,2.3756569853450418,-1.185610286696341,-1.6046685847314128,-4.92357679547395,-5.812162361957942,-7.902844495596735,-1.3278683089776544,4.777550009310206,-0.134338035,-0.944150415,0.24719175000000002,-15.031099999999999,-6.91278,13.90186,71.0
1774822245.574728,0.0028100013732910156,2026-03-29T22:10:45.574,2026-03-29T18:10:45.574,-33562.575,-47880.854999999996,-84777.93,-49989.645,-15251.67,-19682.46,5364.405,-63438.704999999994,-0.5600856805982919,-1.3938315563722787,0.8873017743876119,-3.9312096651999506,-5.854556567569051,-5.4216017596780235,1.190021960339513,2.4138249242504646,-0.134338035,-0.944150415,0.24719175000000002,-15.031099999999999,-6.91278,13.90186,71.0
1774822245.5747583,3.0279159545898438e-05,2026-03-29T22:10:45.574,2026-03-29T18:10:45.574,-33550.47,-47872.89,-84764.7,-49991.174999999996,-15257.07,-19677.105,5368.5,-63424.979999999996,-3.1624730465374205,-1.1752312794765407,2.6420435221124836,-1.3547151148186023,-3.4454813729262947,-0.8079787978179036,3.067034431677773,-0.9073618129677086,-0.134338035,-0.944150415,0.24719175000000002,-15.031099999999999,-6.91278,13.90186,71.0
1774822245.578395,0.003636598587036133,2026-03-29T22:10:45.578,2026-03-29T18:10:45.578,-33539.22,-47869.965,-84765.915,-49990.59,-15257.43,-19674.945,5362.47,-63412.064999999995,-4.269318046116669,-0.42828203925332925,3.245391479279249,1.7981950357437284,0.4769912739561034,4.080923084389801,3.5086301666258595,-3.7454850219922817,-0.133971825,-0.95324463,0.25097592,-14.14602,-9.506979999999999,15.519419999999998,71.0
1774822245.5784132,1.8358230590820312e-05,2026-03-29T22:10:45.578,2026-03-29T18:10:45.578,-33540.075,-47869.244999999995,-84764.43,-49975.83,-15239.385,-19663.335,5358.87,-63419.534999999996,-3.4393819671205588,0.7105745947053801,2.7966100225422585,4.280136755262334,4.312284776013742,7.310231791340118,2.396192862136585,-4.927065965013706,-0.133971825,-0.95324463,0.25097592,-14.14602,-9.506979999999999,15.519419999999998,71.0
1774822245.5814412,0.0030279159545898438,2026-03-29T22:10:45.581,2026-03-29T18:10:45.581,-33576.119999999995,-47867.31,-84750.20999999999,-49943.744999999995,-15214.949999999999,-19647.45,5369.715,-63472.049999999996,-1.125315897845746,1.8334049369667853,1.6879331952599068,5.098281158164345,6.448447262036152,7.621389313215605,0.3058227977863376,-4.02929375069659,-0.133971825,-0.95324463,0.25097592,-14.14602,-9.506979999999999,15.519419999999998,71.0
1774822245.5814676,2.6464462280273438e-05,2026-03-29T22:10:45.581,2026-03-29T18:10:45.581,-33578.145,-47867.354999999996,-84766.68,-49940.055,-15210.269999999999,-19650.105,5370.075,-63477.405,1.5727543438294096,2.3959037300270234,0.3343127404272034,3.9093422091790906,5.9388234235612956,4.910315875896079,-1.7860651224468111,-1.5153569717752886,-0.133971825,-0.95324463,0.25097592,-14.14602,-9.506979999999999,15.519419999999998,71.0
1774822245.5854008,0.0039331912994384766,2026-03-29T22:10:45.585,2026-03-29T18:10:45.585,-33560.729999999996,-47862.63,-84777.12,-49945.905,-15205.994999999999,-19656.36,5358.735,-63457.38,3.439469393741765,1.9834729665183786,-0.9782871633894386,1.1592278535874254,2.9207296819656623,0.25496997864254883,-2.9613320654423956,1.5116533872937479,-0.133971825,-0.95324463,0.25097592,-14.14602,-9.506979999999999,15.519419999999998,71.0
1774822245.5854297,2.8848648071289062e-05,2026-03-29T22:10:45.585,2026-03-29T18:10:45.585,-33570.99,-47876.895,-84780.27,-49964.22,-15205.41,-19648.89,5352.48,-63460.979999999996,3.7010562182932087,0.5771707049583518,-2.072891489975161,-2.0873019033039437,-1.4088601131524732,-4.510099892602253,-2.7665269661901264,3.80346581251655,-0.133971825,-0.95324463,0.25097592,-14.14602,-9.506979999999999,15.519419999999998,71.0
1774822245.5894077,0.00397801399230957,2026-03-29T22:10:45.589,2026-03-29T18:10:45.589,-33568.83,-47884.545,-84791.205,-50021.729999999996,-15247.349999999999,-19664.684999999998,5367.285,-63447.345,2.3474557354047736,-1.339914344644149,-2.7689858111159933,-4.559858173727091,-5.265264352683749,-7.506306992686791,-1.3858454329301713,4.483290270762894,-0.133971825,-0.95324463,0.25097592,-14.14602,-9.506979999999999,15.519419999999998,71.0
1774822245.5894284,2.0742416381835938e-05,2026-03-29T22:10:45.589,2026-03-29T18:10:45.589,-33567.57,-47879.235,-84768.75,-50002.875,-15255.045,-19668.375,5365.349999999999,-63447.975,0.08497530853138821,-2.931683318480563,-2.819443560340945,-5.277284301320238,-7.011194477167492,-7.539901824994083,0.4841625947084627,3.3697794636353735,-0.133971825,-0.95324463,0.25097592,-14.14602,-9.506979999999999,15.519419999999998,71.0
1774822245.5963397,0.006911277770996094,2026-03-29T22:10:45.596,2026-03-29T18:10:45.596,-33567.525,-47874.96,-84749.31,-49962.195,-15248.025,-19682.37,5355.9,-63453.015,-2.034124598610947,-3.3785336240676354,-1.9934970089476802,-3.9323665843020974,-5.852582501647792,-4.5709504851233556,1.9828743266019078,0.9951555184772524,-0.133971825,-0.95324463,0.25097592,-14.14602,-9.506979999999999,15.519419999999998,71.0
1774822245.5963683,2.86102294921875e-05,2026-03-29T22:10:45.596,2026-03-29T18:10:45.596,-33567.885,-47890.17,-84783.33,-49981.68,-15251.265,-19686.465,5355.45,-63448.424999999996,-3.1105956243603274,-2.3018784683608278,-0.2806050452437335,-1.018054042557978,-2.199000785298075,0.25828175624965266,2.483924988403797,-1.6584942795274582,-0.133971825,-0.95324463,0.25097592,-14.14602,-9.506979999999999,15.519419999999998,71.0
1774822245.5963938,2.5510787963867188e-05,2026-03-29T22:10:45.596,2026-03-29T18:10:45.596,-33560.595,-47896.11,-84792.33,-49985.369999999995,-15258.33,-19688.579999999998,5349.78,-63440.954999999994,-2.785130949754277,-0.022707973067452286,1.9256668822693788,2.353808443132208,2.474849735274547,5.052988703285834,1.8583634746066047,-3.5706191100773106,-0.135314595,-0.963193335,0.254699055,-9.430679999999999,-10.54466,15.656759999999998,71.0
1774822245.5964043,1.049041748046875e-05,2026-03-29T22:10:45.596,2026-03-29T18:10:45.596,-33545.7,-47877.435,-84760.73999999999,-49960.71,-15236.82,-19665.09,5349.105,-63429.704999999994,-1.344194500808512,2.5067895403918388,3.8324002783251907,4.873494532491445,6.223179840012762,7.89759515812058,0.4915613218006415,-4.066411221009148,-0.135314595,-0.963193335,0.254699055,-9.430679999999999,-10.54466,15.656759999999998,71.0
1774822245.60151,0.005105733871459961,2026-03-29T22:10:45.601,2026-03-29T18:10:45.601,-33554.295,-47868.255,-84754.17,-49960.395,-15229.305,-19649.475,5371.155,-63438.075,0.4777133409300259,4.104183668435778,4.519213254913829,5.535980364219698,7.439961954106953,7.613569549727674,-0.93599511706417,-3.033715598389016,-0.135314595,-0.963193335,0.254699055,-9.430679999999999,-10.54466,15.656759999999998,71.0
1774822245.6015303,2.0265579223632812e-05,2026-03-29T22:10:45.601,2026-03-29T18:10:45.601,-33565.68,-47868.479999999996,-84765.51,-49982.895,-15247.935,-19667.52,5371.11,-63451.305,1.876543419204654,3.920214256351925,3.3917589935923718,4.035534273239909,5.5482369788476005,4.247524972028275,-1.7850074918574057,-0.9158821725488722,-0.135314595,-0.963193335,0.254699055,-9.430679999999999,-10.54466,15.656759999999998,71.0
1774822245.6058052,0.004274845123291016,2026-03-29T22:10:45.605,2026-03-29T18:10:45.605,-33554.34,-47856.915,-84758.58,-49985.369999999995,-15248.205,-19671.93,5364.99,-63444.869999999995,2.3417459824407505,1.8914642315264538,0.5894464562126491,0.9011416754815478,1.2713834952028453,-0.9125658454747401,-1.745547024597072,1.4866713440948638,-0.135314595,-0.963193335,0.254699055,-9.430679999999999,-10.54466,15.656759999999998,71.0
1774822245.6058187,1.3589859008789062e-05,2026-03-29T22:10:45.605,2026-03-29T18:10:45.605,-33545.25,-47856.645,-84751.69499999999,-49970.43,-15246.359999999999,-19678.77,5361.48,-63437.13,1.8362394765751755,-1.1594356179978038,-2.906219771443678,-2.684312986611589,-3.6403690258236323,-5.817802332460481,-0.9464569829942648,3.3136372249478034,-0.135314595,-0.963193335,0.254699055,-9.430679999999999,-10.54466,15.656759999999998,71.0
1774822245.611763,0.005944252014160156,2026-03-29T22:10:45.611,2026-03-29T18:10:45.611,-33544.44,-47865.915,-84762.675,-49963.634999999995,-15236.234999999999,-19669.23,5366.205,-63431.189999999995,0.7332419432405584,-3.8570842704068933,-5.592855826041088,-5.321676853297568,-7.126211933763287,-8.463237010050312,0.1505998586507642,3.9331568889775315,-0.135314595,-0.963193335,0.254699055,-9.430679999999999,-10.54466,15.656759999999998,71.0
1774822245.6117816,1.8596649169921875e-05,2026-03-29T22:10:45.611,2026-03-29T18:10:45.611,-33564.284999999996,-47889.09,-84788.45999999999,-49962.869999999995,-15223.365,-19653.255,5369.535,-63442.259999999995,-0.4243230296818232,-4.905581419311495,-6.106584716766318,-5.93269001119019,-7.6805471337507,-7.705727207862902,1.0038633938219694,3.1362087422995204,-0.135314595,-0.963193335,0.254699055,-9.430679999999999,-10.54466,15.656759999999998,71.0
1774822245.6118624,8.082389831542969e-05,2026-03-29T22:10:45.611,2026-03-29T18:10:45.611,-33572.43,-47885.985,-84780.27,-49962.869999999995,-15225.48,-19656.27,5366.655,-63454.095,-1.197453450867002,-3.723611362334237,-3.9237295371764254,-4.195633348217905,-5.003976129169043,-3.761992027964814,1.257262358268521,1.1923482775124148,-0.135314595,-0.963193335,0.254699055,-9.430679999999999,-10.54466,15.656759999999998,71.0
1774822245.6118731,1.0728836059570312e-05,2026-03-29T22:10:45.611,2026-03-29T18:10:45.611,-33558.93,-47868.705,-84748.77,-49958.865,-15231.869999999999,-19663.829999999998,5360.264999999999,-63443.475,-1.417561484298993,-0.7656771766008428,0.2597801233770253,-0.706867542645639,-0.15775180525296476,1.8321910244745498,0.8895343403048526,-1.2378084155560973,-0.135314595,-0.963193335,0.254699055,-9.430679999999999,-10.54466,15.656759999999998,71.0
1774822245.6181898,0.006316661834716797,2026-03-29T22:10:45.618,2026-03-29T18:10:45.618,-33553.89,-47876.715,-84765.33,-49967.955,-15243.57,-19677.105,5353.155,-63433.575,-1.1824231602365876,2.6474667140826216,4.713849658201256,3.2096853750082794,4.855427891398039,6.809615006812008,0.18398331198850623,-3.3065394462468647,-0.137023575,-0.969174765,0.26141290500000003,-7.98098,-12.55898,17.686339999999998,71.0
1774822245.6182065,1.6689300537109375e-05,2026-03-29T22:10:45.618,2026-03-29T18:10:45.618,-33553.08,-47886.255,-84785.805,-49967.145,-15239.115,-19679.535,5348.97,-63433.215,-0.7193588024982734,4.929247190276793,7.399534564514807,5.992237644934227,7.919256253119215,9.086984241844604,-0.45030655897344507,-4.248709590600956,-0.137023575,-0.969174765,0.26141290500000003,-7.98098,-12.55898,17.686339999999998,71.0
1774822245.6213577,0.0031511783599853516,2026-03-29T22:10:45.621,2026-03-29T18:10:45.621,-33554.565,-47873.88,-84758.895,-49958.415,-15230.025,-19671.21,5355.9,-63441.225,-0.22129156410611198,4.980797123116558,6.925525154796392,6.456201205985606,7.6979364248888045,7.640312328778404,-0.7028109062162473,-3.6471878545421705,-0.137023575,-0.969174765,0.26141290500000003,-7.98098,-12.55898,17.686339999999998,71.0
1774822245.621373,1.52587890625e-05,2026-03-29T22:10:45.621,2026-03-29T18:10:45.621,-33548.715,-47878.604999999996,-84772.62,-49988.07,-15255.72,-19688.76,5349.285,-63430.604999999996,0.23939484088854493,2.7326086176280753,3.2769199392101864,4.297282439353414,4.218616171055561,2.9708627270298833,-0.5126109431311319,-1.6123658363526374,-0.137023575,-0.969174765,0.26141290500000003,-7.98098,-12.55898,17.686339999999998,71.0
1774822245.6281922,0.006819248199462891,2026-03-29T22:10:45.628,2026-03-29T18:10:45.628,-33552.045,-47894.985,-84804.25499999999,-49984.695,-15250.005,-19687.905,5347.485,-63433.305,0.6779169093921158,-0.7979953550404387,-2.068255953124504,0.27027999029681193,-1.1116251525161869,-3.052937611262082,-0.07295497871159749,1.1989743623851825,-0.137023575,-0.969174765,0.26141290500000003,-7.98098,-12.55898,17.686339999999998,71.0
1774822245.6282115,1.9311904907226562e-05,2026-03-29T22:10:45.628,2026-03-29T18:10:45.628,-33554.655,-47894.67,-84801.645,-49972.185,-15248.43,-19690.11,5351.22,-63435.915,1.0884418024551372,-3.9741251602069885,-6.741185013763965,-4.055165961990631,-6.073436366204492,-7.937264232255159,0.30279420426082354,3.763513673784626,-0.137023575,-0.969174765,0.26141290500000003,-7.98098,-12.55898,17.686339999999998,71.0
1774822245.6282349,2.3365020751953125e-05,2026-03-29T22:10:45.628,2026-03-29T18:10:45.628,-33575.67,-47873.43,-84762.62999999999,-49950.0,-15234.615,-19681.695,5362.695,-63473.579999999994,1.3556945586372995,-5.313704575482568,-8.556458423526852,-6.8946787901137006,-8.55907049929718,-9.597034613709727,0.37273074459561983,5.041372395543403,-0.137023575,-0.969174765,0.26141290500000003,-7.98098,-12.55898,17.686339999999998,71.0
1774822245.6282418,6.9141387939453125e-06,2026-03-29T22:10:45.628,2026-03-29T18:10:45.628,-33558.165,-47860.515,-84761.01,-49965.84,-15236.055,-19671.21,5372.91,-63459.494999999995,1.2702217896004566,-4.197830519865147,-6.560217001209235,-6.982741646735749,-7.4681256958509605,-7.2528636502809665,0.10688349202626325,4.389875474666296,-0.137023575,-0.969174765,0.26141290500000003,-7.98098,-12.55898,17.686339999999998,71.0
1774822245.6336198,0.005378007888793945,2026-03-29T22:10:45.633,2026-03-29T18:10:45.633,-33537.104999999996,-47869.29,-84782.385,-50019.615,-15261.255,-19676.204999999998,5371.29,-63423.494999999995,0.659543445860559,-1.167194443957304,-1.5383977055315712,-4.140347129076625,-3.194597328688892,-1.8017722424905203,-0.3006139264767689,1.8809233242118288,-0.137023575,-0.969174765,0.26141290500000003,-7.98098,-12.55898,17.686339999999998,71.0
1774822245.6336298,1.0013580322265625e-05,2026-03-29T22:10:45.633,2026-03-29T18:10:45.633,-33564.555,-47871.765,-84763.53,-50002.244999999995,-15237.18,-19644.075,5366.565,-63462.645,-0.43916316624994955,2.34007064640648,4.28796957001581,0.5791456383771627,2.510044121896865,4.516664600268437,-0.55240555906555,-1.6326264063291147,-0.137023575,-0.969174765,0.26141290500000003,-7.98098,-12.55898,17.686339999999998,71.0
1774822245.6398487,0.006218910217285156,2026-03-29T22:10:45.639,2026-03-29T18:10:45.639,-33566.625,-47865.689999999995,-84731.355,-49947.57,-15219.314999999999,-19642.184999999998,5364.855,-63470.07,-1.6859515423291167,4.6819722910615775,8.265404971209449,5.262541386107755,7.252877673863251,9.03972412110838,-0.4322948914673269,-4.776102268857874,-0.13830531000000001,-0.9740575650000001,0.26306085,-9.73588,-16.0993,20.28054,71.0
1774822245.6398635,1.4781951904296875e-05,2026-03-29T22:10:45.639,2026-03-29T18:10:45.639,-33566.805,-47863.485,-84719.655,-49915.17,-15209.595,-19647.27,5364.945,-63465.299999999996,-2.5178864699929067,4.798433768059188,8.546925370864452,7.906754535115538,9.002942517232391,9.809619201167592,0.0525669247553133,-6.1781795609354315,-0.13830531000000001,-0.9740575650000001,0.26306085,-9.73588,-16.0993,20.28054,71.0
1774822245.6414816,0.0016181468963623047,2026-03-29T22:10:45.641,2026-03-29T18:10:45.641,-33559.38,-47866.68,-84740.895,-49936.14,-15217.92,-19650.195,5366.34,-63455.579999999994,-2.400904783665257,2.7058599603266287,4.975500274193639,7.280104722174075,6.961778228897876,6.429641606554205,0.6556381420655802,-5.068744060593121,-0.13830531000000001,-0.9740575650000001,0.26306085,-9.73588,-16.0993,20.28054,71.0
1774822245.6415088,2.7179718017578125e-05,2026-03-29T22:10:45.641,2026-03-29T18:10:45.641,-33544.619999999995,-47869.92,-84756.015,-49949.82,-15230.43,-19660.14,5361.84,-63437.354999999996,-1.1421609510138386,-0.5368857052094235,-0.8216233105331657,3.5030317791372636,1.927905603091657,0.26998856861482134,1.0164694856892202,-1.6891901141178471,-0.13830531000000001,-0.9740575650000001,0.26306085,-9.73588,-16.0993,20.28054,71.0
1774822245.646134,0.004625082015991211,2026-03-29T22:10:45.646,2026-03-29T18:10:45.646,-33542.415,-47879.235,-84754.035,-49952.43,-15238.305,-19674.45,5354.01,-63432.0,0.910639620621116,-3.3656324760982566,-6.1858334983217915,-1.928489170442077,-4.011059766311145,-6.0838573564659875,0.8639988626878572,2.6990964516042664,-0.13830531000000001,-0.9740575650000001,0.26306085,-9.73588,-16.0993,20.28054,71.0
1774822245.6461651,3.123283386230469e-05,2026-03-29T22:10:45.646,2026-03-29T18:10:45.646,-33553.979999999996,-47890.395,-84766.86,-49970.115,-15250.814999999999,-19686.6,5353.785,-63439.695,2.9250008725273235,-4.478121394368695,-8.674169650695069,-6.725259791338588,-8.342327505253756,-9.92031198856206,0.18703548550442015,6.265993042419703,-0.13830531000000001,-0.9740575650000001,0.26306085,-9.73588,-16.0993,20.28054,71.0
1774822245.6494932,0.003328084945678711,2026-03-29T22:10:45.649,2026-03-29T18:10:45.649,-33563.97,-47882.88,-84767.04,-49970.159999999996,-15245.55,-19677.059999999998,5364.2699999999995,-63451.935,3.916510003235683,-3.449706081888901,-7.203661260521143,-8.77246126585211,-9.19160637382329,-9.567975083528328,-0.7268399765113703,7.373779710539188,-0.13830531000000001,-0.9740575650000001,0.26306085,-9.73588,-16.0993,20.28054,71.0
1774822245.6495209,2.765655517578125e-05,2026-03-29T22:10:45.649,2026-03-29T18:10:45.649,-33562.619999999995,-47865.33,-84754.70999999999,-49951.125,-15229.529999999999,-19661.355,5365.845,-63463.049999999996,3.2284917123021413,-0.899364266318597,-2.5431073277703837,-7.072878281490722,-6.136461755319591,-5.133296205293763,-1.4162266411706832,5.333161535077564,-0.13830531000000001,-0.9740575650000001,0.26306085,-9.73588,-16.0993,20.28054,71.0
1774822245.653823,0.004302024841308594,2026-03-29T22:10:45.653,2026-03-29T18:10:45.653,-33557.76,-47868.03,-84758.12999999999,-49942.17,-15215.715,-19648.305,5357.429999999999,-63461.295,0.9251372997856283,1.8613490811834579,3.0806567913740444,-2.240286749196601,-0.4156178467940629,1.520266273246281,-1.4793097828260602,0.8033245738822266,-0.13830531000000001,-0.9740575650000001,0.26306085,-9.73588,-16.0993,20.28054,71.0
1774822245.653844,2.1219253540039062e-05,2026-03-29T22:10:45.653,2026-03-29T18:10:45.653,-33558.119999999995,-47867.13,-84748.635,-49941.045,-15211.215,-19646.37,5358.375,-63460.259999999995,-2.124817169912487,3.504220731432285,7.063450940597049,3.704246411143313,5.569157349751932,7.5562133124297,-0.7976105548607798,-4.3870718708869,-0.13830531000000001,-0.9740575650000001,0.26306085,-9.73588,-16.0993,20.28054,71.0
1774822245.658102,0.004257917404174805,2026-03-29T22:10:45.658,2026-03-29T18:10:45.658,-33558.84,-47870.009999999995,-84750.39,-49961.07,-15227.64,-19655.19,5367.195,-63457.424999999996,-4.564101532048371,3.3363208135503144,7.660290547566881,8.17701052088949,9.260685460810393,10.382182063017735,0.3710371254881478,-7.971997822925363,-0.140197395,-0.98547111,0.261290835,-7.38584,-18.937659999999997,24.96536,71.0
1774822245.6581347,3.266334533691406e-05,2026-03-29T22:10:45.658,2026-03-29T18:10:45.658,-33547.455,-47875.229999999996,-84771.9,-49970.564999999995,-15243.164999999999,-19668.195,5370.615,-63443.88,-5.154560374385947,1.6026987729460889,4.777723454224813,9.165234762399972,9.041611005939249,8.774597529307796,1.4900545128296239,-8.244034771246847,-0.140197395,-0.98547111,0.261290835,-7.38584,-18.937659999999997,24.96536,71.0
1774822245.6678028,0.009668111801147461,2026-03-29T22:10:45.667,2026-03-29T18:10:45.667,-33548.4,-47883.689999999995,-84790.53,-49952.475,-15227.414999999999,-19663.695,5366.205,-63445.905,-3.4027981481346705,-0.697474130567932,-0.050601730626750274,6.147581074026052,4.947307250754071,3.417769249404421,1.995426450186267,-4.873603146133625,-0.140197395,-0.98547111,0.261290835,-7.38584,-18.937659999999997,24.96536,71.0
1774822245.6678357,3.2901763916015625e-05,2026-03-29T22:10:45.667,2026-03-29T18:10:45.667,-33556.5,-47879.729999999996,-84762.9,-49938.21,-15216.345,-19655.235,5365.304999999999,-63455.445,0.11152747466078644,-2.366036239562235,-4.469460302371992,0.3738644288863014,-1.3196711012770348,-3.3844885322904146,1.581089422562269,0.8445095095616212,-0.140197395,-0.98547111,0.261290835,-7.38584,-18.937659999999997,24.96536,71.0
1774822245.6678643,2.86102294921875e-05,2026-03-29T22:10:45.667,2026-03-29T18:10:45.667,-33553.17,-47869.515,-84734.86499999999,-49948.38,-15230.835,-19663.155,5365.71,-63450.045,3.9030736301845894,-2.6309350343382176,-6.469658751092574,-5.647601199065344,-7.094933627184336,-8.704958202643708,0.3735930888254801,6.475895363810589,-0.140197395,-0.98547111,0.261290835,-7.38584,-18.937659999999997,24.96536,71.0
1774822245.667879,1.4781951904296875e-05,2026-03-29T22:10:45.667,2026-03-29T18:10:45.667,-33558.57,-47876.22,-84757.545,-49965.795,-15235.47,-19663.739999999998,5362.155,-63457.92,6.211373569320492,-1.514989838875099,-5.331733213003887,-9.247944175091646,-9.887004138568397,-10.264087425127792,-1.1003026674979943,9.488840723897903,-0.140197395,-0.98547111,0.261290835,-7.38584,-18.937659999999997,24.96536,71.0
1774822245.6696754,0.0017962455749511719,2026-03-29T22:10:45.669,2026-03-29T18:10:45.669,-33556.229999999996,-47877.119999999995,-84760.33499999999,-49981.95,-15244.515,-19668.195,5365.26,-63455.49,5.825843642468249,0.23265787802589408,-1.8894855517356877,-8.796824648959962,-8.457715186333107,-7.419028718989867,-2.148916159095572,8.405609075430936,-0.140197395,-0.98547111,0.261290835,-7.38584,-18.937659999999997,24.96536,71.0
1774822245.669692,1.6689300537109375e-05,2026-03-29T22:10:45.669,2026-03-29T18:10:45.669,-33548.715,-47868.435,-84746.025,-49975.155,-15247.439999999999,-19672.38,5362.5599999999995,-63447.299999999996,2.715088812796507,1.5873033216547714,1.9872419601447373,-4.456447937281937,-3.3773194756548808,-1.4356863139736833,-2.246399940815229,3.533089607324017,-0.140197395,-0.98547111,0.261290835,-7.38584,-18.937659999999997,24.96536,71.0
1774822245.6769934,0.00730133056640625,2026-03-29T22:10:45.676,2026-03-29T18:10:45.676,-33559.47,-47873.295,-84747.105,-49957.965,-15235.064999999999,-19663.335,5358.735,-63459.99,-1.8649431565435133,1.8255327986847165,4.394315431515106,1.8655566669884944,3.197481247290641,5.075170940970728,-1.298277643695051,-3.0914292981503655,-0.140197395,-0.98547111,0.261290835,-7.38584,-18.937659999999997,24.96536,71.0
1774822245.6770236,3.0279159545898438e-05,2026-03-29T22:10:45.677,2026-03-29T18:10:45.677,-33560.145,-47871.225,-84747.015,-49955.265,-15233.939999999999,-19665.63,5357.655,-63463.86,-5.876866868284165,0.9117125715179276,4.348544074405158,7.358791499830862,8.439648313083689,9.30667475366245,0.29312668187185653,-8.555208435817018,-0.140197395,-0.98547111,0.261290835,-7.38584,-18.937659999999997,24.96536,71.0
1774822245.6770532,2.956390380859375e-05,2026-03-29T22:10:45.677,2026-03-29T18:10:45.677,-33557.625,-47873.564999999995,-84752.01,-49959.314999999995,-15238.574999999999,-19670.085,5357.115,-63456.57,-7.419058809683659,-0.5120554366797812,2.2097520337966934,9.574392093864551,10.073186465736716,9.479944698168755,1.8035847869902406,-10.366142349753869,-0.132629055,-0.99743397,0.266783985,-6.165039999999999,-19.136039999999998,29.055039999999998,71.0
1774822245.677065,1.1682510375976562e-05,2026-03-29T22:10:45.677,2026-03-29T18:10:45.677,-33555.015,-47873.025,-84747.555,-49953.869999999995,-15236.505,-19666.844999999998,5361.03,-63451.305,-5.63621613695404,-1.518688478125059,-0.6220413360171446,7.535287805976828,7.369634283084974,5.603145101880615,2.5243786338228467,-7.6061952577848615,-0.132629055,-0.99743397,0.266783985,-6.165039999999999,-19.136039999999998,29.055039999999998,71.0
1774822245.6980364,0.02097153663635254,2026-03-29T22:10:45.698,2026-03-29T18:10:45.698,-33553.305,-47872.485,-84748.00499999999,-49947.255,-15230.88,-19663.605,5361.4349999999995,-63451.215,-1.1828838334722245,-1.4472139065871825,-2.5390819046938535,2.1802317661624016,1.4793602587765429,-0.5641335688098985,2.1017242731392276,-1.400333876507313,-0.132629055,-0.99743397,0.266783985,-6.165039999999999,-19.136039999999998,29.055039999999998,71.0
1774822245.698066,2.956390380859375e-05,2026-03-29T22:10:45.698,2026-03-29T18:10:45.698,-33564.555,-47892.869999999995,-84780.62999999999,-49964.31,-15244.199999999999,-19678.59,5355.72,-63459.63,4.00784080259399,-0.30053100522293513,-2.618488599836727,-4.066675905245288,-5.056317564270912,-6.314063549853376,0.7127022770317665,5.540657084164254,-0.132629055,-0.99743397,0.266783985,-6.165039999999999,-19.136039999999998,29.055039999999998,71.0
1774822245.6980937,2.765655517578125e-05,2026-03-29T22:10:45.698,2026-03-29T18:10:45.698,-33555.375,-47890.395,-84776.985,-49973.715,-15256.664999999999,-19690.829999999998,5349.24,-63449.64,7.574194485406759,1.2381223951917866,-1.0875145056954523,-8.404550865319214,-9.406622579311128,-9.193014519426923,-1.01086762370909,10.119237848884033,-0.132629055,-0.99743397,0.266783985,-6.165039999999999,-19.136039999999998,29.055039999999998,71.0
1774822245.698105,1.1444091796875e-05,2026-03-29T22:10:45.698,2026-03-29T18:10:45.698,-33527.52,-47871.225,-84757.275,-49969.53,-15255.09,-19689.39,5341.995,-63421.38,7.815598314472702,2.1875296781943625,0.8811059569850526,-8.930290116251356,-9.686952549089954,-8.06315889817811,-2.277142289303041,10.254926004920998,-0.132629055,-0.99743397,0.266783985,-6.165039999999999,-19.136039999999998,29.055039999999998,71.0
1774822245.6981192,1.4066696166992188e-05,2026-03-29T22:10:45.698,2026-03-29T18:10:45.698,-33523.424999999996,-47872.395,-84763.75499999999,-49955.13,-15239.25,-19688.579999999998,5336.55,-63419.805,4.512382447225331,1.843337261322809,1.9121640129408948,-5.490248034752556,-5.784766493490947,-3.556715442849717,-2.507020751997622,5.846425647802517,-0.132629055,-0.99743397,0.266783985,-6.165039999999999,-19.136039999999998,29.055039999999998,71.0
1774822245.6981292,1.0013580322265625e-05,2026-03-29T22:10:45.698,2026-03-29T18:10:45.698,-33556.5,-47878.38,-84753.135,-49937.58,-15219.539999999999,-19671.03,5347.17,-63462.645,-0.924094336930638,0.22403267063558133,1.2778028634578174,0.2804371723280942,0.5910457488690558,2.261624589425787,-1.6056026059085013,-1.161194288272806,-0.132629055,-0.99743397,0.266783985,-6.165039999999999,-19.136039999999998,29.055039999999998,71.0
1774822245.6981416,1.239776611328125e-05,2026-03-29T22:10:45.698,2026-03-29T18:10:45.698,-33581.88,-47883.15,-84748.31999999999,-49935.284999999996,-15209.414999999999,-19645.155,5361.075,-63490.409999999996,-6.062995902441164,-1.8737237413502212,-0.6387081837476237,5.738758246497087,6.661634862292144,6.849587433898013,-0.002095523981310944,-7.646767143248627,-0.132629055,-0.99743397,0.266783985,-6.165039999999999,-19.136039999999998,29.055039999999998,71.0
1774822245.698151,9.5367431640625e-06,2026-03-29T22:10:45.698,2026-03-29T18:10:45.698,-33575.22,-47889.27,-84758.895,-49944.465,-15222.015,-19649.295,5352.885,-63481.274999999994,-8.55833390759355,-3.2654655078108514,-2.5442838680506292,8.460382474524776,9.799003565442673,8.31406537770028,1.5591385588966666,-10.726144516696737,-0.132629055,-0.99743397,0.266783985,-6.165039999999999,-19.136039999999998,29.055039999999998,71.0
1774822245.6981633,1.2159347534179688e-05,2026-03-29T22:10:45.698,2026-03-29T18:10:45.698,-33566.67,-47886.884999999995,-84761.37,-49942.665,-15223.994999999999,-19658.024999999998,5353.695,-63476.64,-7.2361884669526,-3.0240593752204106,-3.005749222621208,7.335134196935734,8.675344615001205,6.202723857374978,2.372919650477735,-9.05757628786858,-0.121276545,-1.004330925,0.271666785,-2.4263399999999997,-17.335359999999998,35.14378,71.0
1774822245.698173,9.775161743164062e-06,2026-03-29T22:10:45.698,2026-03-29T18:10:45.698,-33562.755,-47889.765,-84774.33,-49945.409999999996,-15224.039999999999,-19666.35,5349.51,-63470.295,-2.6531824909879353,-1.036071846189764,-1.3586225339621762,3.0272326170721238,3.8324107625381267,1.6236519391128637,2.1005827370742116,-3.4373105949467773,-0.121276545,-1.004330925,0.271666785,-2.4263399999999997,-17.335359999999998,35.14378,71.0
1774822245.702942,0.004768848419189453,2026-03-29T22:10:45.702,2026-03-29T18:10:45.702,-33548.04,-47874.015,-84754.34999999999,-49946.085,-15225.795,-19666.395,5354.28,-63456.704999999994,3.142719620493384,1.846536468645515,1.7768019066088716,-2.394947468141851,-2.577395626211124,-3.3271153195128256,0.9144040942888378,3.584969675026294,-0.121276545,-1.004330925,0.271666785,-2.4263399999999997,-17.335359999999998,35.14378,71.0
1774822245.703007,6.508827209472656e-05,2026-03-29T22:10:45.703,2026-03-29T18:10:45.703,-33535.26,-47868.615,-84752.37,-49970.43,-15248.88,-19680.975,5353.83,-63439.784999999996,7.544134992536948,4.174133732896866,4.709012869040043,-6.460517086963251,-7.755774340613147,-6.537893823776297,-0.6043122195466512,8.88364330378986,-0.121276545,-1.004330925,0.271666785,-2.4263399999999997,-17.335359999999998,35.14378,71.0
1774822245.7073245,0.004317522048950195,2026-03-29T22:10:45.707,2026-03-29T18:10:45.707,-33533.325,-47880.045,-84772.935,-49978.799999999996,-15257.34,-19691.19,5342.76,-63432.585,8.577032069259024,4.626677566762134,5.557847904794714,-7.440167309352002,-9.493096511875766,-6.796566048049367,-1.7556408839760376,10.174293880437178,-0.121276545,-1.004330925,0.271666785,-2.4263399999999997,-17.335359999999998,35.14378,71.0
1774822245.7073417,1.71661376953125e-05,2026-03-29T22:10:45.707,2026-03-29T18:10:45.707,-33556.095,-47900.115,-84787.875,-49958.729999999996,-15235.289999999999,-19668.78,5346.9,-63453.869999999995,5.799272335990214,2.7360462696952528,3.3560096193219127,-5.094306445778628,-7.1218112125853725,-4.244576908047368,-2.0527363676196724,7.015403149061199,-0.121276545,-1.004330925,0.271666785,-2.4263399999999997,-17.335359999999998,35.14378,71.0
1774822245.710328,0.002986431121826172,2026-03-29T22:10:45.710,2026-03-29T18:10:45.710,-33576.119999999995,-47918.655,-84791.06999999999,-49939.064999999995,-15218.505,-19653.795,5361.705,-63470.564999999995,0.48941159502078013,-0.7829945006784746,-1.2442546169756725,-0.694794208568878,-1.7716936584802119,-0.2005785315447108,-1.4336734916512668,0.9465308385346349,-0.121276545,-1.004330925,0.271666785,-2.4263399999999997,-17.335359999999998,35.14378,71.0
1774822245.7103488,2.0742416381835938e-05,2026-03-29T22:10:45.710,2026-03-29T18:10:45.710,-33558.93,-47891.43,-84768.3,-49945.634999999995,-15233.22,-19661.13,5360.76,-63465.03,-4.954850607289527,-4.2979319421695115,-6.1053261383386035,3.6527058969971096,4.170748985623933,3.5173252640172747,-0.2582789809112233,-5.273049118536366,-0.121276545,-1.004330925,0.271666785,-2.4263399999999997,-17.335359999999998,35.14378,71.0
1774822245.7139027,0.0035538673400878906,2026-03-29T22:10:45.713,2026-03-29T18:10:45.713,-33554.655,-47880.27,-84777.25499999999,-49959.63,-15236.82,-19667.88,5350.32,-63464.174999999996,-8.119753267918421,-6.024335392577266,-8.595509013100775,6.029116718502715,8.139250139222598,5.423658661595457,0.8950172689783884,-8.94422090186763,-0.121276545,-1.004330925,0.271666785,-2.4263399999999997,-17.335359999999998,35.14378,71.0
1774822245.7139196,1.6927719116210938e-05,2026-03-29T22:10:45.713,2026-03-29T18:10:45.713,-33566.67,-47874.78,-84761.28,-49952.564999999995,-15209.414999999999,-19646.91,5356.98,-63483.615,-7.663024805545226,-4.929435148097688,-6.97907787517706,5.5648402515921545,8.509287016696641,4.964058740037791,1.5199026347359539,-8.620819062336524,-0.121276545,-1.004330925,0.271666785,-2.4263399999999997,-17.335359999999998,35.14378,71.0
1774822245.7207537,0.0068340301513671875,2026-03-29T22:10:45.720,2026-03-29T18:10:45.720,-33561.09,-47882.34,-84757.86,-49975.155,-15228.314999999999,-19657.035,5359.59,-63473.085,-3.887409866632808,-1.3165687205162007,-1.4831764801215817,2.7491255835163493,5.267210006604724,2.6356207103346394,1.4119880699697644,-4.677269761159481,-0.113586135,-1.0068333600000001,0.27648855,5.7835399999999995,-14.268099999999999,39.20294,71.0
1774822245.7207704,1.6689300537109375e-05,2026-03-29T22:10:45.720,2026-03-29T18:10:45.720,-33550.92,-47881.17,-84745.845,-49939.92,-15231.644999999999,-19668.555,5354.6849999999995,-63459.765,1.4471593181464415,3.229494948026196,5.573491825760348,-0.9201805937659031,-0.05137638229540014,-0.3699615253709935,0.7298729273230715,0.9712293247418495,-0.113586135,-1.0068333600000001,0.27648855,5.7835399999999995,-14.268099999999999,39.20294,71.0
1774822245.7207885,1.811981201171875e-05,2026-03-29T22:10:45.720,2026-03-29T18:10:45.720,-33543.9,-47870.189999999995,-84737.11499999999,-49920.84,-15229.125,-19668.105,5357.745,-63454.95,5.9610335753627535,6.547934868678542,10.757036390600076,-3.728013747528697,-5.096279985172238,-2.7779953902875905,-0.1275168216475568,5.815387367381223,-0.113586135,-1.0068333600000001,0.27648855,5.7835399999999995,-14.268099999999999,39.20294,71.0
1774822245.7207994,1.0967254638671875e-05,2026-03-29T22:10:45.720,2026-03-29T18:10:45.720,-33547.229999999996,-47872.53,-84738.645,-49936.095,-15231.51,-19663.02,5354.505,-63456.524999999994,7.735739165921035,6.939553123029118,11.190979061467633,-4.558549138467601,-7.755822355850601,-3.782329408945691,-0.7477744648747612,7.890197062485542,-0.113586135,-1.0068333600000001,0.27648855,5.7835399999999995,-14.268099999999999,39.20294,71.0
1774822245.725493,0.004693508148193359,2026-03-29T22:10:45.725,2026-03-29T18:10:45.725,-33536.835,-47866.095,-84738.465,-49954.095,-15245.64,-19671.84,5355.8099999999995,-63446.13,6.138016013500576,4.033973439396987,6.109927230731606,-3.341024373619189,-7.049331998366014,-3.2921838792119194,-0.9095022841284857,6.576890367589839,-0.113586135,-1.0068333600000001,0.27648855,5.7835399999999995,-14.268099999999999,39.20294,71.0
1774822245.725504,1.0967254638671875e-05,2026-03-29T22:10:45.725,2026-03-29T18:10:45.725,-33524.82,-47872.125,-84758.985,-49967.729999999996,-15252.119999999999,-19680.795,5346.2699999999995,-63430.92,2.028634065970825,-0.9553378477395152,-2.5298384866815233,-0.9445687882477112,-3.4769183112029545,-1.8114741670742045,-0.6605333707025162,2.73807256605956,-0.113586135,-1.0068333600000001,0.27648855,5.7835399999999995,-14.268099999999999,39.20294,71.0
1774822245.730977,0.005473136901855469,2026-03-29T22:10:45.730,2026-03-29T18:10:45.730,-33535.935,-47882.655,-84770.81999999999,-49967.369999999995,-15244.74,-19675.305,5342.3099999999995,-63441.0,-2.7023607649545,-5.744160114868114,-10.78434974199856,1.3683701786902365,1.2923339763015784,-0.07797330982242826,-0.2424001112597386,-1.8085792172627448,-0.113586135,-1.0068333600000001,0.27648855,5.7835399999999995,-14.268099999999999,39.20294,71.0
1774822245.7309968,1.9788742065429688e-05,2026-03-29T22:10:45.730,2026-03-29T18:10:45.730,-33564.06,-47879.549999999996,-84746.655,-49929.57,-15212.519999999999,-19648.215,5353.785,-63485.729999999996,-6.022952242341503,-8.039124564221092,-14.537307874558003,2.608195899091967,5.211947872942193,1.3108758172653243,0.08027172622130077,-5.1703037482668,-0.113586135,-1.0068333600000001,0.27648855,5.7835399999999995,-14.268099999999999,39.20294,71.0
1774822245.7356231,0.004626274108886719,2026-03-29T22:10:45.735,2026-03-29T18:10:45.735,-33563.88,-47872.935,-84743.37,-49916.43,-15203.654999999999,-19642.95,5362.875,-63489.24,-6.644109021233635,-6.647776550582079,-11.55557390098266,2.4919656847827447,6.748673527121641,2.092676968072416,0.1785065820798066,-6.177994907944197,-0.113586135,-1.0068333600000001,0.27648855,5.7835399999999995,-14.268099999999999,39.20294,71.0
1774822245.7356324,9.298324584960938e-06,2026-03-29T22:10:45.735,2026-03-29T18:10:45.735,-33550.29,-47876.174999999996,-84752.01,-49917.6,-15207.974999999999,-19648.395,5359.905,-63463.905,-4.510883044675291,-2.094859907262812,-2.7573570159476786,1.4487952395848545,5.477962739612589,2.2971930406990952,0.11371464175975103,-4.760570187803181,-0.113586135,-1.0068333600000001,0.27648855,5.7835399999999995,-14.268099999999999,39.20294,71.0
1774822245.738216,0.0025835037231445312,2026-03-29T22:10:45.738,2026-03-29T18:10:45.738,-33546.15,-47885.265,-84759.39,-49933.53,-15225.21,-19655.684999999998,5364.63,-63451.619999999995,-0.7177862892484073,3.572702025569099,8.006655987418924,0.24846630174330367,2.1545404054528743,2.057205279622132,0.06340339724911703,-1.7944143974733362,-0.11315889,-1.004330925,0.27819753,14.817459999999999,-10.77356,38.15,71.0
1774822245.738245,2.9087066650390625e-05,2026-03-29T22:10:45.738,2026-03-29T18:10:45.738,-33539.625,-47878.784999999996,-84750.56999999999,-49927.634999999995,-15221.34,-19654.965,5357.5199999999995,-63451.395,3.0594115538911177,7.721637042772175,15.652480492549751,-0.4946602391666562,-1.7190082036773005,1.4403380376074544,0.17232358803682696,1.4156373814743852,-0.11315889,-1.004330925,0.27819753,14.817459999999999,-10.77356,38.15,71.0
1774822245.7460284,0.007783412933349609,2026-03-29T22:10:45.746,2026-03-29T18:10:45.746,-33527.115,-47868.435,-84740.715,-49925.115,-15224.939999999999,-19666.53,5351.535,-63441.27,5.317870861123921,8.37462685442537,16.287667441128708,-0.6440386688639596,-4.585300762498215,0.4308133834398955,0.4288243652676555,3.7245153560231885,-0.11315889,-1.004330925,0.27819753,14.817459999999999,-10.77356,38.15,71.0
1774822245.7460475,1.9073486328125e-05,2026-03-29T22:10:45.746,2026-03-29T18:10:45.746,-33535.665,-47877.39,-84749.31,-49942.08,-15245.955,-19682.864999999998,5349.24,-63447.524999999994,5.321701505555118,5.16511387031364,9.19588547778748,-0.5171958375358674,-5.460593766118596,-0.9327951583550068,0.6507175873170623,4.531817021801618,-0.11315889,-1.004330925,0.27819753,14.817459999999999,-10.77356,38.15,71.0
1774822245.7460637,1.621246337890625e-05,2026-03-29T22:10:45.746,2026-03-29T18:10:45.746,-33555.15,-47886.525,-84767.265,-49940.595,-15238.08,-19670.04,5354.955,-63470.52,3.3032075568189527,-0.4617725881772106,-2.6316945112819856,-0.5628266535184412,-4.243078187027999,-2.384243817166536,0.5972351149841477,3.8475898779526294,-0.11315889,-1.004330925,0.27819753,14.817459999999999,-10.77356,38.15,71.0
1774822245.7460687,5.0067901611328125e-06,2026-03-29T22:10:45.746,2026-03-29T18:10:45.746,-33572.07,-47885.805,-84750.165,-49923.72,-15230.115,-19665.27,5358.0599999999995,-63488.835,0.2421723622863912,-5.910933528232892,-13.76082360147389,-0.9687466743681881,-1.6215410874286553,-3.3872223234740275,0.1430173425484553,2.106466597497743,-0.11315889,-1.004330925,0.27819753,14.817459999999999,-10.77356,38.15,71.0
1774822245.7498565,0.0037877559661865234,2026-03-29T22:10:45.749,2026-03-29T18:10:45.749,-33544.935,-47868.795,-84729.465,-49935.555,-15248.07,-19690.155,5350.1849999999995,-63458.64,-2.6189984585061308,-8.65431152966453,-18.84048658699387,-1.4701664298660877,1.3095264879936177,-3.3199546813645266,-0.5954193385382741,-0.09639316593237034,-0.11315889,-1.004330925,0.27819753,14.817459999999999,-10.77356,38.15,71.0
1774822245.7498775,2.09808349609375e-05,2026-03-29T22:10:45.749,2026-03-29T18:10:45.749,-33542.505,-47882.52,-84768.03,-49936.005,-15239.205,-19700.145,5342.67,-63456.165,-4.280295665207052,-7.4241426918076305,-15.20487480561304,-1.500068156593923,3.5155174028497327,-1.8321101987021138,-1.2713124997590202,-2.1914298479838417,-0.11315889,-1.004330925,0.27819753,14.817459999999999,-10.77356,38.15,71.0
1774822245.7579648,0.008087396621704102,2026-03-29T22:10:45.757,2026-03-29T18:10:45.757,-33554.25,-47886.84,-84770.685,-49918.32,-15212.205,-19668.825,5340.6449999999995,-63473.579999999994,-4.303655320036015,-2.8105512597225992,-4.27404954108269,-0.6030987813533341,4.36506614357432,0.8213503041115676,-1.471689875742204,-3.6947723871451097,-0.11315889,-1.004330925,0.27819753,14.817459999999999,-10.77356,38.15,71.0
1774822245.7579808,1.5974044799804688e-05,2026-03-29T22:10:45.757,2026-03-29T18:10:45.757,-33562.53,-47883.24,-84739.545,-49929.659999999996,-15215.939999999999,-19645.469999999998,5352.885,-63481.545,-2.8636519334007935,3.023549231378545,8.983078315600745,1.147408326310247,3.74926056950605,3.701916349732361,-0.9557851855739895,-4.208212166351825,-0.11315889,-1.004330925,0.27819753,14.817459999999999,-10.77356,38.15,71.0
1774822245.758,1.9073486328125e-05,2026-03-29T22:10:45.757,2026-03-29T18:10:45.757,-33546.24,-47863.845,-84719.025,-49940.595,-15231.689999999999,-19643.805,5356.035,-63468.45,-0.5771614607876394,7.372186968142021,18.332047381396126,3.0195129529989115,1.9990034636171519,5.491108557498934,0.1652801671369604,-3.4645319565222157,-0.11291475000000001,-0.996518445,0.27929616,22.09648,-7.3705799999999995,37.6922,71.0
1774822245.75801,1.0013580322265625e-05,2026-03-29T22:10:45.758,2026-03-29T18:10:45.758,-33543.54,-47868.255,-84733.245,-49936.86,-15230.654999999999,-19650.555,5349.195,-63465.795,1.7651919521613895,8.26430703370791,19.24374390341492,3.9193436076475057,-0.29831492553739636,5.095564594756059,1.4229964753973787,-1.4637022199923537,-0.11291475000000001,-0.996518445,0.27929616,22.09648,-7.3705799999999995,37.6922,71.0
1774822245.7615771,0.003567218780517578,2026-03-29T22:10:45.761,2026-03-29T18:10:45.761,-33544.71,-47874.104999999996,-84747.87,-49931.46,-15225.39,-19648.665,5354.37,-63466.11,3.4467792491353926,5.37689657913632,11.121324516226005,2.999720870852415,-2.4797056355328673,2.275695217925058,2.188867132190589,1.3681177330688288,-0.11291475000000001,-0.996518445,0.27929616,22.09648,-7.3705799999999995,37.6922,71.0
1774822245.761593,1.5974044799804688e-05,2026-03-29T22:10:45.761,2026-03-29T18:10:45.761,-33549.299999999996,-47894.49,-84788.19,-49909.095,-15212.34,-19647.765,5350.7699999999995,-63470.115,3.990436190380028,0.15146291559932423,-2.3251430639072947,0.2527760914316942,-3.9382509716748633,-2.05005278483024,1.9910189453849076,4.145049915069157,-0.11291475000000001,-0.996518445,0.27929616,22.09648,-7.3705799999999995,37.6922,71.0
1774822245.7713516,0.009758472442626953,2026-03-29T22:10:45.771,2026-03-29T18:10:45.771,-33552.945,-47916.134999999995,-84826.935,-49906.575,-15198.345,-19639.665,5352.3,-63466.829999999994,3.241753503754404,-4.928641915194896,-14.78444383209492,-3.28189584094687,-4.221895581155492,-6.055581206495969,0.7895167711749789,5.73761577092897,-0.11291475000000001,-0.996518445,0.27929616,22.09648,-7.3705799999999995,37.6922,71.0
1774822245.771368,1.6450881958007812e-05,2026-03-29T22:10:45.771,2026-03-29T18:10:45.771,-33547.725,-47914.38,-84813.93,-49924.89,-15199.74,-19641.329999999998,5350.905,-63454.005,1.3956920774215935,-7.537083671879485,-20.342590444558184,-5.887323599382267,-3.1368377602823525,-7.776307154283641,-0.9451745509615777,5.228931782670026,-0.11291475000000001,-0.996518445,0.27929616,22.09648,-7.3705799999999995,37.6922,71.0
1774822245.7713828,1.4781951904296875e-05,2026-03-29T22:10:45.771,2026-03-29T18:10:45.771,-33532.56,-47890.665,-84789.72,-49956.165,-15221.16,-19658.925,5348.205,-63442.665,-1.0247719378270344,-6.593499400607293,-16.334860060715897,-5.999967801104261,-0.8583345760733136,-6.07454518572919,-2.415070023756412,2.4289632731790647,-0.11291475000000001,-0.996518445,0.27929616,22.09648,-7.3705799999999995,37.6922,71.0
1774822245.77139,7.152557373046875e-06,2026-03-29T22:10:45.771,2026-03-29T18:10:45.771,-33530.76,-47885.625,-84780.36,-49980.555,-15253.47,-19680.975,5344.785,-63442.215,-3.2600967815015145,-2.72265762091501,-4.657643892927022,-3.1005030985022026,2.0087241303763226,-1.3261424824637835,-2.8688620484562604,-1.8364684011544385,-0.11291475000000001,-0.996518445,0.27929616,22.09648,-7.3705799999999995,37.6922,71.0
1774822245.7768276,0.005437612533569336,2026-03-29T22:10:45.776,2026-03-29T18:10:45.776,-33545.115,-47859.795,-84696.165,-49913.1,-15236.189999999999,-19669.815,5347.755,-63470.024999999994,-4.503206079405921,2.117403484849192,9.119985866664967,1.8266073318940914,4.5094548881767444,4.565100247860269,-1.988955483301707,-5.892379992924337,-0.11291475000000001,-0.996518445,0.27929616,22.09648,-7.3705799999999995,37.6922,71.0
1774822245.7768483,2.0742416381835938e-05,2026-03-29T22:10:45.776,2026-03-29T18:10:45.776,-33542.369999999995,-47853.99,-84688.515,-49889.205,-15212.88,-19655.64,5344.74,-63471.78,-4.173189998934396,5.629601373042789,18.433488856528946,6.581370690179338,5.612124403024527,8.91899062081385,-0.09077745978548832,-7.8606523022674235,-0.11291475000000001,-0.996518445,0.27929616,22.09648,-7.3705799999999995,37.6922,71.0
1774822245.7812357,0.004387378692626953,2026-03-29T22:10:45.781,2026-03-29T18:10:45.781,-33554.565,-47868.479999999996,-84714.25499999999,-49883.4,-15197.67,-19647.765,5342.985,-63485.64,-2.191457361603317,6.288651844681012,18.893814520433267,8.73006272151081,4.6256778323873,9.506423113194257,1.983896083576331,-6.543181875854096,-0.11096163,-0.987607335,0.28271412,28.932959999999998,-2.4415999999999998,35.89152,71.0
1774822245.7812552,1.9550323486328125e-05,2026-03-29T22:10:45.781,2026-03-29T18:10:45.781,-33553.979999999996,-47876.805,-84738.105,-49880.655,-15192.09,-19650.735,5344.875,-63486.81,0.8732317511234535,4.02308736240482,10.402949909397087,6.84266490707459,1.5970785709810684,5.687038695144163,3.2476527506909942,-2.120764165545516,-0.11096163,-0.987607335,0.28271412,28.932959999999998,-2.4415999999999998,35.89152,71.0
1774822245.7812743,1.9073486328125e-05,2026-03-29T22:10:45.781,2026-03-29T18:10:45.781,-33539.94,-47867.58,-84728.83499999999,-49892.625,-15212.474999999999,-19671.48,5345.28,-63473.04,3.9100376507019297,0.15434476391137472,-2.8254428439674983,1.3595916555014675,-2.52913389578586,-1.1219987298670615,3.0468208974902375,3.729025136503379,-0.11096163,-0.987607335,0.28271412,28.932959999999998,-2.4415999999999998,35.89152,71.0
1774822245.781282,7.62939453125e-06,2026-03-29T22:10:45.781,2026-03-29T18:10:45.781,-33538.14,-47867.939999999995,-84723.25499999999,-49903.155,-15231.06,-19680.524999999998,5351.13,-63465.57,5.645811779537834,-3.341072753876325,-14.35129676604001,-5.410960803745841,-6.144068618207941,-7.94436552162602,1.4028346780096426,8.445860377855004,-0.11096163,-0.987607335,0.28271412,28.932959999999998,-2.4415999999999998,35.89152,71.0
1774822245.7857316,0.004449605941772461,2026-03-29T22:10:45.785,2026-03-29T18:10:45.785,-33531.75,-47886.03,-84756.15,-49904.549999999996,-15234.39,-19687.05,5351.22,-63444.869999999995,5.183082284528627,-4.84597080717733,-18.67007807053783,-10.258236432025278,-7.584350075190438,-11.550804537262334,-0.9639236445217401,9.720997965510863,-0.11096163,-0.987607335,0.28271412,28.932959999999998,-2.4415999999999998,35.89152,71.0
1774822245.7857525,2.09808349609375e-05,2026-03-29T22:10:45.785,2026-03-29T18:10:45.785,-33524.505,-47895.345,-84774.78,-49895.685,-15230.744999999999,-19703.204999999998,5339.5199999999995,-63433.079999999994,2.466602457047986,-3.871608117705393,-13.888636106669606,-10.59647078615817,-5.897054557841974,-9.997480314560347,-2.9552890957758553,6.642721510523448,-0.11096163,-0.987607335,0.28271412,28.932959999999998,-2.4415999999999998,35.89152,71.0
1774822245.789874,0.004121541976928711,2026-03-29T22:10:45.789,2026-03-29T18:10:45.789,-33519.915,-47884.59,-84776.44499999999,-49925.205,-15236.505,-19690.469999999998,5334.525,-63436.545,-1.5652277129462155,-1.2070453266444097,-2.595012756974029,-5.825227680752428,-1.4077696200054552,-3.659217676543384,-3.6159927083119143,0.2779261130705599,-0.11096163,-0.987607335,0.28271412,28.932959999999998,-2.4415999999999998,35.89152,71.0
1774822245.7898972,2.3126602172851562e-05,2026-03-29T22:10:45.789,2026-03-29T18:10:45.789,-33557.49,-47880.27,-84754.395,-49923.09,-15208.109999999999,-19632.51,5356.215,-63494.415,-5.273941331190855,1.5927254083979743,9.496158082618676,2.1863955087848357,4.228342015829192,4.785792264214263,-2.6022408741228196,-6.659366082192586,-0.11096163,-0.987607335,0.28271412,28.932959999999998,-2.4415999999999998,35.89152,71.0
1774822245.7936172,0.0037200450897216797,2026-03-29T22:10:45.793,2026-03-29T18:10:45.793,-33563.43,-47890.35,-84772.215,-49952.295,-15217.154999999999,-19619.19,5368.7699999999995,-63497.43,-6.986642240648793,3.0785333793467835,16.430010970849516,9.81288851842421,8.606401018846956,11.485891642518968,-0.3640343717111764,-10.973839907049486,-0.11096163,-0.987607335,0.28271412,28.932959999999998,-2.4415999999999998,35.89152,71.0
1774822245.7936397,2.2411346435546875e-05,2026-03-29T22:10:45.793,2026-03-29T18:10:45.793,-33545.43,-47880.045,-84765.33,-49944.645,-15229.394999999999,-19641.735,5366.295,-63478.17,-5.763176322866945,2.6626827270027174,14.973999409984902,13.321295062182447,9.596731415384367,13.184540665766914,2.0567054167685446,-10.483957342310262,-0.11096163,-0.987607335,0.28271412,28.932959999999998,-2.4415999999999998,35.89152,71.0
1774822245.7992768,0.005637168884277344,2026-03-29T22:10:45.799,2026-03-29T18:10:45.799,-33533.145,-47877.435,-84761.86499999999,-49905.09,-15201.045,-19627.245,5366.835,-63465.119999999995,-1.906889590839636,0.8630360132943753,6.171199211879209,10.701658757306081,6.378410659082607,8.809805295865075,3.5208793281196518,-5.135826054959703,-0.10693332,-0.978085875,0.28698657,34.075579999999995,6.165039999999999,33.75512,71.0
1774822245.799297,2.0265579223632812e-05,2026-03-29T22:10:45.799,2026-03-29T18:10:45.799,-33516.9,-47867.22,-84743.145,-49906.845,-15213.105,-19647.18,5362.2,-63449.505,3.0563925093159465,-1.0722031955490674,-5.281687477746191,2.779047709099131,-0.019769696805790143,0.10598649964872024,3.3408088774214666,2.8372055497771944,-0.10693332,-0.978085875,0.28698657,34.075579999999995,6.165039999999999,33.75512,71.0
1774822245.8021734,0.00287628173828125,2026-03-29T22:10:45.802,2026-03-29T18:10:45.802,-33518.97,-47867.939999999995,-84741.435,-49916.025,-15221.654999999999,-19656.45,5359.1849999999995,-63451.439999999995,6.976303604285327,-1.928265808082122,-13.492461008158935,-6.9944282055214515,-6.993723063794228,-9.049447733553894,1.6131560747737892,9.848313304291652,-0.10693332,-0.978085875,0.28698657,34.075579999999995,6.165039999999999,33.75512,71.0
1774822245.8022015,2.8133392333984375e-05,2026-03-29T22:10:45.802,2026-03-29T18:10:45.802,-33524.369999999995,-47876.354999999996,-84761.955,-49913.189999999995,-15212.789999999999,-19653.975,5352.03,-63455.174999999996,8.021287487949113,-1.238031712249992,-14.398387247170351,-14.05025925865023,-11.415812992294864,-14.382531365824052,-0.8292577215076007,12.593158168201345,-0.10693332,-0.978085875,0.28698657,34.075579999999995,6.165039999999999,33.75512,71.0
1774822245.806498,0.004296541213989258,2026-03-29T22:10:45.806,2026-03-29T18:10:45.806,-33527.7,-47896.965,-84802.995,-49903.83,-15201.269999999999,-19655.28,5351.58,-63447.975,5.547521445418764,0.45700993764826364,-7.807647623061662,-14.852326724419473,-11.043112132558633,-13.230481389742897,-2.8240963763010742,9.63100974392327,-0.10693332,-0.978085875,0.28698657,34.075579999999995,6.165039999999999,33.75512,71.0
1774822245.8065302,3.218650817871094e-05,2026-03-29T22:10:45.806,2026-03-29T18:10:45.806,-33549.885,-47905.244999999995,-84788.235,-49884.165,-15189.164999999999,-19648.62,5350.095,-63470.115,0.4751785333794176,1.94595920798125,2.580580518414712,-8.666283915565694,-5.645037443556026,-5.8713888036309125,-3.443958088970239,2.1437226278017736,-0.10693332,-0.978085875,0.28698657,34.075579999999995,6.165039999999999,33.75512,71.0
1774822245.8100026,0.0034723281860351562,2026-03-29T22:10:45.810,2026-03-29T18:10:45.810,-33572.79,-47898.045,-84744.62999999999,-49861.89,-15173.82,-19633.23,5354.37,-63502.515,-5.040549627740381,2.0953678978597425,11.170551374784555,1.9357278218547027,2.7132048908462862,4.488122138758121,-2.4398206008229146,-6.527807955343737,-0.10693332,-0.978085875,0.28698657,34.075579999999995,6.165039999999999,33.75512,71.0
1774822245.8100235,2.09808349609375e-05,2026-03-29T22:10:45.810,2026-03-29T18:10:45.810,-33555.869999999995,-47886.795,-84734.01,-49877.369999999995,-15191.73,-19651.184999999998,5345.6849999999995,-63488.34,-8.533246921819956,0.5752315976575446,13.43105037352724,12.144635283455026,10.440774784477881,13.114693019456515,-0.3461711341303593,-12.391937162919259,-0.10693332,-0.978085875,0.28698657,34.075579999999995,6.165039999999999,33.75512,71.0
1774822245.8141572,0.004133701324462891,2026-03-29T22:10:45.814,2026-03-29T18:10:45.814,-33547.59,-47877.615,-84721.545,-49842.494999999995,-15163.244999999999,-19638.405,5342.49,-63485.46,-8.343521744878018,-1.8646975909002452,8.275242934780989,17.113315918400225,13.968320106486448,15.924040909442446,1.7993004587055228,-12.669522215716512,-0.10693332,-0.978085875,0.28698657,34.075579999999995,6.165039999999999,33.75512,71.0
1774822245.81418,2.2649765014648438e-05,2026-03-29T22:10:45.814,2026-03-29T18:10:45.814,-33547.635,-47901.465,-84763.89,-49831.875,-15156.09,-19635.614999999998,5351.175,-63478.89,-4.417325032112359,-3.755465472424456,-1.386427339485756,14.270591306685567,11.403024126226889,11.424144073743289,2.975897707804266,-7.130250703824625,-0.10693332,-0.978085875,0.28698657,34.075579999999995,6.165039999999999,33.75512,71.0
1774822245.8360553,0.021875381469726562,2026-03-29T22:10:45.836,2026-03-29T18:10:45.836,-33547.095,-47893.229999999996,-84747.915,-49902.21,-15214.365,-19654.559999999998,5365.304999999999,-63469.89,1.6039153916504756,-3.7364541949412104,-10.213389299090897,4.639029129460253,3.5208036846731794,1.4968662547807514,2.676859711646385,1.7488539954102882,-0.10571262000000001,-0.972592725,0.286315185,36.074639999999995,14.069719999999998,30.809939999999997,71.0
1774822245.8360896,3.4332275390625e-05,2026-03-29T22:10:45.836,2026-03-29T18:10:45.836,-33531.705,-47869.92,-84735.495,-49949.189999999995,-15244.109999999999,-19663.785,5366.295,-63458.549999999996,7.072886430697398,-1.401546790248161,-13.30313053013998,-7.514750287889183,-6.4161685691187,-9.387082989994436,1.136383445527249,9.902038916749666,-0.10571262000000001,-0.972592725,0.286315185,36.074639999999995,14.069719999999998,30.809939999999997,71.0
1774822245.83611,2.0503997802734375e-05,2026-03-29T22:10:45.836,2026-03-29T18:10:45.836,-33529.409999999996,-47877.345,-84757.05,-49945.14,-15240.689999999999,-19672.695,5354.099999999999,-63458.909999999996,9.513818724033241,2.325979097639293,-8.848749581243606,-16.587848858521564,-14.0084552675534,-16.192947341166732,-0.8190961961896978,13.559516695168867,-0.10571262000000001,-0.972592725,0.286315185,36.074639999999995,14.069719999999998,30.809939999999997,71.0
1774822245.836118,7.867813110351562e-06,2026-03-29T22:10:45.836,2026-03-29T18:10:45.836,-33535.305,-47873.475,-84733.47,-49937.04,-15238.664999999999,-19673.82,5345.595,-63462.915,7.757362810334797,5.549107437846045,0.8317744020945635,-18.245062098484897,-15.677348006463577,-15.66359953939514,-2.2091701989266546,11.013488537581845,-0.10571262000000001,-0.972592725,0.286315185,36.074639999999995,14.069719999999998,30.809939999999997,71.0
1774822245.8361273,9.298324584960938e-06,2026-03-29T22:10:45.836,2026-03-29T18:10:45.836,-33539.085,-47871.045,-84723.705,-49920.119999999995,-15228.855,-19668.915,5338.349999999999,-63466.649999999994,2.506278339396775,6.351881423360955,10.470165149727388,-11.49845460208782,-10.355377347051046,-7.882811099415383,-2.396601365001734,3.4276805564930255,-0.10571262000000001,-0.972592725,0.286315185,36.074639999999995,14.069719999999998,30.809939999999997,71.0
1774822245.8361344,7.152557373046875e-06,2026-03-29T22:10:45.836,2026-03-29T18:10:45.836,-33542.1,-47885.13,-84749.625,-49925.07,-15230.295,-19674.405,5335.785,-63472.095,-3.943660014574997,3.8763951991759247,14.642164964465342,0.7395424299261518,-0.10872479304179794,3.6923087165817963,-1.3890456207135804,-5.698256936629811,-0.10571262000000001,-0.972592725,0.286315185,36.074639999999995,14.069719999999998,30.809939999999997,71.0
1774822245.8361435,9.059906005859375e-06,2026-03-29T22:10:45.836,2026-03-29T18:10:45.836,-33533.325,-47878.784999999996,-84741.345,-49921.11,-15225.75,-19664.415,5345.099999999999,-63461.88,-8.71720582571249,-1.063490136022664,10.724187413910023,12.927838565846281,10.652975143461937,13.776127844758646,0.20162820308932974,-12.160457240595374,-0.10571262000000001,-0.972592725,0.286315185,36.074639999999995,14.069719999999998,30.809939999999997,71.0
1774822245.8361511,7.62939453125e-06,2026-03-29T22:10:45.836,2026-03-29T18:10:45.836,-33537.869999999995,-47892.06,-84763.44,-49928.4,-15226.875,-19661.67,5350.1849999999995,-63463.725,-9.655057778473228,-6.214177849739782,0.4332219453622893,19.430675305919895,17.083341813910298,17.68166911403345,1.5087578989138597,-13.009293484148898,-0.10571262000000001,-0.972592725,0.286315185,36.074639999999995,14.069719999999998,30.809939999999997,71.0
1774822245.8361604,9.298324584960938e-06,2026-03-29T22:10:45.836,2026-03-29T18:10:45.836,-33545.565,-47893.32,-84755.16,-49908.015,-15214.635,-19652.67,5358.0599999999995,-63476.28,-6.301073070408688,-8.916968057244732,-10.918676449734232,17.142969525120474,16.09357114603279,13.508873112005105,1.8763648823934524,-7.911898985602246,-0.10571262000000001,-0.972592725,0.286315185,36.074639999999995,14.069719999999998,30.809939999999997,71.0
1774822245.836168,7.62939453125e-06,2026-03-29T22:10:45.836,2026-03-29T18:10:45.836,-33540.39,-47886.975,-84762.765,-49901.445,-15212.744999999999,-19659.645,5352.974999999999,-63471.149999999994,-0.12550167095092613,-7.4673749534614196,-17.135515319324004,6.97454957589442,7.835202416143414,3.0675382268596714,1.1930158931260364,0.717757872614855,-0.10571262000000001,-0.972592725,0.286315185,36.074639999999995,14.069719999999998,30.809939999999997,71.0
1774822245.842704,0.006536006927490234,2026-03-29T22:10:45.842,2026-03-29T18:10:45.842,-33530.58,-47878.424999999996,-84777.165,-49906.845,-15204.195,-19664.55,5346.945,-63458.369999999995,6.124969952397329,-2.1084808860530666,-14.440752756916773,-6.5175644951956455,-4.240516685527571,-8.912898135567882,-0.07759445948529062,8.871146006539064,-0.107726775,-0.970151325,0.282164805,32.717439999999996,20.234759999999998,29.02452,71.0
1774822245.8427632,5.91278076171875e-05,2026-03-29T22:10:45.842,2026-03-29T18:10:45.842,-33521.4,-47884.59,-84804.75,-49926.689999999995,-15200.055,-19661.805,5347.26,-63445.365,9.65988886793644,4.895529754098606,-3.638343647764099,-17.196763846118728,-14.829276728427937,-16.93886000826015,-1.1760703777813217,12.82483428839803,-0.107726775,-0.970151325,0.282164805,32.717439999999996,20.234759999999998,29.02452,71.0
1774822245.8472688,0.004505634307861328,2026-03-29T22:10:45.847,2026-03-29T18:10:45.847,-33527.07,-47912.715,-84840.165,-49948.56,-15210.72,-19660.454999999998,5352.48,-63444.015,8.901842238695458,10.22219114912416,10.06261714867804,-20.16420972867307,-19.11785866121863,-17.284469056337326,-1.4780206738404957,10.857608643587877,-0.107726775,-0.970151325,0.282164805,32.717439999999996,20.234759999999998,29.02452,71.0
1774822245.8472953,2.6464462280273438e-05,2026-03-29T22:10:45.847,2026-03-29T18:10:45.847,-33545.25,-47877.255,-84712.815,-49899.24,-15222.914999999999,-19673.37,5349.105,-63476.235,4.196443725575327,11.077845391960743,19.567712220678338,-14.020048154135745,-14.983164703893323,-9.72660919421654,-0.8390860429646162,4.005554739243962,-0.107726775,-0.970151325,0.282164805,32.717439999999996,20.234759999999998,29.02452,71.0
1774822245.8473177,2.2411346435546875e-05,2026-03-29T22:10:45.847,2026-03-29T18:10:45.847,-33539.354999999996,-47849.939999999995,-84669.12,-49889.744999999995,-15227.414999999999,-19682.505,5342.355,-63481.95,-2.346306662076139,6.645781372430927,19.538407005280945,-1.5179626843556457,-4.03620649596563,2.3274967320457867,0.33292257108584167,-4.478269065246543,-0.107726775,-0.970151325,0.282164805,32.717439999999996,20.234759999999998,29.02452,71.0
1774822245.8473246,6.9141387939453125e-06,2026-03-29T22:10:45.847,2026-03-29T18:10:45.847,-33533.505,-47868.93,-84719.06999999999,-49899.915,-15213.105,-19664.774999999998,5345.054999999999,-63465.615,-7.8053307861328785,-1.3495491200688574,9.296209759415417,11.690788157072364,8.999935875701079,13.388382591043193,1.3158617139516193,-10.678963223536563,-0.107726775,-0.970151325,0.282164805,32.717439999999996,20.234759999999998,29.02452,71.0
1774822245.8511329,0.003808259963989258,2026-03-29T22:10:45.851,2026-03-29T18:10:45.851,-33529.635,-47872.755,-84728.16,-49894.515,-15205.994999999999,-19658.295,5353.065,-63456.165,-9.762028850205054,-9.307547224430053,-6.558593794215512,19.640897603443104,18.34092387860714,18.39890530142966,1.4886650992063963,-11.84079946278575,-0.107726775,-0.970151325,0.282164805,32.717439999999996,20.234759999999998,29.02452,71.0
1774822245.8511553,2.2411346435546875e-05,2026-03-29T22:10:45.851,2026-03-29T18:10:45.851,-33526.619999999995,-47882.79,-84748.59,-49917.195,-15226.019999999999,-19675.215,5349.465,-63447.345,-7.37906401925898,-13.39265955507736,-20.23707421035362,18.769562018687726,19.724214117425618,15.056361829159586,0.6942572912455429,-7.600293166685117,-0.107726775,-0.970151325,0.282164805,32.717439999999996,20.234759999999998,29.02452,71.0
